Jan. 28, 2006   01:05:37
Cyclic Voltammetry
File: z:\users\scottsaunders\git\labwork\ida\01_17_19_psoralen_nonequil_2\data\control\2\75um_control_transfer_2_gc_3.txt
Data Source:  Experiment
Instrument Model:  CHI760E
Header: 
Note: 

Init E (V) = 0
High E (V) = 0
Low E (V) = -0.4
Init P/N = N
Scan Rate (V/s) = 0.003
Segment = 1
Sample Interval (V) = 0.001
Quiet Time (sec) = 2
Sensitivity (A/V) = 1e-7
2nd E (V) = 0
Sens 2 (A/V) = 1e-7

Potential/V, i1/A, i2/A, Time/s

0.000, -5.4395855e-8, -7.1372284e-8, 3.3333334e-1
-0.001, -4.9728875e-8, -6.6657933e-8, 6.6666669e-1
-0.002, -4.5971980e-8, -6.2579112e-8, 1.0000000e+0
-0.003, -4.2840316e-8, -5.9177054e-8, 1.3333334e+0
-0.004, -4.0085293e-8, -5.6077422e-8, 1.6666667e+0
-0.005, -3.7657141e-8, -5.3404833e-8, 2.0000000e+0
-0.006, -3.5506421e-8, -5.0935228e-8, 2.3333333e+0
-0.007, -3.3476638e-8, -4.8800796e-8, 2.6666665e+0
-0.008, -3.1751124e-8, -4.6830209e-8, 2.9999998e+0
-0.009, -3.0230744e-8, -4.5078252e-8, 3.3333330e+0
-0.010, -2.8791284e-8, -4.3428948e-8, 3.6666663e+0
-0.011, -2.7514863e-8, -4.2004583e-8, 3.9999995e+0
-0.012, -2.6313288e-8, -4.0602668e-8, 4.3333330e+0
-0.013, -2.5224745e-8, -3.9361232e-8, 4.6666665e+0
-0.014, -2.4216485e-8, -3.8210064e-8, 5.0000000e+0
-0.015, -2.3269173e-8, -3.7153395e-8, 5.3333335e+0
-0.016, -2.2388404e-8, -3.6132594e-8, 5.6666670e+0
-0.017, -2.1550129e-8, -3.5201495e-8, 6.0000005e+0
-0.018, -2.0729431e-8, -3.4305387e-8, 6.3333340e+0
-0.019, -2.0081993e-8, -3.3467913e-8, 6.6666675e+0
-0.020, -1.9415305e-8, -3.2725175e-8, 7.0000010e+0
-0.021, -1.8713626e-8, -3.1973975e-8, 7.3333344e+0
-0.022, -1.8130255e-8, -3.1316794e-8, 7.6666679e+0
-0.023, -1.7575319e-8, -3.0681498e-8, 8.0000010e+0
-0.024, -1.7055292e-8, -3.0025433e-8, 8.3333340e+0
-0.025, -1.6548126e-8, -2.9449486e-8, 8.6666670e+0
-0.026, -1.6052383e-8, -2.8899345e-8, 9.0000000e+0
-0.027, -1.5570938e-8, -2.8328994e-8, 9.3333330e+0
-0.028, -1.5108746e-8, -2.7713030e-8, 9.6666660e+0
-0.029, -1.4665646e-8, -2.7273924e-8, 9.9999990e+0
-0.030, -1.4261925e-8, -2.6814925e-8, 1.0333332e+1
-0.031, -1.3913004e-8, -2.6415679e-8, 1.0666665e+1
-0.032, -1.3557692e-8, -2.5942782e-8, 1.0999998e+1
-0.033, -1.3162281e-8, -2.5522205e-8, 1.1333331e+1
-0.034, -1.2762635e-8, -2.5095641e-8, 1.1666664e+1
-0.035, -1.2538328e-8, -2.4774998e-8, 1.1999997e+1
-0.036, -1.2162327e-8, -2.4451239e-8, 1.2333330e+1
-0.037, -1.1818198e-8, -2.4063096e-8, 1.2666663e+1
-0.038, -1.1578315e-8, -2.3685178e-8, 1.2999996e+1
-0.039, -1.1240577e-8, -2.3458155e-8, 1.3333329e+1
-0.040, -1.1021783e-8, -2.3072888e-8, 1.3666662e+1
-0.041, -1.0707130e-8, -2.2838037e-8, 1.3999995e+1
-0.042, -1.0521407e-8, -2.2554540e-8, 1.4333328e+1
-0.043, -1.0204198e-8, -2.2237172e-8, 1.4666661e+1
-0.044, -9.9681490e-9, -2.2004476e-8, 1.4999994e+1
-0.045, -9.7177217e-9, -2.1673928e-8, 1.5333327e+1
-0.046, -9.5453379e-9, -2.1500187e-8, 1.5666660e+1
-0.047, -9.2453032e-9, -2.1179464e-8, 1.5999993e+1
-0.048, -9.1167749e-9, -2.1011154e-8, 1.6333326e+1
-0.049, -8.8065164e-9, -2.0682842e-8, 1.6666660e+1
-0.050, -8.6617709e-9, -2.0538895e-8, 1.6999994e+1
-0.051, -8.4992928e-9, -2.0266102e-8, 1.7333328e+1
-0.052, -8.2638829e-9, -2.0078540e-8, 1.7666662e+1
-0.053, -8.1181000e-9, -1.9858469e-8, 1.7999996e+1
-0.054, -7.8674320e-9, -1.9638154e-8, 1.8333330e+1
-0.055, -7.7334708e-9, -1.9515138e-8, 1.8666664e+1
-0.056, -7.5952773e-9, -1.9219177e-8, 1.8999998e+1
-0.057, -7.3405357e-9, -1.9099117e-8, 1.9333332e+1
-0.058, -7.2487518e-9, -1.8928729e-8, 1.9666666e+1
-0.059, -7.0905077e-9, -1.8694998e-8, 2.0000000e+1
-0.060, -6.8597301e-9, -1.8594186e-8, 2.0333334e+1
-0.061, -6.7673880e-9, -1.8377071e-8, 2.0666668e+1
-0.062, -6.6563524e-9, -1.8183119e-8, 2.1000002e+1
-0.063, -6.4806938e-9, -1.8086222e-8, 2.1333336e+1
-0.064, -6.3070322e-9, -1.7873818e-8, 2.1666670e+1
-0.065, -6.2329821e-9, -1.7708544e-8, 2.2000004e+1
-0.066, -6.0518115e-9, -1.7609970e-8, 2.2333338e+1
-0.067, -5.8803065e-9, -1.7471695e-8, 2.2666672e+1
-0.068, -5.7993867e-9, -1.7235408e-8, 2.3000006e+1
-0.069, -5.6896301e-9, -1.7158241e-8, 2.3333340e+1
-0.070, -5.5817106e-9, -1.7062623e-8, 2.3666674e+1
-0.071, -5.3606790e-9, -1.6845666e-8, 2.4000008e+1
-0.072, -5.3120317e-9, -1.6710427e-8, 2.4333342e+1
-0.073, -5.2391798e-9, -1.6645004e-8, 2.4666676e+1
-0.074, -5.0786984e-9, -1.6509526e-8, 2.5000010e+1
-0.075, -4.9021605e-9, -1.6311979e-8, 2.5333344e+1
-0.076, -4.8352202e-9, -1.6205577e-8, 2.5666677e+1
-0.077, -4.7706763e-9, -1.6140156e-8, 2.6000011e+1
-0.078, -4.7077298e-9, -1.6033914e-8, 2.6333345e+1
-0.079, -4.6048427e-9, -1.5835809e-8, 2.6666679e+1
-0.080, -4.4422044e-9, -1.5730205e-8, 2.7000013e+1
-0.081, -4.3490629e-9, -1.5675006e-8, 2.7333347e+1
-0.082, -4.2897113e-9, -1.5586499e-8, 2.7666681e+1
-0.083, -4.2002442e-9, -1.5416990e-8, 2.8000015e+1
-0.084, -4.0735531e-9, -1.5272406e-8, 2.8333349e+1
-0.085, -3.9295269e-9, -1.5220882e-8, 2.8666683e+1
-0.086, -3.8655421e-9, -1.5147073e-8, 2.9000017e+1
-0.087, -3.8098649e-9, -1.5088679e-8, 2.9333351e+1
-0.088, -3.7462793e-9, -1.4898641e-8, 2.9666685e+1
-0.089, -3.6835723e-9, -1.4783372e-8, 3.0000019e+1
-0.090, -3.5413039e-9, -1.4728494e-8, 3.0333353e+1
-0.091, -3.4119763e-9, -1.4680245e-8, 3.0666687e+1
-0.092, -3.3626897e-9, -1.4570089e-8, 3.1000021e+1
-0.093, -3.3392047e-9, -1.4421989e-8, 3.1333355e+1
-0.094, -3.2878407e-9, -1.4309676e-8, 3.1666689e+1
-0.095, -3.2025278e-9, -1.4245293e-8, 3.2000023e+1
-0.096, -3.0845431e-9, -1.4189215e-8, 3.2333355e+1
-0.097, -2.9830141e-9, -1.4128346e-8, 3.2666687e+1
-0.098, -2.8991387e-9, -1.4013557e-8, 3.3000019e+1
-0.099, -2.8651892e-9, -1.3873605e-8, 3.3333351e+1
-0.100, -2.8206155e-9, -1.3789010e-8, 3.3666683e+1
-0.101, -2.7588671e-9, -1.3747632e-8, 3.4000015e+1
-0.102, -2.7328260e-9, -1.3698346e-8, 3.4333347e+1
-0.103, -2.6475928e-9, -1.3645464e-8, 3.4666679e+1
-0.104, -2.5206615e-9, -1.3546012e-8, 3.5000011e+1
-0.105, -2.4325524e-9, -1.3404782e-8, 3.5333344e+1
-0.106, -2.3716829e-9, -1.3322185e-8, 3.5666676e+1
-0.107, -2.3233546e-9, -1.3274096e-8, 3.6000008e+1
-0.108, -2.2810176e-9, -1.3230162e-8, 3.6333340e+1
-0.109, -2.2328492e-9, -1.3185588e-8, 3.6666672e+1
-0.110, -2.1590389e-9, -1.3143491e-8, 3.7000004e+1
-0.111, -2.0484034e-9, -1.3043318e-8, 3.7333336e+1
-0.112, -1.9507884e-9, -1.2916787e-8, 3.7666668e+1
-0.113, -1.9195552e-9, -1.2828918e-8, 3.8000000e+1
-0.114, -1.8767388e-9, -1.2792253e-8, 3.8333332e+1
-0.115, -1.8468632e-9, -1.2762617e-8, 3.8666664e+1
-0.116, -1.8141119e-9, -1.2720999e-8, 3.8999996e+1
-0.117, -1.7585943e-9, -1.2678901e-8, 3.9333328e+1
-0.118, -1.7152988e-9, -1.2619870e-8, 3.9666660e+1
-0.119, -1.6331010e-9, -1.2515705e-8, 3.9999992e+1
-0.120, -1.5147169e-9, -1.2407464e-8, 4.0333324e+1
-0.121, -1.4537676e-9, -1.2335092e-8, 4.0666656e+1
-0.122, -1.3972116e-9, -1.2287723e-8, 4.0999989e+1
-0.123, -1.3631024e-9, -1.2245705e-8, 4.1333321e+1
-0.124, -1.3428125e-9, -1.2203368e-8, 4.1666653e+1
-0.125, -1.3045494e-9, -1.2147131e-8, 4.1999985e+1
-0.126, -1.2691620e-9, -1.2068289e-8, 4.2333317e+1
-0.127, -1.1918370e-9, -1.1970754e-8, 4.2666649e+1
-0.128, -1.1192249e-9, -1.1890473e-8, 4.2999981e+1
-0.129, -1.0504472e-9, -1.1843823e-8, 4.3333313e+1
-0.130, -9.6241803e-10, -1.1812190e-8, 4.3666645e+1
-0.131, -9.3605723e-10, -1.1784471e-8, 4.3999977e+1
-0.132, -9.1944191e-10, -1.1752039e-8, 4.4333309e+1
-0.133, -8.9715507e-10, -1.1718889e-8, 4.4666641e+1
-0.134, -8.7462854e-10, -1.1689252e-8, 4.4999973e+1
-0.135, -8.4579144e-10, -1.1627904e-8, 4.5333305e+1
-0.136, -7.6327411e-10, -1.1559206e-8, 4.5666637e+1
-0.137, -7.0831579e-10, -1.1446733e-8, 4.5999969e+1
-0.138, -6.5783085e-10, -1.1361979e-8, 4.6333302e+1
-0.139, -5.8993183e-10, -1.1346482e-8, 4.6666634e+1
-0.140, -5.2379018e-10, -1.1309178e-8, 4.6999966e+1
-0.141, -4.6947091e-10, -1.1277624e-8, 4.7333298e+1
-0.142, -4.4111306e-10, -1.1246551e-8, 4.7666630e+1
-0.143, -4.1291501e-10, -1.1220909e-8, 4.7999962e+1
-0.144, -3.8575537e-10, -1.1193509e-8, 4.8333294e+1
-0.145, -3.4980882e-10, -1.1155008e-8, 4.8666626e+1
-0.146, -2.7264355e-10, -1.1072170e-8, 4.8999958e+1
-0.147, -2.3869401e-10, -1.1008664e-8, 4.9333290e+1
-0.148, -1.8389548e-10, -1.0931659e-8, 4.9666622e+1
-0.149, -7.5816159e-11, -1.0883809e-8, 4.9999954e+1
-0.150, -1.8701077e-11, -1.0855212e-8, 5.0333286e+1
-0.151, 3.3621134e-11, -1.0842591e-8, 5.0666618e+1
-0.152, 5.4709782e-11, -1.0833485e-8, 5.0999950e+1
-0.153, 7.8754038e-11, -1.0821183e-8, 5.1333282e+1
-0.154, 1.0958819e-10, -1.0805127e-8, 5.1666615e+1
-0.155, 1.8068250e-10, -1.0783319e-8, 5.1999947e+1
-0.156, 2.2206097e-10, -1.0762950e-8, 5.2333279e+1
-0.157, 2.9339492e-10, -1.0732115e-8, 5.2666611e+1
-0.158, 3.6289161e-10, -1.0689379e-8, 5.2999943e+1
-0.159, 4.6801529e-10, -1.0642569e-8, 5.3333275e+1
-0.160, 5.1226950e-10, -1.0578983e-8, 5.3666607e+1
-0.161, 5.4813620e-10, -1.0517235e-8, 5.3999939e+1
-0.162, 5.8863597e-10, -1.0465872e-8, 5.4333271e+1
-0.163, 6.1986954e-10, -1.0424892e-8, 5.4666603e+1
-0.164, 6.5357941e-10, -1.0388946e-8, 5.4999935e+1
-0.165, 7.4815881e-10, -1.0363304e-8, 5.5333267e+1
-0.166, 8.0615264e-10, -1.0339339e-8, 5.5666599e+1
-0.167, 9.4003350e-10, -1.0323602e-8, 5.5999931e+1
-0.168, 1.0156811e-9, -1.0301316e-8, 5.6333263e+1
-0.169, 1.0390064e-9, -1.0287337e-8, 5.6666595e+1
-0.170, 1.0677637e-9, -1.0266248e-8, 5.6999928e+1
-0.171, 1.1009943e-9, -1.0248914e-8, 5.7333260e+1
-0.172, 1.2229728e-9, -1.0233257e-8, 5.7666592e+1
-0.173, 1.2965435e-9, -1.0215364e-8, 5.7999924e+1
-0.174, 1.4014276e-9, -1.0192198e-8, 5.8333256e+1
-0.175, 1.4807496e-9, -1.0165278e-8, 5.8666588e+1
-0.176, 1.5206104e-9, -1.0135163e-8, 5.8999920e+1
-0.177, 1.5611102e-9, -1.0103131e-8, 5.9333252e+1
-0.178, 1.6440269e-9, -1.0057359e-8, 5.9666584e+1
-0.179, 1.7495501e-9, -1.0011827e-8, 5.9999916e+1
-0.180, 1.8861470e-9, -9.9734834e-9, 6.0333248e+1
-0.181, 2.0897641e-9, -9.9452055e-9, 6.0666580e+1
-0.182, 2.0832940e-9, -9.9491988e-9, 6.0999912e+1
-0.183, 2.0999891e-9, -9.9491988e-9, 6.1333244e+1
-0.184, 2.1515123e-9, -9.9302673e-9, 6.1666576e+1
-0.185, 2.2650237e-9, -9.9192441e-9, 6.1999908e+1
-0.186, 2.4174369e-9, -9.9059836e-9, 6.2333241e+1
-0.187, 2.5256761e-9, -9.8991144e-9, 6.2666573e+1
-0.188, 2.5955722e-9, -9.9014308e-9, 6.2999905e+1
-0.189, 2.6903912e-9, -9.8820996e-9, 6.3333237e+1
-0.190, 2.8524703e-9, -9.8848147e-9, 6.3666569e+1
-0.191, 2.9996117e-9, -9.8959987e-9, 6.3999901e+1
-0.192, 3.0310048e-9, -9.8986348e-9, 6.4333237e+1
-0.193, 3.1241465e-9, -9.9122941e-9, 6.4666573e+1
-0.194, 3.3728167e-9, -9.9055839e-9, 6.4999908e+1
-0.195, 3.4847305e-9, -9.9162882e-9, 6.5333244e+1
-0.196, 3.5634931e-9, -9.9361790e-9, 6.5666580e+1
-0.197, 3.7715839e-9, -9.9328235e-9, 6.5999916e+1
-0.198, 3.9607424e-9, -9.9511173e-9, 6.6333252e+1
-0.199, 4.0530854e-9, -1.0001841e-8, 6.6666588e+1
-0.200, 4.2323389e-9, -1.0061193e-8, 6.6999924e+1
-0.201, 4.4612785e-9, -1.0087554e-8, 6.7333260e+1
-0.202, 4.6192037e-9, -1.0131409e-8, 6.7666595e+1
-0.203, 4.8959921e-9, -1.0185568e-8, 6.7999931e+1
-0.204, 5.0151749e-9, -1.0230062e-8, 6.8333267e+1
-0.205, 5.2413984e-9, -1.0253947e-8, 6.8666603e+1
-0.206, 5.4837583e-9, -1.0276793e-8, 6.8999939e+1
-0.207, 5.7813159e-9, -1.0319209e-8, 6.9333275e+1
-0.208, 5.9810192e-9, -1.0372171e-8, 6.9666611e+1
-0.209, 6.2709078e-9, -1.0448857e-8, 6.9999947e+1
-0.210, 6.5711014e-9, -1.0545114e-8, 7.0333282e+1
-0.211, 6.9134729e-9, -1.0694731e-8, 7.0666618e+1
-0.212, 7.1595068e-9, -1.0778925e-8, 7.0999954e+1
-0.213, 7.4914137e-9, -1.0816231e-8, 7.1333290e+1
-0.214, 7.8811544e-9, -1.0843629e-8, 7.1666626e+1
-0.215, 8.2051521e-9, -1.0947316e-8, 7.1999962e+1
-0.216, 8.5675733e-9, -1.1127767e-8, 7.2333298e+1
-0.217, 8.9192902e-9, -1.1222746e-8, 7.2666634e+1
-0.218, 9.3988977e-9, -1.1315168e-8, 7.2999969e+1
-0.219, 9.8404014e-9, -1.1481162e-8, 7.3333305e+1
-0.220, 1.0332629e-8, -1.1682063e-8, 7.3666641e+1
-0.221, 1.0787553e-8, -1.1787107e-8, 7.3999977e+1
-0.222, 1.1245832e-8, -1.1932970e-8, 7.4333313e+1
-0.223, 1.1790462e-8, -1.2173333e-8, 7.4666649e+1
-0.224, 1.2314962e-8, -1.2325507e-8, 7.4999985e+1
-0.225, 1.2848330e-8, -1.2654218e-8, 7.5333321e+1
-0.226, 1.3416284e-8, -1.2789616e-8, 7.5666656e+1
-0.227, 1.4067157e-8, -1.3076470e-8, 7.5999992e+1
-0.228, 1.4705968e-8, -1.3276654e-8, 7.6333328e+1
-0.229, 1.5340223e-8, -1.3568619e-8, 7.6666664e+1
-0.230, 1.6014262e-8, -1.3782301e-8, 7.7000000e+1
-0.231, 1.6751885e-8, -1.4160379e-8, 7.7333336e+1
-0.232, 1.7448929e-8, -1.4401940e-8, 7.7666672e+1
-0.233, 1.8211397e-8, -1.4749503e-8, 7.8000008e+1
-0.234, 1.8971386e-8, -1.5139962e-8, 7.8333344e+1
-0.235, 1.9756699e-8, -1.5433844e-8, 7.8666679e+1
-0.236, 2.0619176e-8, -1.5777815e-8, 7.9000015e+1
-0.237, 2.1457769e-8, -1.6209013e-8, 7.9333351e+1
-0.238, 2.2329274e-8, -1.6642767e-8, 7.9666687e+1
-0.239, 2.3199341e-8, -1.7091383e-8, 8.0000023e+1
-0.240, 2.4121249e-8, -1.7499573e-8, 8.0333359e+1
-0.241, 2.5034533e-8, -1.7913598e-8, 8.0666695e+1
-0.242, 2.6021866e-8, -1.8435623e-8, 8.1000031e+1
-0.243, 2.6961747e-8, -1.8933044e-8, 8.1333366e+1
-0.244, 2.7946841e-8, -1.9441007e-8, 8.1666702e+1
-0.245, 2.9091302e-8, -1.9928203e-8, 8.2000038e+1
-0.246, 3.0102356e-8, -2.0508061e-8, 8.2333374e+1
-0.247, 3.1078425e-8, -2.1030484e-8, 8.2666710e+1
-0.248, 3.2151792e-8, -2.1578151e-8, 8.3000046e+1
-0.249, 3.3137844e-8, -2.2142672e-8, 8.3333382e+1
-0.250, 3.4198827e-8, -2.2689219e-8, 8.3666718e+1
-0.251, 3.5176015e-8, -2.3342569e-8, 8.4000053e+1
-0.252, 3.6287723e-8, -2.3926500e-8, 8.4333389e+1
-0.253, 3.7287275e-8, -2.4523292e-8, 8.4666725e+1
-0.254, 3.8286590e-8, -2.5080302e-8, 8.5000061e+1
-0.255, 3.9346691e-8, -2.5754741e-8, 8.5333397e+1
-0.256, 4.0310621e-8, -2.6403139e-8, 8.5666733e+1
-0.257, 4.1294918e-8, -2.6977483e-8, 8.6000069e+1
-0.258, 4.2331855e-8, -2.7553828e-8, 8.6333405e+1
-0.259, 4.3315911e-8, -2.8351360e-8, 8.6666740e+1
-0.260, 4.4258432e-8, -2.8976832e-8, 8.7000076e+1
-0.261, 4.5227790e-8, -2.9641122e-8, 8.7333412e+1
-0.262, 4.6138673e-8, -3.0282568e-8, 8.7666748e+1
-0.263, 4.7066258e-8, -3.0865223e-8, 8.8000084e+1
-0.264, 4.7986411e-8, -3.1417283e-8, 8.8333420e+1
-0.265, 4.8812144e-8, -3.2076702e-8, 8.8666756e+1
-0.266, 4.9648897e-8, -3.2679488e-8, 8.9000092e+1
-0.267, 5.0449867e-8, -3.3256470e-8, 8.9333427e+1
-0.268, 5.1269527e-8, -3.3804294e-8, 8.9666763e+1
-0.269, 5.2019530e-8, -3.4352915e-8, 9.0000099e+1
-0.270, 5.2757397e-8, -3.4888441e-8, 9.0333435e+1
-0.271, 5.3503808e-8, -3.5400880e-8, 9.0666771e+1
-0.272, 5.4179282e-8, -3.6008139e-8, 9.1000107e+1
-0.273, 5.4883355e-8, -3.6497571e-8, 9.1333443e+1
-0.274, 5.5523767e-8, -3.7022787e-8, 9.1666779e+1
-0.275, 5.6132617e-8, -3.7517651e-8, 9.2000114e+1
-0.276, 5.6767433e-8, -3.7994543e-8, 9.2333450e+1
-0.277, 5.7326844e-8, -3.8453223e-8, 9.2666786e+1
-0.278, 5.7868519e-8, -3.8842085e-8, 9.3000122e+1
-0.279, 5.8357472e-8, -3.9279673e-8, 9.3333458e+1
-0.280, 5.8879895e-8, -3.9735557e-8, 9.3666794e+1
-0.281, 5.9327387e-8, -4.0169230e-8, 9.4000130e+1
-0.282, 5.9803881e-8, -4.0589008e-8, 9.4333466e+1
-0.283, 6.0246421e-8, -4.0962451e-8, 9.4666801e+1
-0.284, 6.0615953e-8, -4.1247468e-8, 9.5000137e+1
-0.285, 6.0990672e-8, -4.1660453e-8, 9.5333473e+1
-0.286, 6.1368112e-8, -4.2064254e-8, 9.5666809e+1
-0.287, 6.1755941e-8, -4.2284807e-8, 9.6000145e+1
-0.288, 6.2130738e-8, -4.2623501e-8, 9.6333481e+1
-0.289, 6.2339467e-8, -4.2972264e-8, 9.6666817e+1
-0.290, 6.2719629e-8, -4.3190902e-8, 9.7000153e+1
-0.291, 6.2940821e-8, -4.3531671e-8, 9.7333488e+1
-0.292, 6.3241885e-8, -4.3780023e-8, 9.7666824e+1
-0.293, 6.3531623e-8, -4.4083254e-8, 9.8000160e+1
-0.294, 6.3738028e-8, -4.4245652e-8, 9.8333496e+1
-0.295, 6.3945166e-8, -4.4558067e-8, 9.8666832e+1
-0.296, 6.4225944e-8, -4.4716629e-8, 9.9000168e+1
-0.297, 6.4390818e-8, -4.5003723e-8, 9.9333504e+1
-0.298, 6.4672001e-8, -4.5146471e-8, 9.9666840e+1
-0.299, 6.4773531e-8, -4.5420464e-8, 1.0000018e+2
-0.300, 6.5005182e-8, -4.5579746e-8, 1.0033351e+2
-0.301, 6.5204489e-8, -4.5748536e-8, 1.0066685e+2
-0.302, 6.5304981e-8, -4.5981391e-8, 1.0100018e+2
-0.303, 6.5568670e-8, -4.6100890e-8, 1.0133352e+2
-0.304, 6.5683700e-8, -4.6290211e-8, 1.0166685e+2
-0.305, 6.5744089e-8, -4.6474096e-8, 1.0200019e+2
-0.306, 6.5973111e-8, -4.6578023e-8, 1.0233353e+2
-0.307, 6.6139016e-8, -4.6679393e-8, 1.0266686e+2
-0.308, 6.6196534e-8, -4.6929262e-8, 1.0300020e+2
-0.309, 6.6323949e-8, -4.7021842e-8, 1.0333353e+2
-0.310, 6.6482350e-8, -4.7087344e-8, 1.0366687e+2
-0.311, 6.6613751e-8, -4.7288406e-8, 1.0400021e+2
-0.312, 6.6687164e-8, -4.7420851e-8, 1.0433354e+2
-0.313, 6.6710577e-8, -4.7508799e-8, 1.0466688e+2
-0.314, 6.6846049e-8, -4.7575103e-8, 1.0500021e+2
-0.315, 6.6995433e-8, -4.7658258e-8, 1.0533355e+2
-0.316, 6.7106626e-8, -4.7867786e-8, 1.0566689e+2
-0.317, 6.7165253e-8, -4.7963564e-8, 1.0600022e+2
-0.318, 6.7195366e-8, -4.8009177e-8, 1.0633356e+2
-0.319, 6.7291147e-8, -4.8075158e-8, 1.0666689e+2
-0.320, 6.7389081e-8, -4.8153122e-8, 1.0700023e+2
-0.321, 6.7479426e-8, -4.8296666e-8, 1.0733356e+2
-0.322, 6.7608035e-8, -4.8424319e-8, 1.0766690e+2
-0.323, 6.7633913e-8, -4.8457149e-8, 1.0800024e+2
-0.324, 6.7646702e-8, -4.8515783e-8, 1.0833357e+2
-0.325, 6.7708925e-8, -4.8552685e-8, 1.0866691e+2
-0.326, 6.7727385e-8, -4.8604612e-8, 1.0900024e+2
-0.327, 6.7832502e-8, -4.8759659e-8, 1.0933358e+2
-0.328, 6.7933392e-8, -4.8832749e-8, 1.0966692e+2
-0.329, 6.8013193e-8, -4.8919262e-8, 1.1000025e+2
-0.330, 6.8090841e-8, -4.8962079e-8, 1.1033359e+2
-0.331, 6.8122397e-8, -4.8989317e-8, 1.1066692e+2
-0.332, 6.8159537e-8, -4.9032771e-8, 1.1100026e+2
-0.333, 6.8220885e-8, -4.9056815e-8, 1.1133360e+2
-0.334, 6.8270808e-8, -4.9120164e-8, 1.1166693e+2
-0.335, 6.8408127e-8, -4.9231836e-8, 1.1200027e+2
-0.336, 6.8503667e-8, -4.9280086e-8, 1.1233360e+2
-0.337, 6.8565733e-8, -4.9376741e-8, 1.1266694e+2
-0.338, 6.8623493e-8, -4.9408854e-8, 1.1300027e+2
-0.339, 6.8635387e-8, -4.9429865e-8, 1.1333361e+2
-0.340, 6.8686191e-8, -4.9474117e-8, 1.1366695e+2
-0.341, 6.8765836e-8, -4.9476995e-8, 1.1400028e+2
-0.342, 6.8815602e-8, -4.9509342e-8, 1.1433362e+2
-0.343, 6.8963779e-8, -4.9531472e-8, 1.1466695e+2
-0.344, 6.9061798e-8, -4.9539540e-8, 1.1500029e+2
-0.345, 6.9124667e-8, -4.9596895e-8, 1.1533363e+2
-0.346, 6.9169474e-8, -4.9598970e-8, 1.1566696e+2
-0.347, 6.9207900e-8, -4.9653451e-8, 1.1600030e+2
-0.348, 6.9331477e-8, -4.9700500e-8, 1.1633363e+2
-0.349, 6.9426775e-8, -4.9701061e-8, 1.1666697e+2
-0.350, 6.9535091e-8, -4.9777984e-8, 1.1700031e+2
-0.351, 6.9591572e-8, -4.9783658e-8, 1.1733364e+2
-0.352, 6.9601157e-8, -4.9791964e-8, 1.1766698e+2
-0.353, 6.9636542e-8, -4.9846683e-8, 1.1800031e+2
-0.354, 6.9730959e-8, -4.9836700e-8, 1.1833365e+2
-0.355, 6.9746619e-8, -4.9864177e-8, 1.1866698e+2
-0.356, 6.9914762e-8, -4.9872565e-8, 1.1900032e+2
-0.357, 6.9977638e-8, -4.9869129e-8, 1.1933366e+2
-0.358, 7.0029799e-8, -4.9897327e-8, 1.1966699e+2
-0.359, 7.0071970e-8, -4.9870728e-8, 1.2000033e+2
-0.360, 7.0103525e-8, -4.9890538e-8, 1.2033366e+2
-0.361, 7.0125253e-8, -4.9889739e-8, 1.2066700e+2
-0.362, 7.0151216e-8, -4.9871446e-8, 1.2100034e+2
-0.363, 7.0205132e-8, -4.9891415e-8, 1.2133367e+2
-0.364, 7.0272236e-8, -4.9858027e-8, 1.2166701e+2
-0.365, 7.0291726e-8, -4.9874643e-8, 1.2200034e+2
-0.366, 7.0391103e-8, -4.9857949e-8, 1.2233368e+2
-0.367, 7.0434552e-8, -4.9828472e-8, 1.2266702e+2
-0.368, 7.0492469e-8, -4.9856908e-8, 1.2300035e+2
-0.369, 7.0516670e-8, -4.9804985e-8, 1.2333369e+2
-0.370, 7.0546626e-8, -4.9794920e-8, 1.2366702e+2
-0.371, 7.0565079e-8, -4.9790927e-8, 1.2400036e+2
-0.372, 7.0568355e-8, -4.9724544e-8, 1.2433369e+2
-0.373, 7.0585848e-8, -4.9751225e-8, 1.2466703e+2
-0.374, 7.0595036e-8, -4.9698183e-8, 1.2500037e+2
-0.375, 7.0598709e-8, -4.9672622e-8, 1.2533370e+2
-0.376, 7.0626108e-8, -4.9673503e-8, 1.2566704e+2
-0.377, 7.0625312e-8, -4.9606239e-8, 1.2600037e+2
-0.378, 7.0642244e-8, -4.9612311e-8, 1.2633371e+2
-0.379, 7.0673714e-8, -4.9585154e-8, 1.2666705e+2
-0.380, 7.0671639e-8, -4.9556153e-8, 1.2700038e+2
-0.381, 7.0681466e-8, -4.9571732e-8, 1.2733372e+2
-0.382, 7.0684905e-8, -4.9539381e-8, 1.2766705e+2
-0.383, 7.0698881e-8, -4.9530673e-8, 1.2800038e+2
-0.384, 7.0744811e-8, -4.9527877e-8, 1.2833371e+2
-0.385, 7.0755121e-8, -4.9500638e-8, 1.2866704e+2
-0.386, 7.0795373e-8, -4.9506070e-8, 1.2900037e+2
-0.387, 7.0815751e-8, -4.9491849e-8, 1.2933369e+2
-0.388, 7.0798414e-8, -4.9478349e-8, 1.2966702e+2
-0.389, 7.0869191e-8, -4.9483063e-8, 1.3000035e+2
-0.390, 7.0839469e-8, -4.9453668e-8, 1.3033368e+2
-0.391, 7.0860246e-8, -4.9464372e-8, 1.3066701e+2
-0.392, 7.0920713e-8, -4.9446559e-8, 1.3100034e+2
-0.393, 7.0869987e-8, -4.9433940e-8, 1.3133366e+2
-0.394, 7.0911845e-8, -4.9441127e-8, 1.3166699e+2
-0.395, 7.0943635e-8, -4.9416684e-8, 1.3200032e+2
-0.396, 7.0925104e-8, -4.9418919e-8, 1.3233365e+2
-0.397, 7.0972632e-8, -4.9411170e-8, 1.3266698e+2
-0.398, 7.0951224e-8, -4.9394554e-8, 1.3300031e+2
-0.399, 7.0986374e-8, -4.9406939e-8, 1.3333363e+2
