Jan. 28, 2006   00:54:45
Cyclic Voltammetry
File: z:\users\scottsaunders\git\labwork\ida\01_17_19_psoralen_nonequil_2\data\control\2\75um_control_soak_2_gc_1.txt
Data Source:  Experiment
Instrument Model:  CHI760E
Header: 
Note: 

Init E (V) = 0
High E (V) = 0
Low E (V) = -0.4
Init P/N = N
Scan Rate (V/s) = 0.003
Segment = 1
Sample Interval (V) = 0.001
Quiet Time (sec) = 2
Sensitivity (A/V) = 1e-6
2nd E (V) = 0
Sens 2 (A/V) = 1e-6

Potential/V, i1/A, i2/A, Time/s

0.000, -1.5148846e-7, -1.2980932e-7, 3.3333334e-1
-0.001, -1.4241795e-7, -1.2194741e-7, 6.6666669e-1
-0.002, -1.3518951e-7, -1.1473493e-7, 1.0000000e+0
-0.003, -1.2830533e-7, -1.0883490e-7, 1.3333334e+0
-0.004, -1.2271045e-7, -1.0399250e-7, 1.6666667e+0
-0.005, -1.1728412e-7, -9.9142113e-8, 2.0000000e+0
-0.006, -1.1279879e-7, -9.5217551e-8, 2.3333333e+0
-0.007, -1.0909230e-7, -9.2103782e-8, 2.6666665e+0
-0.008, -1.0579959e-7, -8.8731191e-8, 2.9999998e+0
-0.009, -1.0193494e-7, -8.5348219e-8, 3.3333330e+0
-0.010, -9.8567142e-8, -8.3144300e-8, 3.6666663e+0
-0.011, -9.6031719e-8, -7.9901916e-8, 3.9999995e+0
-0.012, -9.2909154e-8, -7.8416129e-8, 4.3333330e+0
-0.013, -9.1523212e-8, -7.5553984e-8, 4.6666665e+0
-0.014, -8.8292026e-8, -7.3999495e-8, 5.0000000e+0
-0.015, -8.6721556e-8, -7.2700630e-8, 5.3333335e+0
-0.016, -8.5089589e-8, -7.0024605e-8, 5.6666670e+0
-0.017, -8.2623650e-8, -6.9150701e-8, 6.0000005e+0
-0.018, -8.1432617e-8, -6.7978846e-8, 6.3333340e+0
-0.019, -7.9002632e-8, -6.5622352e-8, 6.6666675e+0
-0.020, -7.7527226e-8, -6.4556730e-8, 7.0000010e+0
-0.021, -7.6475992e-8, -6.3655676e-8, 7.3333344e+0
-0.022, -7.4859194e-8, -6.2328049e-8, 7.6666679e+0
-0.023, -7.2916485e-8, -6.0540302e-8, 8.0000010e+0
-0.024, -7.2494707e-8, -5.9631255e-8, 8.3333340e+0
-0.025, -7.1396343e-8, -5.9092855e-8, 8.6666670e+0
-0.026, -6.9673305e-8, -5.8250908e-8, 9.0000000e+0
-0.027, -6.8254614e-8, -5.6925678e-8, 9.3333330e+0
-0.028, -6.7542068e-8, -5.5574887e-8, 9.6666660e+0
-0.029, -6.6587489e-8, -5.4839180e-8, 9.9999990e+0
-0.030, -6.6279149e-8, -5.4426994e-8, 1.0333332e+1
-0.031, -6.4498593e-8, -5.3878210e-8, 1.0666665e+1
-0.032, -6.3322744e-8, -5.3186440e-8, 1.0999998e+1
-0.033, -6.2857836e-8, -5.2230256e-8, 1.1333331e+1
-0.034, -6.2348192e-8, -5.1174229e-8, 1.1666664e+1
-0.035, -6.1626068e-8, -5.0322697e-8, 1.1999997e+1
-0.036, -6.0489356e-8, -4.9856190e-8, 1.2333330e+1
-0.037, -5.9157735e-8, -4.9567017e-8, 1.2666663e+1
-0.038, -5.8416440e-8, -4.9334563e-8, 1.2999996e+1
-0.039, -5.7969903e-8, -4.8851280e-8, 1.3333329e+1
-0.040, -5.7759017e-8, -4.8115577e-8, 1.3666662e+1
-0.041, -5.6837987e-8, -4.7295199e-8, 1.3999995e+1
-0.042, -5.6418610e-8, -4.6546710e-8, 1.4333328e+1
-0.043, -5.5601426e-8, -4.5861327e-8, 1.4666661e+1
-0.044, -5.4517436e-8, -4.5425175e-8, 1.4999994e+1
-0.045, -5.3693064e-8, -4.5002604e-8, 1.5333327e+1
-0.046, -5.3325607e-8, -4.4775742e-8, 1.5666660e+1
-0.047, -5.3117915e-8, -4.4473790e-8, 1.5999993e+1
-0.048, -5.2919013e-8, -4.4202192e-8, 1.6333326e+1
-0.049, -5.2580315e-8, -4.3859504e-8, 1.6666660e+1
-0.050, -5.2170527e-8, -4.3504034e-8, 1.6999994e+1
-0.051, -5.1546653e-8, -4.3031935e-8, 1.7333328e+1
-0.052, -5.0871655e-8, -4.2507114e-8, 1.7666662e+1
-0.053, -4.9546429e-8, -4.1685137e-8, 1.7999996e+1
-0.054, -4.8574272e-8, -4.1300908e-8, 1.8333330e+1
-0.055, -4.8755602e-8, -4.0776090e-8, 1.8666664e+1
-0.056, -4.8460041e-8, -4.0426208e-8, 1.8999998e+1
-0.057, -4.8221196e-8, -4.0116269e-8, 1.9333332e+1
-0.058, -4.7974364e-8, -3.9966093e-8, 1.9666666e+1
-0.059, -4.7693980e-8, -3.9803933e-8, 2.0000000e+1
-0.060, -4.7409603e-8, -3.9685709e-8, 2.0333334e+1
-0.061, -4.7151588e-8, -3.9455653e-8, 2.0666668e+1
-0.062, -4.6909548e-8, -3.9277516e-8, 2.1000002e+1
-0.063, -4.6643542e-8, -3.9017102e-8, 2.1333336e+1
-0.064, -4.6215376e-8, -3.8798227e-8, 2.1666670e+1
-0.065, -4.5594703e-8, -3.8498673e-8, 2.2000004e+1
-0.066, -4.4914117e-8, -3.8187935e-8, 2.2333338e+1
-0.067, -4.4194387e-8, -3.7821280e-8, 2.2666672e+1
-0.068, -4.3993083e-8, -3.7475395e-8, 2.3000006e+1
-0.069, -4.3629623e-8, -3.6964952e-8, 2.3333340e+1
-0.070, -4.3454683e-8, -3.6621465e-8, 2.3666674e+1
-0.071, -4.3285336e-8, -3.6182115e-8, 2.4000008e+1
-0.072, -4.3151935e-8, -3.5914518e-8, 2.4333342e+1
-0.073, -4.2957822e-8, -3.5575020e-8, 2.4666676e+1
-0.074, -4.2709392e-8, -3.5429636e-8, 2.5000010e+1
-0.075, -4.2536847e-8, -3.5212359e-8, 2.5333344e+1
-0.076, -4.2242885e-8, -3.5139667e-8, 2.5666677e+1
-0.077, -4.1954515e-8, -3.4984698e-8, 2.6000011e+1
-0.078, -4.1574282e-8, -3.4908812e-8, 2.6333345e+1
-0.079, -4.1138126e-8, -3.4781003e-8, 2.6666679e+1
-0.080, -4.0740318e-8, -3.4699521e-8, 2.7000013e+1
-0.081, -4.0251447e-8, -3.4539759e-8, 2.7333347e+1
-0.082, -3.9832866e-8, -3.4433519e-8, 2.7666681e+1
-0.083, -3.9395918e-8, -3.4266566e-8, 2.8000015e+1
-0.084, -3.9228166e-8, -3.4171507e-8, 2.8333349e+1
-0.085, -3.8982932e-8, -3.4000561e-8, 2.8666683e+1
-0.086, -3.8785625e-8, -3.3890327e-8, 2.9000017e+1
-0.087, -3.8601897e-8, -3.3735358e-8, 2.9333351e+1
-0.088, -3.8481275e-8, -3.3586776e-8, 2.9666685e+1
-0.089, -3.8315921e-8, -3.3416629e-8, 3.0000019e+1
-0.090, -3.8190510e-8, -3.3229707e-8, 3.0333353e+1
-0.091, -3.8026755e-8, -3.2966899e-8, 3.0666687e+1
-0.092, -3.7842231e-8, -3.2733645e-8, 3.1000021e+1
-0.093, -3.7672081e-8, -3.2508382e-8, 3.1333355e+1
-0.094, -3.7503533e-8, -3.2209623e-8, 3.1666689e+1
-0.095, -3.7334182e-8, -3.1881314e-8, 3.2000023e+1
-0.096, -3.7225544e-8, -3.1666431e-8, 3.2333355e+1
-0.097, -3.6989892e-8, -3.1398031e-8, 3.2666687e+1
-0.098, -3.6773418e-8, -3.1171965e-8, 3.3000019e+1
-0.099, -3.6556937e-8, -3.0967470e-8, 3.3333351e+1
-0.100, -3.6291734e-8, -3.0792531e-8, 3.3666683e+1
-0.101, -3.6008952e-8, -3.0630371e-8, 3.4000015e+1
-0.102, -3.5605552e-8, -3.0525726e-8, 3.4333347e+1
-0.103, -3.5226915e-8, -3.0388332e-8, 3.4666679e+1
-0.104, -3.4892214e-8, -3.0332416e-8, 3.5000011e+1
-0.105, -3.4599051e-8, -3.0240553e-8, 3.5333344e+1
-0.106, -3.4337837e-8, -3.0216587e-8, 3.5666676e+1
-0.107, -3.4102186e-8, -3.0142299e-8, 3.6000008e+1
-0.108, -3.3947217e-8, -3.0143894e-8, 3.6333340e+1
-0.109, -3.3836184e-8, -3.0079192e-8, 3.6666672e+1
-0.110, -3.3747515e-8, -3.0082386e-8, 3.7000004e+1
-0.111, -3.3686806e-8, -3.0029664e-8, 3.7333336e+1
-0.112, -3.3629291e-8, -3.0029664e-8, 3.7666668e+1
-0.113, -3.3578168e-8, -2.9977741e-8, 3.8000000e+1
-0.114, -3.3534231e-8, -2.9985731e-8, 3.8333332e+1
-0.115, -3.3474322e-8, -2.9916233e-8, 3.8666664e+1
-0.116, -3.3398436e-8, -2.9908247e-8, 3.8999996e+1
-0.117, -3.3338523e-8, -2.9831561e-8, 3.9333328e+1
-0.118, -3.3242664e-8, -2.9824371e-8, 3.9666660e+1
-0.119, -3.3113260e-8, -2.9725317e-8, 3.9999992e+1
-0.120, -3.2995032e-8, -2.9710939e-8, 4.0333324e+1
-0.121, -3.2892785e-8, -2.9625467e-8, 4.0666656e+1
-0.122, -3.2632371e-8, -2.9564756e-8, 4.0999989e+1
-0.123, -3.2519740e-8, -2.9476887e-8, 4.1333321e+1
-0.124, -3.2326426e-8, -2.9373840e-8, 4.1666653e+1
-0.125, -3.2142701e-8, -2.9277183e-8, 4.1999985e+1
-0.126, -3.1882291e-8, -2.9181326e-8, 4.2333317e+1
-0.127, -3.1629064e-8, -2.9103042e-8, 4.2666649e+1
-0.128, -3.1406199e-8, -2.9007186e-8, 4.2999981e+1
-0.129, -3.1086671e-8, -2.8872986e-8, 4.3333313e+1
-0.130, -3.0801495e-8, -2.8781121e-8, 4.3666645e+1
-0.131, -3.0584218e-8, -2.8627749e-8, 4.3999977e+1
-0.132, -3.0307032e-8, -2.8530295e-8, 4.4333309e+1
-0.133, -3.0075373e-8, -2.8400088e-8, 4.4666641e+1
-0.134, -2.9802180e-8, -2.8312218e-8, 4.4999973e+1
-0.135, -2.9587300e-8, -2.8176421e-8, 4.5333305e+1
-0.136, -2.9452302e-8, -2.8062191e-8, 4.5666637e+1
-0.137, -2.9272570e-8, -2.7942368e-8, 4.5999969e+1
-0.138, -2.9112007e-8, -2.7880860e-8, 4.6333302e+1
-0.139, -2.8965825e-8, -2.7761038e-8, 4.6666634e+1
-0.140, -2.8835618e-8, -2.7681956e-8, 4.6999966e+1
-0.141, -2.8735766e-8, -2.7582104e-8, 4.7333298e+1
-0.142, -2.8573607e-8, -2.7505418e-8, 4.7666630e+1
-0.143, -2.8464170e-8, -2.7419945e-8, 4.7999962e+1
-0.144, -2.8321182e-8, -2.7362431e-8, 4.8333294e+1
-0.145, -2.8157427e-8, -2.7259384e-8, 4.8666626e+1
-0.146, -2.8012842e-8, -2.7169916e-8, 4.8999958e+1
-0.147, -2.7865861e-8, -2.7134769e-8, 4.9333290e+1
-0.148, -2.7718080e-8, -2.7063676e-8, 4.9666622e+1
-0.149, -2.7628612e-8, -2.7014947e-8, 4.9999954e+1
-0.150, -2.7492813e-8, -2.6964621e-8, 5.0333286e+1
-0.151, -2.7377785e-8, -2.6935863e-8, 5.0666618e+1
-0.152, -2.7236396e-8, -2.6903912e-8, 5.0999950e+1
-0.153, -2.7015126e-8, -2.6905511e-8, 5.1333282e+1
-0.154, -2.6766694e-8, -2.6939860e-8, 5.1666615e+1
-0.155, -2.6407228e-8, -2.6916695e-8, 5.1999947e+1
-0.156, -2.5897586e-8, -2.6883942e-8, 5.2333279e+1
-0.157, -2.5385548e-8, -2.6902315e-8, 5.2666611e+1
-0.158, -2.4938213e-8, -2.6927877e-8, 5.2999943e+1
-0.159, -2.4459723e-8, -2.6955835e-8, 5.3333275e+1
-0.160, -2.4129017e-8, -2.6991781e-8, 5.3666607e+1
-0.161, -2.3847834e-8, -2.7042905e-8, 5.3999939e+1
-0.162, -2.3626562e-8, -2.7087641e-8, 5.4333271e+1
-0.163, -2.3381327e-8, -2.7152343e-8, 5.4666603e+1
-0.164, -2.3153666e-8, -2.7252993e-8, 5.4999935e+1
-0.165, -2.2905235e-8, -2.7337668e-8, 5.5333267e+1
-0.166, -2.2667189e-8, -2.7435123e-8, 5.5666599e+1
-0.167, -2.2401982e-8, -2.7556542e-8, 5.5999931e+1
-0.168, -2.2052104e-8, -2.7681157e-8, 5.6333263e+1
-0.169, -2.1512905e-8, -2.7804173e-8, 5.6666595e+1
-0.170, -2.0761222e-8, -2.8015060e-8, 5.6999928e+1
-0.171, -1.9910486e-8, -2.8197190e-8, 5.7333260e+1
-0.172, -1.9442384e-8, -2.8459201e-8, 5.7666592e+1
-0.173, -1.9041380e-8, -2.8642926e-8, 5.7999924e+1
-0.174, -1.8787357e-8, -2.8885767e-8, 5.8333256e+1
-0.175, -1.8471825e-8, -2.9087067e-8, 5.8666588e+1
-0.176, -1.8081208e-8, -2.9291563e-8, 5.8999920e+1
-0.177, -1.7530025e-8, -2.9486474e-8, 5.9333252e+1
-0.178, -1.6811095e-8, -2.9645438e-8, 5.9666584e+1
-0.179, -1.5778230e-8, -2.9781235e-8, 5.9999916e+1
-0.180, -1.4699035e-8, -2.9881885e-8, 6.0333248e+1
-0.181, -1.4088743e-8, -2.9968156e-8, 6.0666580e+1
-0.182, -1.3632620e-8, -3.0035256e-8, 6.0999912e+1
-0.183, -1.3095020e-8, -3.0103156e-8, 6.1333244e+1
-0.184, -1.2478337e-8, -3.0206202e-8, 6.1666576e+1
-0.185, -1.1267337e-8, -3.0405904e-8, 6.1999908e+1
-0.186, -9.8031148e-9, -3.0753387e-8, 6.2333241e+1
-0.187, -9.1153360e-9, -3.1309362e-8, 6.2666573e+1
-0.188, -8.6336529e-9, -3.2061045e-8, 6.2999905e+1
-0.189, -7.7805211e-9, -3.2865451e-8, 6.3333237e+1
-0.190, -6.1892873e-9, -3.3506897e-8, 6.3666569e+1
-0.191, -4.5828754e-9, -3.3925474e-8, 6.3999901e+1
-0.192, -3.8711336e-9, -3.4341657e-8, 6.4333237e+1
-0.193, -2.8646299e-9, -3.4725883e-8, 6.4666573e+1
-0.194, -9.5227304e-10, -3.5052597e-8, 6.4999908e+1
-0.195, 6.7890182e-10, -3.5570228e-8, 6.5333244e+1
-0.196, 1.7549022e-9, -3.6615074e-8, 6.5666580e+1
-0.197, 3.9244763e-9, -3.7883588e-8, 6.5999916e+1
-0.198, 5.9374834e-9, -3.8850150e-8, 6.6333252e+1
-0.199, 7.2219741e-9, -3.9537131e-8, 6.6666588e+1
-0.200, 1.0039385e-8, -4.0033193e-8, 6.6999924e+1
-0.201, 1.1452485e-8, -4.1156323e-8, 6.7333260e+1
-0.202, 1.4305044e-8, -4.2964032e-8, 6.7666595e+1
-0.203, 1.6192637e-8, -4.4107935e-8, 6.7999931e+1
-0.204, 1.8942149e-8, -4.4941096e-8, 6.8333267e+1
-0.205, 2.1082966e-8, -4.6266326e-8, 6.8666603e+1
-0.206, 2.4806232e-8, -4.8451078e-8, 6.8999939e+1
-0.207, 2.7151543e-8, -4.9583793e-8, 6.9333275e+1
-0.208, 3.0488184e-8, -5.0856304e-8, 6.9666611e+1
-0.209, 3.4416743e-8, -5.3407710e-8, 6.9999947e+1
-0.210, 3.7153473e-8, -5.4693796e-8, 7.0333282e+1
-0.211, 4.0955822e-8, -5.7117390e-8, 7.0666618e+1
-0.212, 4.5449937e-8, -5.9236640e-8, 7.0999954e+1
-0.213, 4.9807461e-8, -6.1415008e-8, 7.1333290e+1
-0.214, 5.4481312e-8, -6.4091026e-8, 7.1666626e+1
-0.215, 5.9139190e-8, -6.6748669e-8, 7.1999962e+1
-0.216, 6.4317092e-8, -6.9272922e-8, 7.2333298e+1
-0.217, 6.9330440e-8, -7.2683051e-8, 7.2666634e+1
-0.218, 7.4639345e-8, -7.4935706e-8, 7.2999969e+1
-0.219, 8.0224638e-8, -7.8751633e-8, 7.3333305e+1
-0.220, 8.6623125e-8, -8.2533212e-8, 7.3666641e+1
-0.221, 9.3087117e-8, -8.5956913e-8, 7.3999977e+1
-0.222, 9.9630192e-8, -8.9506038e-8, 7.4333313e+1
-0.223, 1.0731477e-7, -9.3869147e-8, 7.4666649e+1
-0.224, 1.1410387e-7, -9.8493480e-8, 7.4999985e+1
-0.225, 1.2256010e-7, -1.0327836e-7, 7.5333321e+1
-0.226, 1.3045717e-7, -1.0833245e-7, 7.5666656e+1
-0.227, 1.3884468e-7, -1.1312692e-7, 7.5999992e+1
-0.228, 1.4799109e-7, -1.1844860e-7, 7.6333328e+1
-0.229, 1.5739789e-7, -1.2447964e-7, 7.6666664e+1
-0.230, 1.6701800e-7, -1.3082062e-7, 7.7000000e+1
-0.231, 1.7694084e-7, -1.3712405e-7, 7.7333336e+1
-0.232, 1.8758902e-7, -1.4339074e-7, 7.7666672e+1
-0.233, 1.9827392e-7, -1.5077416e-7, 7.8000008e+1
-0.234, 2.0948606e-7, -1.5755607e-7, 7.8333344e+1
-0.235, 2.2153455e-7, -1.6526380e-7, 7.8666679e+1
-0.236, 2.3326990e-7, -1.7281657e-7, 7.9000015e+1
-0.237, 2.4536232e-7, -1.8124965e-7, 7.9333351e+1
-0.238, 2.5853473e-7, -1.8973861e-7, 7.9666687e+1
-0.239, 2.7135567e-7, -1.9820204e-7, 8.0000023e+1
-0.240, 2.8574070e-7, -2.0735483e-7, 8.0333359e+1
-0.241, 3.0064174e-7, -2.1681755e-7, 8.0666695e+1
-0.242, 3.1398031e-7, -2.2658783e-7, 8.1000031e+1
-0.243, 3.2819918e-7, -2.3634054e-7, 8.1333366e+1
-0.244, 3.4320087e-7, -2.4663245e-7, 8.1666702e+1
-0.245, 3.5752916e-7, -2.5706493e-7, 8.2000038e+1
-0.246, 3.7271457e-7, -2.6775223e-7, 8.2333374e+1
-0.247, 3.8797270e-7, -2.7901547e-7, 8.2666710e+1
-0.248, 4.0359510e-7, -2.9139787e-7, 8.3000046e+1
-0.249, 4.1894666e-7, -3.0287683e-7, 8.3333382e+1
-0.250, 4.3441165e-7, -3.1411531e-7, 8.3666718e+1
-0.251, 4.5039431e-7, -3.2577799e-7, 8.4000053e+1
-0.252, 4.6571790e-7, -3.3756763e-7, 8.4333389e+1
-0.253, 4.8140743e-7, -3.4949312e-7, 8.4666725e+1
-0.254, 4.9754181e-7, -3.6163107e-7, 8.5000061e+1
-0.255, 5.1282149e-7, -3.7379141e-7, 8.5333397e+1
-0.256, 5.2821781e-7, -3.8576718e-7, 8.5666733e+1
-0.257, 5.4375710e-7, -3.9806091e-7, 8.6000069e+1
-0.258, 5.5854309e-7, -4.0996559e-7, 8.6333405e+1
-0.259, 5.7357516e-7, -4.2212193e-7, 8.6666740e+1
-0.260, 5.8824531e-7, -4.3399308e-7, 8.7000076e+1
-0.261, 6.0248976e-7, -4.4607830e-7, 8.7333412e+1
-0.262, 6.1686285e-7, -4.5794388e-7, 8.7666748e+1
-0.263, 6.3044183e-7, -4.6952906e-7, 8.8000084e+1
-0.264, 6.4407914e-7, -4.8108785e-7, 8.8333420e+1
-0.265, 6.5713095e-7, -4.9234075e-7, 8.8666756e+1
-0.266, 6.6988878e-7, -5.0354970e-7, 8.9000092e+1
-0.267, 6.8279041e-7, -5.1456209e-7, 8.9333427e+1
-0.268, 6.9481172e-7, -5.2541236e-7, 8.9666763e+1
-0.269, 7.0629943e-7, -5.3604379e-7, 9.0000099e+1
-0.270, 7.1789742e-7, -5.4630289e-7, 9.0333435e+1
-0.271, 7.2889304e-7, -5.5649656e-7, 9.0666771e+1
-0.272, 7.3941419e-7, -5.6626362e-7, 9.1000107e+1
-0.273, 7.4985627e-7, -5.7600192e-7, 9.1333443e+1
-0.274, 7.5967847e-7, -5.8511239e-7, 9.1666779e+1
-0.275, 7.6904934e-7, -5.9417653e-7, 9.2000114e+1
-0.276, 7.7803918e-7, -6.0263278e-7, 9.2333450e+1
-0.277, 7.8645706e-7, -6.1128151e-7, 9.2666786e+1
-0.278, 7.9462814e-7, -6.1935032e-7, 9.3000122e+1
-0.279, 8.0254034e-7, -6.2718266e-7, 9.3333458e+1
-0.280, 8.0991737e-7, -6.3533929e-7, 9.3666794e+1
-0.281, 8.1809242e-7, -6.4218278e-7, 9.4000130e+1
-0.282, 8.2382871e-7, -6.4979463e-7, 9.4333466e+1
-0.283, 8.3092772e-7, -6.5654143e-7, 9.4666801e+1
-0.284, 8.3703151e-7, -6.6305495e-7, 9.5000137e+1
-0.285, 8.4350586e-7, -6.6948456e-7, 9.5333473e+1
-0.286, 8.4839297e-7, -6.7621136e-7, 9.5666809e+1
-0.287, 8.5393276e-7, -6.8136768e-7, 9.6000145e+1
-0.288, 8.5845642e-7, -6.8734442e-7, 9.6333481e+1
-0.289, 8.6386683e-7, -6.9276916e-7, 9.6666817e+1
-0.290, 8.6798627e-7, -6.9831532e-7, 9.7000153e+1
-0.291, 8.7290533e-7, -7.0297716e-7, 9.7333488e+1
-0.292, 8.7685305e-7, -7.0817583e-7, 9.7666824e+1
-0.293, 8.8086551e-7, -7.1261081e-7, 9.8000160e+1
-0.294, 8.8359906e-7, -7.1707939e-7, 9.8333496e+1
-0.295, 8.8796531e-7, -7.2095685e-7, 9.8666832e+1
-0.296, 8.9145459e-7, -7.2572738e-7, 9.9000168e+1
-0.297, 8.9405233e-7, -7.2971022e-7, 9.9333504e+1
-0.298, 8.9694237e-7, -7.3432415e-7, 9.9666840e+1
-0.299, 9.0025270e-7, -7.3653047e-7, 1.0000018e+2
-0.300, 9.0234317e-7, -7.4050615e-7, 1.0033351e+2
-0.301, 9.0566624e-7, -7.4411042e-7, 1.0066685e+2
-0.302, 9.0758817e-7, -7.4735038e-7, 1.0100018e+2
-0.303, 9.1106062e-7, -7.5004323e-7, 1.0133352e+2
-0.304, 9.1261114e-7, -7.5417387e-7, 1.0166685e+2
-0.305, 9.1601083e-7, -7.5583540e-7, 1.0200019e+2
-0.306, 9.1719789e-7, -7.5961219e-7, 1.0233353e+2
-0.307, 9.2025016e-7, -7.6157727e-7, 1.0266686e+2
-0.308, 9.2142835e-7, -7.6476931e-7, 1.0300020e+2
-0.309, 9.2311387e-7, -7.6689577e-7, 1.0333353e+2
-0.310, 9.2513170e-7, -7.6968439e-7, 1.0366687e+2
-0.311, 9.2703289e-7, -7.7143540e-7, 1.0400021e+2
-0.312, 9.2751930e-7, -7.7450682e-7, 1.0433354e+2
-0.313, 9.3031599e-7, -7.7579136e-7, 1.0466688e+2
-0.314, 9.3108684e-7, -7.7887631e-7, 1.0500021e+2
-0.315, 9.3235855e-7, -7.7968474e-7, 1.0533355e+2
-0.316, 9.3309103e-7, -7.8282966e-7, 1.0566689e+2
-0.317, 9.3544833e-7, -7.8399518e-7, 1.0600022e+2
-0.318, 9.3603148e-7, -7.8596980e-7, 1.0633356e+2
-0.319, 9.3718336e-7, -7.8802913e-7, 1.0666689e+2
-0.320, 9.3745177e-7, -7.8954844e-7, 1.0700023e+2
-0.321, 9.3977155e-7, -7.9069241e-7, 1.0733356e+2
-0.322, 9.4061426e-7, -7.9342510e-7, 1.0766690e+2
-0.323, 9.4157122e-7, -7.9395392e-7, 1.0800024e+2
-0.324, 9.4172384e-7, -7.9586385e-7, 1.0833357e+2
-0.325, 9.4305784e-7, -7.9760213e-7, 1.0866691e+2
-0.326, 9.4410831e-7, -7.9907915e-7, 1.0900024e+2
-0.327, 9.4578496e-7, -7.9949291e-7, 1.0933358e+2
-0.328, 9.4592400e-7, -8.0201318e-7, 1.0966692e+2
-0.329, 9.4698481e-7, -8.0311071e-7, 1.1000025e+2
-0.330, 9.4699283e-7, -8.0424184e-7, 1.1033359e+2
-0.331, 9.4844899e-7, -8.0486728e-7, 1.1066692e+2
-0.332, 9.4945557e-7, -8.0729404e-7, 1.1100026e+2
-0.333, 9.5038371e-7, -8.0843637e-7, 1.1133360e+2
-0.334, 9.5076717e-7, -8.0918409e-7, 1.1166693e+2
-0.335, 9.5121135e-7, -8.1027923e-7, 1.1200027e+2
-0.336, 9.5165706e-7, -8.1197271e-7, 1.1233360e+2
-0.337, 9.5220423e-7, -8.1327795e-7, 1.1266694e+2
-0.338, 9.5329142e-7, -8.1392500e-7, 1.1300027e+2
-0.339, 9.5468454e-7, -8.1464475e-7, 1.1333361e+2
-0.340, 9.5540747e-7, -8.1617208e-7, 1.1366695e+2
-0.341, 9.5578378e-7, -8.1754126e-7, 1.1400028e+2
-0.342, 9.5623977e-7, -8.1840795e-7, 1.1433362e+2
-0.343, 9.5669839e-7, -8.1897269e-7, 1.1466695e+2
-0.344, 9.5734140e-7, -8.1985138e-7, 1.1500029e+2
-0.345, 9.5849407e-7, -8.2130845e-7, 1.1533363e+2
-0.346, 9.5964992e-7, -8.2253223e-7, 1.1566696e+2
-0.347, 9.6029225e-7, -8.2332548e-7, 1.1600030e+2
-0.348, 9.6056704e-7, -8.2380870e-7, 1.1633363e+2
-0.349, 9.6092242e-7, -8.2449890e-7, 1.1666697e+2
-0.350, 9.6136580e-7, -8.2578100e-7, 1.1700031e+2
-0.351, 9.6180440e-7, -8.2705907e-7, 1.1733364e+2
-0.352, 9.6252086e-7, -8.2789870e-7, 1.1766698e+2
-0.353, 9.6367194e-7, -8.2847299e-7, 1.1800031e+2
-0.354, 9.6463532e-7, -8.2898026e-7, 1.1833365e+2
-0.355, 9.6520648e-7, -8.2988930e-7, 1.1866698e+2
-0.356, 9.6556755e-7, -8.3109632e-7, 1.1900032e+2
-0.357, 9.6591748e-7, -8.3223222e-7, 1.1933366e+2
-0.358, 9.6629526e-7, -8.3298232e-7, 1.1966699e+2
-0.359, 9.6672431e-7, -8.3346083e-7, 1.2000033e+2
-0.360, 9.6734971e-7, -8.3388818e-7, 1.2033366e+2
-0.361, 9.6836345e-7, -8.3471889e-7, 1.2066700e+2
-0.362, 9.6938595e-7, -8.3592596e-7, 1.2100034e+2
-0.363, 9.7000498e-7, -8.3697716e-7, 1.2133367e+2
-0.364, 9.7027657e-7, -8.3774086e-7, 1.2166701e+2
-0.365, 9.7049065e-7, -8.3823210e-7, 1.2200034e+2
-0.366, 9.7085410e-7, -8.3862915e-7, 1.2233368e+2
-0.367, 9.7119437e-7, -8.3928973e-7, 1.2266702e+2
-0.368, 9.7157704e-7, -8.4035935e-7, 1.2300035e+2
-0.369, 9.7219367e-7, -8.4146490e-7, 1.2333369e+2
-0.370, 9.7309555e-7, -8.4228367e-7, 1.2366702e+2
-0.371, 9.7409486e-7, -8.4284682e-7, 1.2400036e+2
-0.372, 9.7479619e-7, -8.4326143e-7, 1.2433369e+2
-0.373, 9.7516204e-7, -8.4363927e-7, 1.2466703e+2
-0.374, 9.7542807e-7, -8.4434225e-7, 1.2500037e+2
-0.375, 9.7577481e-7, -8.4540386e-7, 1.2533370e+2
-0.376, 9.7613906e-7, -8.4641357e-7, 1.2566704e+2
-0.377, 9.7654959e-7, -8.4712769e-7, 1.2600037e+2
-0.378, 9.7720306e-7, -8.4766606e-7, 1.2633371e+2
-0.379, 9.7815848e-7, -8.4808698e-7, 1.2666705e+2
-0.380, 9.7910504e-7, -8.4844572e-7, 1.2700038e+2
-0.381, 9.7967541e-7, -8.4898170e-7, 1.2733372e+2
-0.382, 9.8001328e-7, -8.4983088e-7, 1.2766705e+2
-0.383, 9.8025532e-7, -8.5084770e-7, 1.2800038e+2
-0.384, 9.8057319e-7, -8.5171445e-7, 1.2833371e+2
-0.385, 9.8093119e-7, -8.5234950e-7, 1.2866704e+2
-0.386, 9.8130181e-7, -8.5279362e-7, 1.2900037e+2
-0.387, 9.8182977e-7, -8.5306766e-7, 1.2933369e+2
-0.388, 9.8272687e-7, -8.5334079e-7, 1.2966702e+2
-0.389, 9.8374130e-7, -8.5391116e-7, 1.3000035e+2
-0.390, 9.8450744e-7, -8.5481145e-7, 1.3033368e+2
-0.391, 9.8494115e-7, -8.5581314e-7, 1.3066701e+2
-0.392, 9.8524470e-7, -8.5659036e-7, 1.3100034e+2
-0.393, 9.8562816e-7, -8.5718472e-7, 1.3133366e+2
-0.394, 9.8600992e-7, -8.5765123e-7, 1.3166699e+2
-0.395, 9.8650685e-7, -8.5799553e-7, 1.3200032e+2
-0.396, 9.8731687e-7, -8.5838212e-7, 1.3233365e+2
-0.397, 9.8844316e-7, -8.5902519e-7, 1.3266698e+2
-0.398, 9.8934584e-7, -8.6000767e-7, 1.3300031e+2
-0.399, 9.8967973e-7, -8.6088323e-7, 1.3333363e+2
