Jan. 28, 2006   00:36:07
Square Wave Voltammetry
File: z:\users\scottsaunders\git\labwork\ida\01_17_19_psoralen_nonequil_2\data\psoralen\1\75um_psoralen_transfer_1_swv_10.txt
Data Source:  Experiment
Instrument Model:  CHI760E
Header: 
Note: 

Init E (V) = 0.1
Final E (V) = -0.5
Incr E (V) = 0.001
Amplitude (V) = 0.025
Frequency (Hz) = 300
Quiet Time (sec) = 2
Sensitivity (A/V) = 1e-5
Sens 2 (A/V) = 1e-5

Potential/V, i1/A, i2/A

0.099, 1.5821235e-5, 1.4694762e-5
0.098, 1.7134165e-5, 1.5363335e-5
0.097, 1.7174516e-5, 1.5367399e-5
0.096, 1.7267092e-5, 1.5437607e-5
0.095, 1.7274795e-5, 1.5483798e-5
0.094, 1.7166767e-5, 1.5384001e-5
0.093, 1.6982558e-5, 1.5207666e-5
0.092, 1.6988221e-5, 1.5219248e-5
0.091, 1.7084669e-5, 1.5301599e-5
0.090, 1.7105887e-5, 1.5368965e-5
0.089, 1.6986120e-5, 1.5258189e-5
0.088, 1.6832975e-5, 1.5109301e-5
0.087, 1.6816488e-5, 1.5105643e-5
0.086, 1.6921187e-5, 1.5189036e-5
0.085, 1.6940816e-5, 1.5258121e-5
0.084, 1.6820984e-5, 1.5151292e-5
0.083, 1.6651647e-5, 1.4975041e-5
0.082, 1.6655187e-5, 1.5001749e-5
0.081, 1.6751430e-5, 1.5074807e-5
0.080, 1.6780743e-5, 1.5149313e-5
0.079, 1.6658545e-5, 1.5046960e-5
0.078, 1.6497695e-5, 1.4875156e-5
0.077, 1.6509723e-5, 1.4907508e-5
0.076, 1.6615213e-5, 1.4996748e-5
0.075, 1.6631411e-5, 1.5053171e-5
0.074, 1.6505848e-5, 1.4947938e-5
0.073, 1.6339582e-5, 1.4775436e-5
0.072, 1.6367208e-5, 1.4815469e-5
0.071, 1.6416136e-5, 1.4858869e-5
0.070, 1.6476291e-5, 1.4951016e-5
0.069, 1.6352376e-5, 1.4847057e-5
0.068, 1.6187196e-5, 1.4679108e-5
0.067, 1.6213100e-5, 1.4716101e-5
0.066, 1.6296486e-5, 1.4787582e-5
0.065, 1.6317394e-5, 1.4854402e-5
0.064, 1.6183596e-5, 1.4734656e-5
0.063, 1.6035787e-5, 1.4581483e-5
0.062, 1.6066417e-5, 1.4628959e-5
0.061, 1.6151289e-5, 1.4695114e-5
0.060, 1.6159502e-5, 1.4755047e-5
0.059, 1.6050588e-5, 1.4653559e-5
0.058, 1.5897655e-5, 1.4494506e-5
0.057, 1.5915753e-5, 1.4538318e-5
0.056, 1.6010341e-5, 1.4609848e-5
0.055, 1.6030272e-5, 1.4675985e-5
0.054, 1.5915333e-5, 1.4579670e-5
0.053, 1.5758667e-5, 1.4409487e-5
0.052, 1.5776817e-5, 1.4452129e-5
0.051, 1.5874648e-5, 1.4532636e-5
0.050, 1.5896539e-5, 1.4593483e-5
0.049, 1.5776885e-5, 1.4497016e-5
0.048, 1.5628877e-5, 1.4332010e-5
0.047, 1.5676687e-5, 1.4403535e-5
0.046, 1.5749427e-5, 1.4464156e-5
0.045, 1.5770060e-5, 1.4521979e-5
0.044, 1.5643262e-5, 1.4413577e-5
0.043, 1.5500851e-5, 1.4260959e-5
0.042, 1.5518424e-5, 1.4296064e-5
0.041, 1.5611244e-5, 1.4378880e-5
0.040, 1.5640499e-5, 1.4449099e-5
0.039, 1.5515201e-5, 1.4337418e-5
0.038, 1.5372687e-5, 1.4183730e-5
0.037, 1.5402924e-5, 1.4234016e-5
0.036, 1.5495818e-5, 1.4310532e-5
0.035, 1.5521700e-5, 1.4386571e-5
0.034, 1.5399382e-5, 1.4272538e-5
0.033, 1.5241749e-5, 1.4102798e-5
0.032, 1.5284968e-5, 1.4175532e-5
0.031, 1.5364325e-5, 1.4235615e-5
0.030, 1.5403035e-5, 1.4317749e-5
0.029, 1.5274654e-5, 1.4204204e-5
0.028, 1.5129515e-5, 1.4037507e-5
0.027, 1.5169444e-5, 1.4108973e-5
0.026, 1.5254132e-5, 1.4175745e-5
0.025, 1.5304597e-5, 1.4263710e-5
0.024, 1.5162512e-5, 1.4144940e-5
0.023, 1.5020299e-5, 1.3977339e-5
0.022, 1.5061818e-5, 1.4047655e-5
0.021, 1.5144080e-5, 1.4118222e-5
0.020, 1.5172477e-5, 1.4181974e-5
0.019, 1.5051364e-5, 1.4078731e-5
0.018, 1.4916228e-5, 1.3924306e-5
0.017, 1.4952047e-5, 1.3984260e-5
0.016, 1.5033444e-5, 1.4054045e-5
0.015, 1.5061980e-5, 1.4122863e-5
0.014, 1.4948846e-5, 1.4020810e-5
0.013, 1.4809739e-5, 1.3864022e-5
0.012, 1.4848049e-5, 1.3928007e-5
0.011, 1.4921994e-5, 1.3986943e-5
0.010, 1.4963078e-5, 1.4074345e-5
0.009, 1.4831459e-5, 1.3954092e-5
0.008, 1.4714311e-5, 1.3812707e-5
0.007, 1.4743364e-5, 1.3874465e-5
0.006, 1.4831230e-5, 1.3939272e-5
0.005, 1.4857565e-5, 1.4013711e-5
0.004, 1.4736489e-5, 1.3906591e-5
0.003, 1.4619480e-5, 1.3761251e-5
0.002, 1.4653628e-5, 1.3834724e-5
0.001, 1.4721281e-5, 1.3875196e-5
-0.000, 1.4763347e-5, 1.3959620e-5
-0.001, 1.4629963e-5, 1.3848406e-5
-0.002, 1.4523681e-5, 1.3706723e-5
-0.003, 1.4551723e-5, 1.3768565e-5
-0.004, 1.4615658e-5, 1.3815654e-5
-0.005, 1.4663875e-5, 1.3899875e-5
-0.006, 1.4537100e-5, 1.3796252e-5
-0.007, 1.4434818e-5, 1.3664163e-5
-0.008, 1.4468174e-5, 1.3724264e-5
-0.009, 1.4524036e-5, 1.3769424e-5
-0.010, 1.4579817e-5, 1.3857411e-5
-0.011, 1.4448369e-5, 1.3746519e-5
-0.012, 1.4348667e-5, 1.3621747e-5
-0.013, 1.4384175e-5, 1.3682249e-5
-0.014, 1.4449715e-5, 1.3730589e-5
-0.015, 1.4488889e-5, 1.3815938e-5
-0.016, 1.4366410e-5, 1.3706231e-5
-0.017, 1.4269865e-5, 1.3580923e-5
-0.018, 1.4308694e-5, 1.3649290e-5
-0.019, 1.4365804e-5, 1.3685116e-5
-0.020, 1.4415507e-5, 1.3778648e-5
-0.021, 1.4284613e-5, 1.3663846e-5
-0.022, 1.4224546e-5, 1.3567340e-5
-0.023, 1.4221818e-5, 1.3606224e-5
-0.024, 1.4289250e-5, 1.3645864e-5
-0.025, 1.4332876e-5, 1.3732442e-5
-0.026, 1.4219163e-5, 1.3638491e-5
-0.027, 1.4107396e-5, 1.3487592e-5
-0.028, 1.4152301e-5, 1.3571472e-5
-0.029, 1.4209818e-5, 1.3609420e-5
-0.030, 1.4265399e-5, 1.3697571e-5
-0.031, 1.4130026e-5, 1.3586257e-5
-0.032, 1.4071562e-5, 1.3488737e-5
-0.033, 1.4075628e-5, 1.3526438e-5
-0.034, 1.4141973e-5, 1.3578705e-5
-0.035, 1.4189089e-5, 1.3656872e-5
-0.036, 1.4060754e-5, 1.3547769e-5
-0.037, 1.3986342e-5, 1.3444497e-5
-0.038, 1.4009380e-5, 1.3498742e-5
-0.039, 1.4082008e-5, 1.3550023e-5
-0.040, 1.4125768e-5, 1.3630205e-5
-0.041, 1.3990218e-5, 1.3511870e-5
-0.042, 1.3927206e-5, 1.3415328e-5
-0.043, 1.3940240e-5, 1.3464595e-5
-0.044, 1.4005246e-5, 1.3504326e-5
-0.045, 1.4061803e-5, 1.3604614e-5
-0.046, 1.3933986e-5, 1.3487364e-5
-0.047, 1.3857691e-5, 1.3377061e-5
-0.048, 1.3883647e-5, 1.3443634e-5
-0.049, 1.3934430e-5, 1.3469224e-5
-0.050, 1.4001720e-5, 1.3572386e-5
-0.051, 1.3870738e-5, 1.3463212e-5
-0.052, 1.3806627e-5, 1.3355171e-5
-0.053, 1.3826359e-5, 1.3419254e-5
-0.054, 1.3882700e-5, 1.3453110e-5
-0.055, 1.3938458e-5, 1.3540357e-5
-0.056, 1.3811779e-5, 1.3439529e-5
-0.057, 1.3748081e-5, 1.3328485e-5
-0.058, 1.3769853e-5, 1.3390366e-5
-0.059, 1.3821626e-5, 1.3428747e-5
-0.060, 1.3888584e-5, 1.3522778e-5
-0.061, 1.3758764e-5, 1.3415354e-5
-0.062, 1.3704381e-5, 1.3321351e-5
-0.063, 1.3698660e-5, 1.3348372e-5
-0.064, 1.3768974e-5, 1.3405594e-5
-0.065, 1.3827741e-5, 1.3498532e-5
-0.066, 1.3704544e-5, 1.3390696e-5
-0.067, 1.3638251e-5, 1.3288800e-5
-0.068, 1.3680199e-5, 1.3366329e-5
-0.069, 1.3722309e-5, 1.3389124e-5
-0.070, 1.3776522e-5, 1.3482186e-5
-0.071, 1.3641208e-5, 1.3361311e-5
-0.072, 1.3598543e-5, 1.3275136e-5
-0.073, 1.3617735e-5, 1.3341773e-5
-0.074, 1.3668104e-5, 1.3368517e-5
-0.075, 1.3722161e-5, 1.3458350e-5
-0.076, 1.3586403e-5, 1.3343430e-5
-0.077, 1.3543435e-5, 1.3250391e-5
-0.078, 1.3552070e-5, 1.3305897e-5
-0.079, 1.3605426e-5, 1.3335331e-5
-0.080, 1.3696456e-5, 1.3460396e-5
-0.081, 1.3534305e-5, 1.3327515e-5
-0.082, 1.3502227e-5, 1.3239629e-5
-0.083, 1.3497229e-5, 1.3281269e-5
-0.084, 1.3562745e-5, 1.3334206e-5
-0.085, 1.3621483e-5, 1.3422651e-5
-0.086, 1.3487625e-5, 1.3311797e-5
-0.087, 1.3445663e-5, 1.3221221e-5
-0.088, 1.3447319e-5, 1.3263165e-5
-0.089, 1.3509169e-5, 1.3311208e-5
-0.090, 1.3577281e-5, 1.3411590e-5
-0.091, 1.3435903e-5, 1.3288902e-5
-0.092, 1.3402540e-5, 1.3214694e-5
-0.093, 1.3395916e-5, 1.3245532e-5
-0.094, 1.3466193e-5, 1.3299659e-5
-0.095, 1.3515453e-5, 1.3388983e-5
-0.096, 1.3386763e-5, 1.3275541e-5
-0.097, 1.3359861e-5, 1.3200271e-5
-0.098, 1.3346042e-5, 1.3233534e-5
-0.099, 1.3411736e-5, 1.3277731e-5
-0.100, 1.3479877e-5, 1.3384040e-5
-0.101, 1.3335308e-5, 1.3262326e-5
-0.102, 1.3313912e-5, 1.3185036e-5
-0.103, 1.3287335e-5, 1.3208943e-5
-0.104, 1.3366380e-5, 1.3267003e-5
-0.105, 1.3415736e-5, 1.3351557e-5
-0.106, 1.3284962e-5, 1.3250698e-5
-0.107, 1.3252359e-5, 1.3160796e-5
-0.108, 1.3240544e-5, 1.3195842e-5
-0.109, 1.3329356e-5, 1.3272679e-5
-0.110, 1.3381728e-5, 1.3350060e-5
-0.111, 1.3233654e-5, 1.3232060e-5
-0.112, 1.3213945e-5, 1.3158629e-5
-0.113, 1.3195986e-5, 1.3183499e-5
-0.114, 1.3268993e-5, 1.3249093e-5
-0.115, 1.3328380e-5, 1.3332196e-5
-0.116, 1.3185089e-5, 1.3215497e-5
-0.117, 1.3172425e-5, 1.3154582e-5
-0.118, 1.3154756e-5, 1.3176214e-5
-0.119, 1.3223214e-5, 1.3231374e-5
-0.120, 1.3286477e-5, 1.3328230e-5
-0.121, 1.3112940e-5, 1.3178293e-5
-0.122, 1.3127676e-5, 1.3142407e-5
-0.123, 1.3100890e-5, 1.3162331e-5
-0.124, 1.3179308e-5, 1.3218519e-5
-0.125, 1.3232612e-5, 1.3311772e-5
-0.126, 1.3092684e-5, 1.3189559e-5
-0.127, 1.3082319e-5, 1.3129837e-5
-0.128, 1.3063274e-5, 1.3162111e-5
-0.129, 1.3128355e-5, 1.3205392e-5
-0.130, 1.3208828e-5, 1.3318939e-5
-0.131, 1.3045747e-5, 1.3187057e-5
-0.132, 1.3043409e-5, 1.3120202e-5
-0.133, 1.3018533e-5, 1.3151255e-5
-0.134, 1.3094184e-5, 1.3209095e-5
-0.135, 1.3160552e-5, 1.3304689e-5
-0.136, 1.3009003e-5, 1.3184311e-5
-0.137, 1.3005343e-5, 1.3124921e-5
-0.138, 1.2996412e-5, 1.3158930e-5
-0.139, 1.3046752e-5, 1.3203371e-5
-0.140, 1.3122478e-5, 1.3301010e-5
-0.141, 1.2967144e-5, 1.3176519e-5
-0.142, 1.2966153e-5, 1.3123470e-5
-0.143, 1.2919702e-5, 1.3123345e-5
-0.144, 1.3009971e-5, 1.3199819e-5
-0.145, 1.3076278e-5, 1.3299011e-5
-0.146, 1.2932456e-5, 1.3176899e-5
-0.147, 1.2922534e-5, 1.3117406e-5
-0.148, 1.2912087e-5, 1.3150608e-5
-0.149, 1.2968638e-5, 1.3191695e-5
-0.150, 1.3047424e-5, 1.3309410e-5
-0.151, 1.2883433e-5, 1.3166782e-5
-0.152, 1.2890352e-5, 1.3117738e-5
-0.153, 1.2860144e-5, 1.3144801e-5
-0.154, 1.2934584e-5, 1.3200930e-5
-0.155, 1.3007583e-5, 1.3305144e-5
-0.156, 1.2845137e-5, 1.3171858e-5
-0.157, 1.2857239e-5, 1.3123776e-5
-0.158, 1.2827512e-5, 1.3150089e-5
-0.159, 1.2888097e-5, 1.3197878e-5
-0.160, 1.2973878e-5, 1.3310857e-5
-0.161, 1.2793304e-5, 1.3163486e-5
-0.162, 1.2821154e-5, 1.3128279e-5
-0.163, 1.2782200e-5, 1.3144683e-5
-0.164, 1.2856552e-5, 1.3210763e-5
-0.165, 1.2935095e-5, 1.3316861e-5
-0.166, 1.2775296e-5, 1.3184868e-5
-0.167, 1.2775864e-5, 1.3130293e-5
-0.168, 1.2755992e-5, 1.3158664e-5
-0.169, 1.2808076e-5, 1.3206070e-5
-0.170, 1.2905035e-5, 1.3335168e-5
-0.171, 1.2727151e-5, 1.3182333e-5
-0.172, 1.2740747e-5, 1.3138006e-5
-0.173, 1.2715870e-5, 1.3165912e-5
-0.174, 1.2776642e-5, 1.3217842e-5
-0.175, 1.2853972e-5, 1.3335648e-5
-0.176, 1.2698267e-5, 1.3200153e-5
-0.177, 1.2702016e-5, 1.3147475e-5
-0.178, 1.2679762e-5, 1.3184757e-5
-0.179, 1.2741228e-5, 1.3230913e-5
-0.180, 1.2820230e-5, 1.3349510e-5
-0.181, 1.2652254e-5, 1.3209965e-5
-0.182, 1.2669685e-5, 1.3162147e-5
-0.183, 1.2632499e-5, 1.3188968e-5
-0.184, 1.2714880e-5, 1.3255689e-5
-0.185, 1.2773477e-5, 1.3352988e-5
-0.186, 1.2619843e-5, 1.3231933e-5
-0.187, 1.2626363e-5, 1.3173089e-5
-0.188, 1.2600673e-5, 1.3205385e-5
-0.189, 1.2679579e-5, 1.3280930e-5
-0.190, 1.2744282e-5, 1.3377890e-5
-0.191, 1.2570738e-5, 1.3235848e-5
-0.192, 1.2588682e-5, 1.3191329e-5
-0.193, 1.2553970e-5, 1.3211999e-5
-0.194, 1.2618142e-5, 1.3275311e-5
-0.195, 1.2689122e-5, 1.3375974e-5
-0.196, 1.2541765e-5, 1.3258593e-5
-0.197, 1.2551849e-5, 1.3216614e-5
-0.198, 1.2520628e-5, 1.3234669e-5
-0.199, 1.2562916e-5, 1.3277477e-5
-0.200, 1.2654316e-5, 1.3408262e-5
-0.201, 1.2480994e-5, 1.3262397e-5
-0.202, 1.2509125e-5, 1.3230437e-5
-0.203, 1.2475886e-5, 1.3254830e-5
-0.204, 1.2528235e-5, 1.3301196e-5
-0.205, 1.2600354e-5, 1.3415583e-5
-0.206, 1.2442122e-5, 1.3283377e-5
-0.207, 1.2478007e-5, 1.3256426e-5
-0.208, 1.2433997e-5, 1.3278077e-5
-0.209, 1.2478481e-5, 1.3312881e-5
-0.210, 1.2557867e-5, 1.3430527e-5
-0.211, 1.2392493e-5, 1.3301814e-5
-0.212, 1.2414694e-5, 1.3255261e-5
-0.213, 1.2387413e-5, 1.3289617e-5
-0.214, 1.2432836e-5, 1.3335239e-5
-0.215, 1.2511882e-5, 1.3447549e-5
-0.216, 1.2347595e-5, 1.3318493e-5
-0.217, 1.2368096e-5, 1.3277175e-5
-0.218, 1.2344808e-5, 1.3308269e-5
-0.219, 1.2361899e-5, 1.3329767e-5
-0.220, 1.2461773e-5, 1.3462574e-5
-0.221, 1.2297907e-5, 1.3331353e-5
-0.222, 1.2321609e-5, 1.3299007e-5
-0.223, 1.2278257e-5, 1.3311558e-5
-0.224, 1.2337305e-5, 1.3370149e-5
-0.225, 1.2415426e-5, 1.3491231e-5
-0.226, 1.2253896e-5, 1.3352441e-5
-0.227, 1.2268896e-5, 1.3309272e-5
-0.228, 1.2231192e-5, 1.3333158e-5
-0.229, 1.2283750e-5, 1.3382686e-5
-0.230, 1.2343706e-5, 1.3485383e-5
-0.231, 1.2188733e-5, 1.3353285e-5
-0.232, 1.2222077e-5, 1.3326237e-5
-0.233, 1.2181341e-5, 1.3353636e-5
-0.234, 1.2240996e-5, 1.3406374e-5
-0.235, 1.2297056e-5, 1.3502157e-5
-0.236, 1.2133131e-5, 1.3368146e-5
-0.237, 1.2142920e-5, 1.3315032e-5
-0.238, 1.2132170e-5, 1.3367839e-5
-0.239, 1.2178672e-5, 1.3416871e-5
-0.240, 1.2246570e-5, 1.3515272e-5
-0.241, 1.2079658e-5, 1.3382731e-5
-0.242, 1.2119979e-5, 1.3354649e-5
-0.243, 1.2070645e-5, 1.3370227e-5
-0.244, 1.2124873e-5, 1.3432780e-5
-0.245, 1.2187803e-5, 1.3524804e-5
-0.246, 1.2031455e-5, 1.3396293e-5
-0.247, 1.2056371e-5, 1.3364726e-5
-0.248, 1.2028617e-5, 1.3394620e-5
-0.249, 1.2067001e-5, 1.3437970e-5
-0.250, 1.2135661e-5, 1.3539919e-5
-0.251, 1.1971306e-5, 1.3399075e-5
-0.252, 1.2011184e-5, 1.3381106e-5
-0.253, 1.1968710e-5, 1.3399043e-5
-0.254, 1.2032719e-5, 1.3461635e-5
-0.255, 1.2075880e-5, 1.3548690e-5
-0.256, 1.1918926e-5, 1.3409715e-5
-0.257, 1.1955706e-5, 1.3386891e-5
-0.258, 1.1917951e-5, 1.3413346e-5
-0.259, 1.1946377e-5, 1.3443176e-5
-0.260, 1.2023700e-5, 1.3555820e-5
-0.261, 1.1866257e-5, 1.3424772e-5
-0.262, 1.1912420e-5, 1.3400565e-5
-0.263, 1.1861533e-5, 1.3416839e-5
-0.264, 1.1948099e-5, 1.3500381e-5
-0.265, 1.1971069e-5, 1.3557672e-5
-0.266, 1.1824082e-5, 1.3444108e-5
-0.267, 1.1860921e-5, 1.3407032e-5
-0.268, 1.1819860e-5, 1.3426778e-5
-0.269, 1.1871079e-5, 1.3490064e-5
-0.270, 1.1927790e-5, 1.3574179e-5
-0.271, 1.1778977e-5, 1.3450635e-5
-0.272, 1.1812289e-5, 1.3419806e-5
-0.273, 1.1768183e-5, 1.3430843e-5
-0.274, 1.1827393e-5, 1.3498772e-5
-0.275, 1.1873422e-5, 1.3577515e-5
-0.276, 1.1728742e-5, 1.3451325e-5
-0.277, 1.1769853e-5, 1.3436111e-5
-0.278, 1.1730102e-5, 1.3443174e-5
-0.279, 1.1771843e-5, 1.3493171e-5
-0.280, 1.1830934e-5, 1.3588170e-5
-0.281, 1.1683585e-5, 1.3458564e-5
-0.282, 1.1749553e-5, 1.3458623e-5
-0.283, 1.1681706e-5, 1.3449884e-5
-0.284, 1.1744984e-5, 1.3511861e-5
-0.285, 1.1784707e-5, 1.3587503e-5
-0.286, 1.1649990e-5, 1.3473838e-5
-0.287, 1.1682623e-5, 1.3435688e-5
-0.288, 1.1646523e-5, 1.3460127e-5
-0.289, 1.1697372e-5, 1.3508484e-5
-0.290, 1.1745272e-5, 1.3588959e-5
-0.291, 1.1607149e-5, 1.3478778e-5
-0.292, 1.1647959e-5, 1.3444440e-5
-0.293, 1.1609203e-5, 1.3461206e-5
-0.294, 1.1667416e-5, 1.3527747e-5
-0.295, 1.1682750e-5, 1.3565827e-5
-0.296, 1.1567567e-5, 1.3477049e-5
-0.297, 1.1605626e-5, 1.3446719e-5
-0.298, 1.1582241e-5, 1.3469237e-5
-0.299, 1.1635168e-5, 1.3532832e-5
-0.300, 1.1696538e-5, 1.3616685e-5
-0.301, 1.1536324e-5, 1.3478736e-5
-0.302, 1.1588163e-5, 1.3465482e-5
-0.303, 1.1542326e-5, 1.3464552e-5
-0.304, 1.1608872e-5, 1.3534647e-5
-0.305, 1.1665516e-5, 1.3623057e-5
-0.306, 1.1515705e-5, 1.3489975e-5
-0.307, 1.1554717e-5, 1.3461762e-5
-0.308, 1.1516497e-5, 1.3470041e-5
-0.309, 1.1579847e-5, 1.3531697e-5
-0.310, 1.1605530e-5, 1.3588884e-5
-0.311, 1.1479613e-5, 1.3476067e-5
-0.312, 1.1537595e-5, 1.3464390e-5
-0.313, 1.1489201e-5, 1.3471219e-5
-0.314, 1.1554990e-5, 1.3530156e-5
-0.315, 1.1577304e-5, 1.3580577e-5
-0.316, 1.1461670e-5, 1.3489422e-5
-0.317, 1.1508097e-5, 1.3462181e-5
-0.318, 1.1472064e-5, 1.3471581e-5
-0.319, 1.1524117e-5, 1.3523206e-5
-0.320, 1.1557202e-5, 1.3576667e-5
-0.321, 1.1430626e-5, 1.3472845e-5
-0.322, 1.1490996e-5, 1.3461302e-5
-0.323, 1.1471458e-5, 1.3481275e-5
-0.324, 1.1510936e-5, 1.3527304e-5
-0.325, 1.1542859e-5, 1.3574521e-5
-0.326, 1.1415219e-5, 1.3464834e-5
-0.327, 1.1470955e-5, 1.3456188e-5
-0.328, 1.1429791e-5, 1.3448467e-5
-0.329, 1.1488019e-5, 1.3509067e-5
-0.330, 1.1524857e-5, 1.3569635e-5
-0.331, 1.1397564e-5, 1.3451946e-5
-0.332, 1.1463369e-5, 1.3453666e-5
-0.333, 1.1411922e-5, 1.3440107e-5
-0.334, 1.1483686e-5, 1.3505281e-5
-0.335, 1.1477091e-5, 1.3522651e-5
-0.336, 1.1384183e-5, 1.3441127e-5
-0.337, 1.1447681e-5, 1.3436909e-5
-0.338, 1.1403641e-5, 1.3435578e-5
-0.339, 1.1469513e-5, 1.3493041e-5
-0.340, 1.1494738e-5, 1.3538000e-5
-0.341, 1.1389121e-5, 1.3451656e-5
-0.342, 1.1445753e-5, 1.3429149e-5
-0.343, 1.1392634e-5, 1.3419061e-5
-0.344, 1.1462261e-5, 1.3483777e-5
-0.345, 1.1484113e-5, 1.3519439e-5
-0.346, 1.1343285e-5, 1.3400707e-5
-0.347, 1.1431077e-5, 1.3408583e-5
-0.348, 1.1389810e-5, 1.3404451e-5
-0.349, 1.1458882e-5, 1.3475174e-5
-0.350, 1.1487086e-5, 1.3511295e-5
-0.351, 1.1364295e-5, 1.3403956e-5
-0.352, 1.1429568e-5, 1.3398883e-5
-0.353, 1.1362832e-5, 1.3365915e-5
-0.354, 1.1455784e-5, 1.3456325e-5
-0.355, 1.1473875e-5, 1.3489131e-5
-0.356, 1.1363785e-5, 1.3386049e-5
-0.357, 1.1430449e-5, 1.3389235e-5
-0.358, 1.1382586e-5, 1.3365621e-5
-0.359, 1.1450506e-5, 1.3432147e-5
-0.360, 1.1480432e-5, 1.3481161e-5
-0.361, 1.1364628e-5, 1.3371105e-5
-0.362, 1.1446794e-5, 1.3382141e-5
-0.363, 1.1380937e-5, 1.3356403e-5
-0.364, 1.1438795e-5, 1.3398632e-5
-0.365, 1.1481682e-5, 1.3462732e-5
-0.366, 1.1366595e-5, 1.3355580e-5
-0.367, 1.1444428e-5, 1.3360929e-5
-0.368, 1.1391917e-5, 1.3341863e-5
-0.369, 1.1462379e-5, 1.3408628e-5
-0.370, 1.1506796e-5, 1.3460804e-5
-0.371, 1.1372280e-5, 1.3346016e-5
-0.372, 1.1452989e-5, 1.3346631e-5
-0.373, 1.1397617e-5, 1.3325289e-5
-0.374, 1.1481992e-5, 1.3408714e-5
-0.375, 1.1498531e-5, 1.3432218e-5
-0.376, 1.1389284e-5, 1.3338873e-5
-0.377, 1.1456989e-5, 1.3335243e-5
-0.378, 1.1410051e-5, 1.3313567e-5
-0.379, 1.1491285e-5, 1.3393998e-5
-0.380, 1.1520843e-5, 1.3432245e-5
-0.381, 1.1395465e-5, 1.3317886e-5
-0.382, 1.1463584e-5, 1.3319221e-5
-0.383, 1.1414250e-5, 1.3295742e-5
-0.384, 1.1509081e-5, 1.3387125e-5
-0.385, 1.1517752e-5, 1.3415876e-5
-0.386, 1.1403524e-5, 1.3304168e-5
-0.387, 1.1485224e-5, 1.3321209e-5
-0.388, 1.1428845e-5, 1.3293191e-5
-0.389, 1.1523460e-5, 1.3380622e-5
-0.390, 1.1543259e-5, 1.3416427e-5
-0.391, 1.1419308e-5, 1.3304478e-5
-0.392, 1.1502634e-5, 1.3314499e-5
-0.393, 1.1417312e-5, 1.3266468e-5
-0.394, 1.1546223e-5, 1.3383386e-5
-0.395, 1.1555243e-5, 1.3408217e-5
-0.396, 1.1436177e-5, 1.3305490e-5
-0.397, 1.1512370e-5, 1.3309604e-5
-0.398, 1.1471391e-5, 1.3296736e-5
-0.399, 1.1558850e-5, 1.3383593e-5
-0.400, 1.1579292e-5, 1.3411554e-5
-0.401, 1.1444288e-5, 1.3294064e-5
-0.402, 1.1533004e-5, 1.3317356e-5
-0.403, 1.1477327e-5, 1.3284465e-5
-0.404, 1.1578842e-5, 1.3388578e-5
-0.405, 1.1593605e-5, 1.3412160e-5
-0.406, 1.1461138e-5, 1.3294410e-5
-0.407, 1.1533137e-5, 1.3308196e-5
-0.408, 1.1502583e-5, 1.3295645e-5
-0.409, 1.1595593e-5, 1.3388839e-5
-0.410, 1.1609611e-5, 1.3421086e-5
-0.411, 1.1474245e-5, 1.3290713e-5
-0.412, 1.1553276e-5, 1.3311343e-5
-0.413, 1.1503743e-5, 1.3287774e-5
-0.414, 1.1612834e-5, 1.3389818e-5
-0.415, 1.1616723e-5, 1.3415775e-5
-0.416, 1.1509228e-5, 1.3315223e-5
-0.417, 1.1559693e-5, 1.3305813e-5
-0.418, 1.1518603e-5, 1.3294657e-5
-0.419, 1.1633445e-5, 1.3400222e-5
-0.420, 1.1636625e-5, 1.3417965e-5
-0.421, 1.1525981e-5, 1.3325432e-5
-0.422, 1.1577806e-5, 1.3313926e-5
-0.423, 1.1528687e-5, 1.3290895e-5
-0.424, 1.1651056e-5, 1.3411860e-5
-0.425, 1.1645112e-5, 1.3415279e-5
-0.426, 1.1511979e-5, 1.3299784e-5
-0.427, 1.1590004e-5, 1.3313399e-5
-0.428, 1.1556765e-5, 1.3303536e-5
-0.429, 1.1658693e-5, 1.3414723e-5
-0.430, 1.1660451e-5, 1.3419894e-5
-0.431, 1.1508541e-5, 1.3284088e-5
-0.432, 1.1607074e-5, 1.3329985e-5
-0.433, 1.1551746e-5, 1.3295701e-5
-0.434, 1.1676200e-5, 1.3419991e-5
-0.435, 1.1665982e-5, 1.3421482e-5
-0.436, 1.1526743e-5, 1.3289955e-5
-0.437, 1.1606528e-5, 1.3319927e-5
-0.438, 1.1561335e-5, 1.3294659e-5
-0.439, 1.1673619e-5, 1.3402843e-5
-0.440, 1.1680790e-5, 1.3429297e-5
-0.441, 1.1522713e-5, 1.3278200e-5
-0.442, 1.1613477e-5, 1.3313684e-5
-0.443, 1.1567516e-5, 1.3295545e-5
-0.444, 1.1684635e-5, 1.3404904e-5
-0.445, 1.1679822e-5, 1.3420617e-5
-0.446, 1.1533714e-5, 1.3282925e-5
-0.447, 1.1618113e-5, 1.3309747e-5
-0.448, 1.1576231e-5, 1.3292320e-5
-0.449, 1.1683326e-5, 1.3399287e-5
-0.450, 1.1694556e-5, 1.3418590e-5
-0.451, 1.1521538e-5, 1.3258677e-5
-0.452, 1.1624219e-5, 1.3304931e-5
-0.453, 1.1575699e-5, 1.3281270e-5
-0.454, 1.1694985e-5, 1.3404278e-5
-0.455, 1.1682964e-5, 1.3400642e-5
-0.456, 1.1536678e-5, 1.3264715e-5
-0.457, 1.1647212e-5, 1.3327972e-5
-0.458, 1.1584149e-5, 1.3278053e-5
-0.459, 1.1702844e-5, 1.3404003e-5
-0.460, 1.1701595e-5, 1.3411656e-5
-0.461, 1.1542342e-5, 1.3260396e-5
-0.462, 1.1613869e-5, 1.3284322e-5
-0.463, 1.1592349e-5, 1.3276764e-5
-0.464, 1.1714879e-5, 1.3402300e-5
-0.465, 1.1706947e-5, 1.3412728e-5
-0.466, 1.1555922e-5, 1.3264322e-5
-0.467, 1.1647071e-5, 1.3306037e-5
-0.468, 1.1600998e-5, 1.3277953e-5
-0.469, 1.1708107e-5, 1.3387926e-5
-0.470, 1.1720402e-5, 1.3412746e-5
-0.471, 1.1557911e-5, 1.3262138e-5
-0.472, 1.1656120e-5, 1.3302935e-5
-0.473, 1.1607541e-5, 1.3278765e-5
-0.474, 1.1740814e-5, 1.3407509e-5
-0.475, 1.1722243e-5, 1.3403604e-5
-0.476, 1.1576755e-5, 1.3273195e-5
-0.477, 1.1662966e-5, 1.3300585e-5
-0.478, 1.1635657e-5, 1.3291325e-5
-0.479, 1.1742877e-5, 1.3408317e-5
-0.480, 1.1720424e-5, 1.3388174e-5
-0.481, 1.1586434e-5, 1.3270672e-5
-0.482, 1.1676458e-5, 1.3307534e-5
-0.483, 1.1647942e-5, 1.3292918e-5
-0.484, 1.1761715e-5, 1.3413181e-5
-0.485, 1.1758823e-5, 1.3419548e-5
-0.486, 1.1613300e-5, 1.3278895e-5
-0.487, 1.1687976e-5, 1.3313496e-5
-0.488, 1.1670736e-5, 1.3301820e-5
-0.489, 1.1772375e-5, 1.3408864e-5
-0.490, 1.1782748e-5, 1.3434990e-5
-0.491, 1.1623850e-5, 1.3281327e-5
-0.492, 1.1734404e-5, 1.3342309e-5
-0.493, 1.1684384e-5, 1.3309909e-5
-0.494, 1.1806272e-5, 1.3427267e-5
-0.495, 1.1796276e-5, 1.3434344e-5
-0.496, 1.1649769e-5, 1.3296987e-5
-0.497, 1.1729340e-5, 1.3324016e-5
-0.498, 1.1701957e-5, 1.3314004e-5
-0.499, 1.1837367e-5, 1.3446926e-5
-0.500, 1.1822565e-5, 1.3443627e-5
