Dec. 21, 2005   09:49:27
Square Wave Voltammetry
File: z:\users\scottsaunders\git\labwork\ida\12_10_18\data\a_200um_pyo_swvfast_5.txt
Data Source:  Experiment
Instrument Model:  CHI760E
Header: 
Note: 

Init E (V) = 0.1
Final E (V) = -0.5
Incr E (V) = 0.001
Amplitude (V) = 0.025
Frequency (Hz) = 300
Quiet Time (sec) = 2
Sensitivity (A/V) = 1e-6
Sens 2 (A/V) = 1e-6

Potential/V, i1/A, i2/A

0.099, 1.5026914e-6, 1.8347337e-6
0.098, 1.5363656e-6, 1.9351296e-6
0.097, 1.6020319e-6, 1.9599152e-6
0.096, 1.5871078e-6, 1.9971681e-6
0.095, 1.5956172e-6, 1.9167753e-6
0.094, 1.6231072e-6, 2.0170889e-6
0.093, 1.5863327e-6, 2.0046384e-6
0.092, 1.6250697e-6, 2.0264556e-6
0.091, 1.5775101e-6, 2.0208490e-6
0.090, 1.6161811e-6, 2.0010270e-6
0.089, 1.6165770e-6, 2.0339426e-6
0.088, 1.6000035e-6, 1.9616634e-6
0.087, 1.6156864e-6, 1.9942327e-6
0.086, 1.5757951e-6, 2.0155553e-6
0.085, 1.6323091e-6, 2.0329201e-6
0.084, 1.6010920e-6, 2.0634611e-6
0.083, 1.6000861e-6, 2.0067328e-6
0.082, 1.6105248e-6, 2.0342393e-6
0.081, 1.5728103e-6, 1.9991801e-6
0.080, 1.6240472e-6, 1.9630816e-6
0.079, 1.5716394e-6, 2.0088437e-6
0.078, 1.5979092e-6, 2.0142527e-6
0.077, 1.6033018e-6, 2.0861689e-6
0.076, 1.5838261e-6, 1.9983884e-6
0.075, 1.6137075e-6, 2.0040943e-6
0.074, 1.5725793e-6, 1.9972010e-6
0.073, 1.6080182e-6, 1.9506147e-6
0.072, 1.5866790e-6, 2.0129332e-6
0.071, 1.5702378e-6, 2.0045559e-6
0.070, 1.6134932e-6, 2.0533193e-6
0.069, 1.5807589e-6, 2.0246252e-6
0.068, 1.6121573e-6, 1.9928805e-6
0.067, 1.5497396e-6, 1.9983886e-6
0.066, 1.5936216e-6, 1.9541271e-6
0.065, 1.6002509e-6, 1.9983224e-6
0.064, 1.5756797e-6, 1.9798526e-6
0.063, 1.5939186e-6, 2.0358227e-6
0.062, 1.5595847e-6, 2.0434413e-6
0.061, 1.6057919e-6, 2.0128509e-6
0.060, 1.5698914e-6, 1.9860863e-6
0.059, 1.5830510e-6, 1.9430618e-6
0.058, 1.6013230e-6, 1.9708323e-6
0.057, 1.5675497e-6, 1.9758454e-6
0.056, 1.5887570e-6, 1.9896979e-6
0.055, 1.5563689e-6, 1.9999220e-6
0.054, 1.5800663e-6, 2.0106245e-6
0.053, 1.5822429e-6, 1.9814524e-6
0.052, 1.5712106e-6, 1.9365480e-6
0.051, 1.5890043e-6, 1.9428476e-6
0.050, 1.5485853e-6, 1.9821780e-6
0.049, 1.5784832e-6, 1.9914623e-6
0.048, 1.5567482e-6, 1.9825409e-6
0.047, 1.5900432e-6, 2.0048033e-6
0.046, 1.5865801e-6, 1.9907532e-6
0.045, 1.5437370e-6, 1.9720030e-6
0.044, 1.5820451e-6, 1.9159509e-6
0.043, 1.5267844e-6, 1.9654399e-6
0.042, 1.5804126e-6, 1.9886095e-6
0.041, 1.5500035e-6, 2.0152586e-6
0.040, 1.5471342e-6, 1.9993779e-6
0.039, 1.5872563e-6, 1.9983720e-6
0.038, 1.5489151e-6, 1.9522142e-6
0.037, 1.5686710e-6, 1.9427484e-6
0.036, 1.5340404e-6, 1.9235697e-6
0.035, 1.5685226e-6, 1.9718877e-6
0.034, 1.5624375e-6, 2.0007631e-6
0.033, 1.5424342e-6, 1.9759609e-6
0.032, 1.5592877e-6, 1.9757961e-6
0.031, 1.5209962e-6, 1.9583654e-6
0.030, 1.5711447e-6, 1.9847175e-6
0.029, 1.5361677e-6, 1.9306112e-6
0.028, 1.5490800e-6, 1.9420888e-6
0.027, 1.5552475e-6, 1.9831180e-6
0.026, 1.5160324e-6, 1.9893678e-6
0.025, 1.5563360e-6, 1.9902254e-6
0.024, 1.5203366e-6, 1.9633785e-6
0.023, 1.5537964e-6, 1.9439854e-6
0.022, 1.5490966e-6, 1.9392855e-6
0.021, 1.5293076e-6, 1.8913136e-6
0.020, 1.5462435e-6, 1.9503673e-6
0.019, 1.5162138e-6, 1.9654067e-6
0.018, 1.5510590e-6, 2.0127518e-6
0.017, 1.5274936e-6, 1.9481245e-6
0.016, 1.5291097e-6, 1.9527749e-6
0.015, 1.5560556e-6, 1.9436720e-6
0.014, 1.5132621e-6, 1.9102945e-6
0.013, 1.5536315e-6, 1.9772801e-6
0.012, 1.4986842e-6, 1.9634444e-6
0.011, 1.5468208e-6, 1.9692657e-6
0.010, 1.5311875e-6, 2.0073264e-6
0.009, 1.5210456e-6, 1.9172207e-6
0.008, 1.5542582e-6, 1.9594702e-6
0.007, 1.5005311e-6, 1.8903902e-6
0.006, 1.5508940e-6, 1.9605420e-6
0.005, 1.5139876e-6, 1.9449253e-6
0.004, 1.5176651e-6, 1.9500867e-6
0.003, 1.5446934e-6, 2.0066175e-6
0.002, 1.5056597e-6, 1.9122733e-6
0.001, 1.5342712e-6, 1.9462445e-6
-0.000, 1.4904882e-6, 1.8879496e-6
-0.001, 1.5204685e-6, 1.9166930e-6
-0.002, 1.5203696e-6, 1.9631641e-6
-0.003, 1.5081828e-6, 1.9301824e-6
-0.004, 1.5361018e-6, 1.9972013e-6
-0.005, 1.4952376e-6, 1.9667591e-6
-0.006, 1.5399937e-6, 1.9520326e-6
-0.007, 1.5062699e-6, 1.9278737e-6
-0.008, 1.5251683e-6, 1.8999053e-6
-0.009, 1.5360688e-6, 1.9653739e-6
-0.010, 1.4844691e-6, 1.9407696e-6
-0.011, 1.5352114e-6, 1.9629992e-6
-0.012, 1.4767513e-6, 1.9593547e-6
-0.013, 1.5267019e-6, 1.9420888e-6
-0.014, 1.5155872e-6, 1.9438039e-6
-0.015, 1.4962600e-6, 1.8642193e-6
-0.016, 1.5358379e-6, 1.9452057e-6
-0.017, 1.4860686e-6, 1.9330355e-6
-0.018, 1.5260093e-6, 1.9589588e-6
-0.019, 1.4784169e-6, 1.9728607e-6
-0.020, 1.5153563e-6, 1.9205518e-6
-0.021, 1.5275925e-6, 1.9548856e-6
-0.022, 1.4849143e-6, 1.9120096e-6
-0.023, 1.5155872e-6, 1.8796215e-6
-0.024, 1.4768009e-6, 1.9410004e-6
-0.025, 1.5155377e-6, 1.9335960e-6
-0.026, 1.4879981e-6, 1.9595195e-6
-0.027, 1.4942482e-6, 1.9220031e-6
-0.028, 1.5111347e-6, 1.9416930e-6
-0.029, 1.4699901e-6, 1.9389227e-6
-0.030, 1.5071603e-6, 1.8858552e-6
-0.031, 1.4785323e-6, 1.9378012e-6
-0.032, 1.5028397e-6, 1.9233057e-6
-0.033, 1.4975133e-6, 1.9817328e-6
-0.034, 1.4899770e-6, 1.9470526e-6
-0.035, 1.5054618e-6, 1.9245097e-6
-0.036, 1.4686379e-6, 1.9354102e-6
-0.037, 1.5114481e-6, 1.8818973e-6
-0.038, 1.4922527e-6, 1.9534345e-6
-0.039, 1.4883608e-6, 1.9261256e-6
-0.040, 1.5138722e-6, 1.9777585e-6
-0.041, 1.4670878e-6, 1.9748559e-6
-0.042, 1.5059401e-6, 1.9504496e-6
-0.043, 1.4712600e-6, 1.9322767e-6
-0.044, 1.5003991e-6, 1.8807266e-6
-0.045, 1.5040602e-6, 1.9443314e-6
-0.046, 1.4794393e-6, 1.9211291e-6
-0.047, 1.5006466e-6, 1.9272470e-6
-0.048, 1.4684895e-6, 1.9658851e-6
-0.049, 1.5046703e-6, 1.9546712e-6
-0.050, 1.4871405e-6, 1.9295228e-6
-0.051, 1.4738160e-6, 1.9247570e-6
-0.052, 1.5043405e-6, 1.9123395e-6
-0.053, 1.4728266e-6, 1.9182432e-6
-0.054, 1.5046044e-6, 1.9400768e-6
-0.055, 1.4568634e-6, 1.9405056e-6
-0.056, 1.4924342e-6, 1.9500703e-6
-0.057, 1.4992613e-6, 1.9556608e-6
-0.058, 1.4788621e-6, 1.9102945e-6
-0.059, 1.5037303e-6, 1.9116303e-6
-0.060, 1.4679617e-6, 1.9495096e-6
-0.061, 1.4963919e-6, 1.9480749e-6
-0.062, 1.4655376e-6, 1.9535498e-6
-0.063, 1.4965733e-6, 1.9545064e-6
-0.064, 1.4928958e-6, 1.9571614e-6
-0.065, 1.4751023e-6, 1.9194799e-6
-0.066, 1.5057752e-6, 1.8713763e-6
-0.067, 1.4575230e-6, 1.9165939e-6
-0.068, 1.4885422e-6, 1.9532697e-6
-0.069, 1.4855409e-6, 1.9572769e-6
-0.070, 1.4666921e-6, 1.9671713e-6
-0.071, 1.5111842e-6, 1.9186718e-6
-0.072, 1.4524439e-6, 1.9380486e-6
-0.073, 1.4936875e-6, 1.9062873e-6
-0.074, 1.4631794e-6, 1.8890049e-6
-0.075, 1.4850298e-6, 1.9318313e-6
-0.076, 1.4911313e-6, 1.9547867e-6
-0.077, 1.4567150e-6, 1.9759113e-6
-0.078, 1.4952046e-6, 1.9448594e-6
-0.079, 1.4553134e-6, 1.9270988e-6
-0.080, 1.4888886e-6, 1.9646482e-6
-0.081, 1.4618106e-6, 1.9186555e-6
-0.082, 1.4713919e-6, 1.9272636e-6
-0.083, 1.4884763e-6, 1.9577551e-6
-0.084, 1.4556431e-6, 1.9693975e-6
-0.085, 1.4927474e-6, 1.9610534e-6
-0.086, 1.4554288e-6, 1.9360202e-6
-0.087, 1.4943964e-6, 1.9016205e-6
-0.088, 1.4802804e-6, 1.9318809e-6
-0.089, 1.4806596e-6, 1.9442325e-6
-0.090, 1.4812204e-6, 1.9519503e-6
-0.091, 1.4456991e-6, 1.9751694e-6
-0.092, 1.4938853e-6, 1.9840579e-6
-0.093, 1.4684069e-6, 1.9445461e-6
-0.094, 1.4875363e-6, 1.9172867e-6
-0.095, 1.4911643e-6, 1.9170063e-6
-0.096, 1.4527902e-6, 1.9308586e-6
-0.097, 1.4906366e-6, 1.9521976e-6
-0.098, 1.4553792e-6, 1.9729432e-6
-0.099, 1.4801155e-6, 1.9882630e-6
-0.100, 1.4808576e-6, 1.9770657e-6
-0.101, 1.4602441e-6, 1.9390709e-6
-0.102, 1.4828860e-6, 1.9066665e-6
-0.103, 1.4517184e-6, 1.9127847e-6
-0.104, 1.4948253e-6, 1.9845693e-6
-0.105, 1.4672527e-6, 1.9776101e-6
-0.106, 1.4638226e-6, 2.0000871e-6
-0.107, 1.4893998e-6, 1.9900110e-6
-0.108, 1.4651913e-6, 1.9498725e-6
-0.109, 1.5028893e-6, 1.9371910e-6
-0.110, 1.4456498e-6, 1.9463268e-6
-0.111, 1.4867283e-6, 1.9777419e-6
-0.112, 1.4811378e-6, 1.9968218e-6
-0.113, 1.4734696e-6, 1.9988006e-6
-0.114, 1.5017845e-6, 2.0128673e-6
-0.115, 1.4582322e-6, 1.9598165e-6
-0.116, 1.5085457e-6, 1.9954696e-6
-0.117, 1.4710621e-6, 1.9237675e-6
-0.118, 1.4936710e-6, 1.9797703e-6
-0.119, 1.4999209e-6, 2.0069306e-6
-0.120, 1.4616128e-6, 1.9863996e-6
-0.121, 1.4900430e-6, 2.0069967e-6
-0.122, 1.4546042e-6, 1.9676165e-6
-0.123, 1.4874208e-6, 2.0021153e-6
-0.124, 1.4870416e-6, 1.9460961e-6
-0.125, 1.4820284e-6, 1.9730915e-6
-0.126, 1.5097989e-6, 2.0148627e-6
-0.127, 1.4545053e-6, 2.0047044e-6
-0.128, 1.4861675e-6, 2.0263569e-6
-0.129, 1.4574571e-6, 1.9869274e-6
-0.130, 1.5006794e-6, 1.9970691e-6
-0.131, 1.5026419e-6, 1.9699582e-6
-0.132, 1.4591062e-6, 1.9655388e-6
-0.133, 1.5088259e-6, 1.9915612e-6
-0.134, 1.4543568e-6, 2.0205850e-6
-0.135, 1.4947759e-6, 2.0723496e-6
-0.136, 1.4767679e-6, 2.0121252e-6
-0.137, 1.4846174e-6, 1.9968711e-6
-0.138, 1.5105741e-6, 1.9968547e-6
-0.139, 1.4665270e-6, 1.9548197e-6
-0.140, 1.4935060e-6, 2.0342889e-6
-0.141, 1.4622560e-6, 2.0144671e-6
-0.142, 1.5014546e-6, 2.0478774e-6
-0.143, 1.5143835e-6, 2.0665118e-6
-0.144, 1.4859532e-6, 2.0072275e-6
-0.145, 1.5074736e-6, 2.0148627e-6
-0.146, 1.4604419e-6, 1.9799186e-6
-0.147, 1.5127673e-6, 2.0482403e-6
-0.148, 1.4597329e-6, 2.0466900e-6
-0.149, 1.4747890e-6, 2.0263240e-6
-0.150, 1.5039116e-6, 2.0857733e-6
-0.151, 1.4614809e-6, 2.0415284e-6
-0.152, 1.5022461e-6, 2.0545892e-6
-0.153, 1.4677144e-6, 1.9707334e-6
-0.154, 1.5032026e-6, 2.0464263e-6
-0.155, 1.4929619e-6, 2.0882139e-6
-0.156, 1.4809896e-6, 2.0674847e-6
-0.157, 1.4989810e-6, 2.1037317e-6
-0.158, 1.4727441e-6, 2.0506807e-6
-0.159, 1.5110028e-6, 2.0751531e-6
-0.160, 1.4890700e-6, 2.0362183e-6
-0.161, 1.4903069e-6, 2.0534676e-6
-0.162, 1.5144658e-6, 2.1002193e-6
-0.163, 1.4651748e-6, 2.0817824e-6
-0.164, 1.5181267e-6, 2.1290616e-6
-0.165, 1.4670713e-6, 2.1073101e-6
-0.166, 1.5037963e-6, 2.0894506e-6
-0.167, 1.5080344e-6, 2.1074090e-6
-0.168, 1.4923517e-6, 2.0212776e-6
-0.169, 1.5178960e-6, 2.1169078e-6
-0.170, 1.4756135e-6, 2.0868288e-6
-0.171, 1.5296208e-6, 2.1304963e-6
-0.172, 1.4930608e-6, 2.1227290e-6
-0.173, 1.4908015e-6, 2.0847012e-6
-0.174, 1.5307917e-6, 2.1361691e-6
-0.175, 1.4875693e-6, 2.0398793e-6
-0.176, 1.5197429e-6, 2.1256810e-6
-0.177, 1.4733872e-6, 2.1263077e-6
-0.178, 1.5128992e-6, 2.1545234e-6
-0.179, 1.5081168e-6, 2.1749554e-6
-0.180, 1.5006631e-6, 2.1008786e-6
-0.181, 1.5261908e-6, 2.1505984e-6
-0.182, 1.4845516e-6, 2.1083820e-6
-0.183, 1.5289777e-6, 2.1058754e-6
-0.184, 1.4925990e-6, 2.1384612e-6
-0.185, 1.5263722e-6, 2.1788474e-6
-0.186, 1.5157686e-6, 2.2370268e-6
-0.187, 1.4849472e-6, 2.1450246e-6
-0.188, 1.5450562e-6, 2.1534515e-6
-0.189, 1.4966722e-6, 2.1364494e-6
-0.190, 1.5238986e-6, 2.1471355e-6
-0.191, 1.5178300e-6, 2.1981086e-6
-0.192, 1.4928135e-6, 2.1649125e-6
-0.193, 1.5453202e-6, 2.2063209e-6
-0.194, 1.4880476e-6, 2.2025774e-6
-0.195, 1.5398782e-6, 2.1888243e-6
-0.196, 1.5063192e-6, 2.1962287e-6
-0.197, 1.5184237e-6, 2.1404733e-6
-0.198, 1.5351617e-6, 2.2431943e-6
-0.199, 1.5009268e-6, 2.2080030e-6
-0.200, 1.5416756e-6, 2.2206516e-6
-0.201, 1.4943471e-6, 2.2383131e-6
-0.202, 1.5366459e-6, 2.2249392e-6
-0.203, 1.5018999e-6, 2.2417266e-6
-0.204, 1.5200562e-6, 2.1551500e-6
-0.205, 1.5337600e-6, 2.2619938e-6
-0.206, 1.4978925e-6, 2.2565519e-6
-0.207, 1.5331334e-6, 2.2842564e-6
-0.208, 1.4940832e-6, 2.2978120e-6
-0.209, 1.5328530e-6, 2.2837453e-6
-0.210, 1.5324408e-6, 2.2988509e-6
-0.211, 1.5252674e-6, 2.2289958e-6
-0.212, 1.5408347e-6, 2.2518684e-6
-0.213, 1.5137239e-6, 2.2887089e-6
-0.214, 1.5384435e-6, 2.2992961e-6
-0.215, 1.5224639e-6, 2.3683597e-6
-0.216, 1.5247560e-6, 2.3083990e-6
-0.217, 1.5491790e-6, 2.3409189e-6
-0.218, 1.5044889e-6, 2.3143521e-6
-0.219, 1.5500530e-6, 2.2699755e-6
-0.220, 1.5152078e-6, 2.3207508e-6
-0.221, 1.5335786e-6, 2.3216082e-6
-0.222, 1.5475298e-6, 2.4015721e-6
-0.223, 1.5271472e-6, 2.3517532e-6
-0.224, 1.5535161e-6, 2.3529735e-6
-0.225, 1.5144823e-6, 2.3660509e-6
-0.226, 1.5643504e-6, 2.3266214e-6
-0.227, 1.5372561e-6, 2.3809750e-6
-0.228, 1.5253332e-6, 2.3807606e-6
-0.229, 1.5677311e-6, 2.4365986e-6
-0.230, 1.5260423e-6, 2.4245767e-6
-0.231, 1.5665273e-6, 2.3979769e-6
-0.232, 1.5096834e-6, 2.3918260e-6
-0.233, 1.5552641e-6, 2.3798702e-6
-0.234, 1.5551157e-6, 2.3917105e-6
-0.235, 1.5311216e-6, 2.4137423e-6
-0.236, 1.5554785e-6, 2.4601472e-6
-0.237, 1.5244098e-6, 2.4899628e-6
-0.238, 1.5724638e-6, 2.4492306e-6
-0.239, 1.5485523e-6, 2.4605597e-6
-0.240, 1.5646309e-6, 2.4292272e-6
-0.241, 1.5798520e-6, 2.4550022e-6
-0.242, 1.5411809e-6, 2.4762589e-6
-0.243, 1.5646638e-6, 2.4822616e-6
-0.244, 1.5419230e-6, 2.5103948e-6
-0.245, 1.5676982e-6, 2.5491977e-6
-0.246, 1.5660655e-6, 2.5157708e-6
-0.247, 1.5514051e-6, 2.4954047e-6
-0.248, 1.5873552e-6, 2.4833334e-6
-0.249, 1.5368769e-6, 2.5317174e-6
-0.250, 1.5747892e-6, 2.5486536e-6
-0.251, 1.5488325e-6, 2.5742306e-6
-0.252, 1.5797199e-6, 2.5803488e-6
-0.253, 1.5799178e-6, 2.5956851e-6
-0.254, 1.5404223e-6, 2.5700915e-6
-0.255, 1.5903729e-6, 2.5143527e-6
-0.256, 1.5420385e-6, 2.5978786e-6
-0.257, 1.5827213e-6, 2.6310747e-6
-0.258, 1.5619099e-6, 2.6575588e-6
-0.259, 1.5569792e-6, 2.6554810e-6
-0.260, 1.5930279e-6, 2.6780237e-6
-0.261, 1.5509929e-6, 2.6468892e-6
-0.262, 1.5825068e-6, 2.6279083e-6
-0.263, 1.5458643e-6, 2.6460318e-6
-0.264, 1.5829851e-6, 2.6700259e-6
-0.265, 1.5818968e-6, 2.7134461e-6
-0.266, 1.5628002e-6, 2.7152271e-6
-0.267, 1.5843539e-6, 2.7173214e-6
-0.268, 1.5578861e-6, 2.7031392e-6
-0.269, 1.5934238e-6, 2.6860548e-6
-0.270, 1.5659996e-6, 2.6917771e-6
-0.271, 1.5630147e-6, 2.7014573e-6
-0.272, 1.5795551e-6, 2.7605438e-6
-0.273, 1.5507126e-6, 2.7947294e-6
-0.274, 1.5788295e-6, 2.7829055e-6
-0.275, 1.5500034e-6, 2.7719884e-6
-0.276, 1.5790274e-6, 2.7695971e-6
-0.277, 1.5698915e-6, 2.7748742e-6
-0.278, 1.5650267e-6, 2.7756989e-6
-0.279, 1.5719527e-6, 2.7903757e-6
-0.280, 1.5403234e-6, 2.8625229e-6
-0.281, 1.5778894e-6, 2.8699440e-6
-0.282, 1.5560061e-6, 2.8504846e-6
-0.283, 1.5536150e-6, 2.8364675e-6
-0.284, 1.5800662e-6, 2.8126053e-6
-0.285, 1.5472991e-6, 2.8526615e-6
-0.286, 1.5768176e-6, 2.8803329e-6
-0.287, 1.5297032e-6, 2.8939710e-6
-0.288, 1.5580181e-6, 2.9201087e-6
-0.289, 1.5774112e-6, 2.9308444e-6
-0.290, 1.5498550e-6, 2.8739346e-6
-0.291, 1.5790603e-6, 2.8791128e-6
-0.292, 1.5390701e-6, 2.9151283e-6
-0.293, 1.5761909e-6, 2.9446305e-6
-0.294, 1.5525266e-6, 2.9568337e-6
-0.295, 1.5466558e-6, 2.9628200e-6
-0.296, 1.5753168e-6, 2.9920579e-6
-0.297, 1.5348483e-6, 2.9428991e-6
-0.298, 1.5702212e-6, 2.9074770e-6
-0.299, 1.5278069e-6, 2.9459663e-6
-0.300, 1.5464250e-6, 3.0126553e-6
-0.301, 1.5547198e-6, 3.0377214e-6
-0.302, 1.5282521e-6, 3.0328729e-6
-0.303, 1.5612502e-6, 3.0405743e-6
-0.304, 1.5223650e-6, 3.0336810e-6
-0.305, 1.5597990e-6, 2.9895518e-6
-0.306, 1.5196274e-6, 3.0038327e-6
-0.307, 1.5508940e-6, 3.0424212e-6
-0.308, 1.5593703e-6, 3.1205875e-6
-0.309, 1.5217217e-6, 3.1030249e-6
-0.310, 1.5635095e-6, 3.0548388e-6
-0.311, 1.5131795e-6, 3.0893373e-6
-0.312, 1.5474309e-6, 3.0568010e-6
-0.313, 1.5402904e-6, 3.0885458e-6
-0.314, 1.5139875e-6, 3.0809108e-6
-0.315, 1.5488491e-6, 3.1541463e-6
-0.316, 1.5166097e-6, 3.1647833e-6
-0.317, 1.5431928e-6, 3.1337308e-6
-0.318, 1.5081664e-6, 3.1398654e-6
-0.319, 1.5339250e-6, 3.0934107e-6
-0.320, 1.5417417e-6, 3.1499085e-6
-0.321, 1.5101123e-6, 3.1606601e-6
-0.322, 1.5361513e-6, 3.1819500e-6
-0.323, 1.4942316e-6, 3.2427515e-6
-0.324, 1.5445780e-6, 3.2358585e-6
-0.325, 1.5087929e-6, 3.2185267e-6
-0.326, 1.5201553e-6, 3.1213790e-6
-0.327, 1.5347331e-6, 3.1740178e-6
-0.328, 1.4906532e-6, 3.2263265e-6
-0.329, 1.5280214e-6, 3.2500075e-6
-0.330, 1.4929124e-6, 3.2865837e-6
-0.331, 1.5174342e-6, 3.2329722e-6
-0.332, 1.5263392e-6, 3.2980283e-6
-0.333, 1.5114151e-6, 3.2250073e-6
-0.334, 1.5164449e-6, 3.1985064e-6
-0.335, 1.4863325e-6, 3.2860235e-6
-0.336, 1.5151254e-6, 3.2990015e-6
-0.337, 1.5097824e-6, 3.3639424e-6
-0.338, 1.5042910e-6, 3.3039653e-6
-0.339, 1.5270482e-6, 3.3485730e-6
-0.340, 1.4845515e-6, 3.2710495e-6
-0.341, 1.5307917e-6, 3.2534704e-6
-0.342, 1.4762732e-6, 3.3238039e-6
-0.343, 1.5118933e-6, 3.3151955e-6
-0.344, 1.5255806e-6, 3.4477980e-6
-0.345, 1.4964083e-6, 3.3059937e-6
-0.346, 1.5360853e-6, 3.3402780e-6
-0.347, 1.4809895e-6, 3.3149481e-6
-0.348, 1.5258280e-6, 3.3041135e-6
-0.349, 1.4942975e-6, 3.3741171e-6
-0.350, 1.4851452e-6, 3.3574943e-6
-0.351, 1.5260754e-6, 3.4573959e-6
-0.352, 1.4894987e-6, 3.3662673e-6
-0.353, 1.5208147e-6, 3.3683452e-6
-0.354, 1.4698747e-6, 3.3276624e-6
-0.355, 1.5067151e-6, 3.3346382e-6
-0.356, 1.5107553e-6, 3.4126729e-6
-0.357, 1.4868932e-6, 3.3345887e-6
-0.358, 1.5235523e-6, 3.4481443e-6
-0.359, 1.4771472e-6, 3.3743149e-6
-0.360, 1.5153068e-6, 3.3879528e-6
-0.361, 1.4932091e-6, 3.3518547e-6
-0.362, 1.5170383e-6, 3.3033386e-6
-0.363, 1.5209466e-6, 3.4115842e-6
-0.364, 1.4813523e-6, 3.3834840e-6
-0.365, 1.5194130e-6, 3.4118812e-6
-0.366, 1.4780541e-6, 3.3847207e-6
-0.367, 1.5175660e-6, 3.3895690e-6
-0.368, 1.5137402e-6, 3.3444996e-6
-0.369, 1.4943305e-6, 3.2884968e-6
-0.370, 1.5235523e-6, 3.3752385e-6
-0.371, 1.4616952e-6, 3.3782235e-6
-0.372, 1.5243768e-6, 3.4272505e-6
-0.373, 1.4797033e-6, 3.3541633e-6
-0.374, 1.5056928e-6, 3.3266072e-6
-0.375, 1.5144162e-6, 3.3456211e-6
-0.376, 1.4768174e-6, 3.2717917e-6
-0.377, 1.5187863e-6, 3.3209342e-6
-0.378, 1.4612501e-6, 3.3498427e-6
-0.379, 1.5205180e-6, 3.3889257e-6
-0.380, 1.4897626e-6, 3.3700769e-6
-0.381, 1.4861511e-6, 3.2851328e-6
-0.382, 1.5166756e-6, 3.2707858e-6
-0.383, 1.4788623e-6, 3.2588794e-6
-0.384, 1.5110191e-6, 3.3002548e-6
-0.385, 1.4659663e-6, 3.2819664e-6
-0.386, 1.5180609e-6, 3.3187739e-6
-0.387, 1.5091888e-6, 3.3021347e-6
-0.388, 1.4952541e-6, 3.2427022e-6
-0.389, 1.5080344e-6, 3.1789157e-6
-0.390, 1.4748384e-6, 3.1847203e-6
-0.391, 1.5216558e-6, 3.2298722e-6
-0.392, 1.4839413e-6, 3.2523985e-6
-0.393, 1.4964414e-6, 3.2155415e-6
-0.394, 1.5125365e-6, 3.2236221e-6
-0.395, 1.4689512e-6, 3.1770192e-6
-0.396, 1.5247726e-6, 3.1053005e-6
-0.397, 1.4748055e-6, 3.0919593e-6
-0.398, 1.4937698e-6, 3.1420914e-6
-0.399, 1.5118108e-6, 3.1739353e-6
-0.400, 1.4877178e-6, 3.1435593e-6
-0.401, 1.5091393e-6, 3.0826259e-6
-0.402, 1.4844526e-6, 3.0749575e-6
-0.403, 1.5177804e-6, 3.0199772e-6
-0.404, 1.4960622e-6, 3.0484237e-6
-0.405, 1.4914613e-6, 3.0080707e-6
-0.406, 1.5162798e-6, 3.0607755e-6
-0.407, 1.4837599e-6, 3.0314218e-6
-0.408, 1.5245087e-6, 2.9778926e-6
-0.409, 1.4752343e-6, 2.9569492e-6
-0.410, 1.5119757e-6, 2.8913159e-6
-0.411, 1.5175660e-6, 2.9299867e-6
-0.412, 1.4868601e-6, 2.8887928e-6
-0.413, 1.5182586e-6, 2.9458015e-6
-0.414, 1.4849802e-6, 2.9334994e-6
-0.415, 1.5274605e-6, 2.8564048e-6
-0.416, 1.5028069e-6, 2.8360553e-6
-0.417, 1.5102275e-6, 2.7697456e-6
-0.418, 1.5287469e-6, 2.8343566e-6
-0.419, 1.4906202e-6, 2.7685255e-6
-0.420, 1.5276090e-6, 2.7979286e-6
-0.421, 1.4878663e-6, 2.7762596e-6
-0.422, 1.5153563e-6, 2.7607912e-6
-0.423, 1.5214250e-6, 2.7332846e-6
-0.424, 1.5028893e-6, 2.6226478e-6
-0.425, 1.5284005e-6, 2.6837790e-6
-0.426, 1.4808246e-6, 2.6678658e-6
-0.427, 1.5183741e-6, 2.6764735e-6
-0.428, 1.4917745e-6, 2.6822950e-6
-0.429, 1.5268339e-6, 2.6000716e-6
-0.430, 1.5350464e-6, 2.6343562e-6
-0.431, 1.4929618e-6, 2.5317011e-6
-0.432, 1.5426485e-6, 2.5443826e-6
-0.433, 1.4809236e-6, 2.5535678e-6
-0.434, 1.5174671e-6, 2.5893530e-6
-0.435, 1.5053794e-6, 2.5818331e-6
-0.436, 1.5018668e-6, 2.4833664e-6
-0.437, 1.5393505e-6, 2.5002532e-6
-0.438, 1.4897626e-6, 2.4249559e-6
-0.439, 1.5413458e-6, 2.4601475e-6
-0.440, 1.4800660e-6, 2.4538479e-6
-0.441, 1.5162964e-6, 2.4621590e-6
-0.442, 1.5292582e-6, 2.5121099e-6
-0.443, 1.5038293e-6, 2.3918919e-6
-0.444, 1.5367284e-6, 2.3891710e-6
-0.445, 1.4813522e-6, 2.3405560e-6
-0.446, 1.5470680e-6, 2.3889236e-6
-0.447, 1.5008444e-6, 2.3857574e-6
-0.448, 1.5045714e-6, 2.3490488e-6
-0.449, 1.5274771e-6, 2.3973339e-6
-0.450, 1.4865469e-6, 2.3315686e-6
-0.451, 1.5322757e-6, 2.3447942e-6
-0.452, 1.4968537e-6, 2.2738507e-6
-0.453, 1.5277903e-6, 2.2981583e-6
-0.454, 1.5114315e-6, 2.3521161e-6
-0.455, 1.5145813e-6, 2.3135608e-6
-0.456, 1.5274441e-6, 2.3139401e-6
-0.457, 1.4980410e-6, 2.2896654e-6
-0.458, 1.5320945e-6, 2.2884781e-6
-0.459, 1.5105245e-6, 2.2314530e-6
-0.460, 1.5268340e-6, 2.2649788e-6
-0.461, 1.5409501e-6, 2.2907375e-6
-0.462, 1.4932752e-6, 2.2731417e-6
-0.463, 1.5351948e-6, 2.2807606e-6
-0.464, 1.4935060e-6, 2.2434253e-6
-0.465, 1.5264877e-6, 2.2382801e-6
-0.466, 1.5364647e-6, 2.2141210e-6
-0.467, 1.5211776e-6, 2.2029403e-6
-0.468, 1.5366954e-6, 2.2396985e-6
-0.469, 1.5108049e-6, 2.2298202e-6
-0.470, 1.5479752e-6, 2.2632471e-6
-0.471, 1.5159499e-6, 2.2154072e-6
-0.472, 1.5101123e-6, 2.2074919e-6
-0.473, 1.5444461e-6, 2.1932603e-6
-0.474, 1.5062865e-6, 2.1947278e-6
-0.475, 1.5436710e-6, 2.2044246e-6
-0.476, 1.5035159e-6, 2.2228446e-6
-0.477, 1.5214249e-6, 2.2341737e-6
-0.478, 1.5306268e-6, 2.2031713e-6
-0.479, 1.5210126e-6, 2.1626370e-6
-0.480, 1.5511414e-6, 2.1638571e-6
-0.481, 1.5096668e-6, 2.2081515e-6
-0.482, 1.5361841e-6, 2.1970695e-6
-0.483, 1.5181599e-6, 2.2155064e-6
-0.484, 1.5391360e-6, 2.2183756e-6
-0.485, 1.5426981e-6, 2.2122413e-6
-0.486, 1.5139710e-6, 2.1703709e-6
-0.487, 1.5436876e-6, 2.1289957e-6
-0.488, 1.5184237e-6, 2.1691012e-6
-0.489, 1.5384104e-6, 2.1983890e-6
-0.490, 1.5446769e-6, 2.2409022e-6
-0.491, 1.5242119e-6, 2.1781216e-6
-0.492, 1.5602113e-6, 2.1653414e-6
-0.493, 1.5052970e-6, 2.1685735e-6
-0.494, 1.5575233e-6, 2.1254336e-6
-0.495, 1.5190997e-6, 2.1658855e-6
-0.496, 1.5331664e-6, 2.1514561e-6
-0.497, 1.5508774e-6, 2.2223171e-6
-0.498, 1.5132456e-6, 2.1872411e-6
-0.499, 1.5597989e-6, 2.1448764e-6
-0.500, 1.5064348e-6, 2.1764727e-6
