Jan. 27, 2006   23:27:10
Cyclic Voltammetry
File: z:\users\scottsaunders\git\labwork\ida\01_17_19_psoralen_nonequil_2\data\psoralen\0um_psoralen_transfer_gc_1.txt
Data Source:  Experiment
Instrument Model:  CHI760E
Header: 
Note: 

Init E (V) = 0
High E (V) = 0
Low E (V) = -0.4
Init P/N = N
Scan Rate (V/s) = 0.003
Segment = 1
Sample Interval (V) = 0.001
Quiet Time (sec) = 2
Sensitivity (A/V) = 1e-7
2nd E (V) = 0.1
Sens 2 (A/V) = 1e-7

Potential/V, i1/A, i2/A, Time/s

0.000, -2.4357895e-8, -6.4356712e-8, 3.3333334e-1
-0.001, -1.9443725e-8, -5.7211214e-8, 6.6666669e-1
-0.002, -1.6869540e-8, -5.1671122e-8, 1.0000000e+0
-0.003, -1.4860010e-8, -4.7244793e-8, 1.3333334e+0
-0.004, -1.3192151e-8, -4.3595048e-8, 1.6666667e+0
-0.005, -1.1833726e-8, -4.0546499e-8, 2.0000000e+0
-0.006, -1.0620093e-8, -3.7939611e-8, 2.3333333e+0
-0.007, -9.5836175e-9, -3.5700385e-8, 2.6666665e+0
-0.008, -8.6901633e-9, -3.3753903e-8, 2.9999998e+0
-0.009, -7.8543456e-9, -3.2027714e-8, 3.3333330e+0
-0.010, -7.1601325e-9, -3.0490501e-8, 3.6666663e+0
-0.011, -6.4825731e-9, -2.9108223e-8, 3.9999995e+0
-0.012, -5.8800089e-9, -2.7872259e-8, 4.3333330e+0
-0.013, -5.3757065e-9, -2.6752117e-8, 4.6666665e+0
-0.014, -4.8601847e-9, -2.5724864e-8, 5.0000000e+0
-0.015, -4.3880068e-9, -2.4790154e-8, 5.3333335e+0
-0.016, -3.9884624e-9, -2.3932023e-8, 5.6666670e+0
-0.017, -3.5800607e-9, -2.3137947e-8, 6.0000005e+0
-0.018, -3.2338991e-9, -2.2395163e-8, 6.3333340e+0
-0.019, -2.8840763e-9, -2.1714307e-8, 6.6666675e+0
-0.020, -2.5445290e-9, -2.1070324e-8, 7.0000010e+0
-0.021, -2.2659228e-9, -2.0483188e-8, 7.3333344e+0
-0.022, -1.9770414e-9, -1.9923826e-8, 7.6666679e+0
-0.023, -1.6925301e-9, -1.9398973e-8, 8.0000010e+0
-0.024, -1.4545515e-9, -1.8915838e-8, 8.3333340e+0
-0.025, -1.1883461e-9, -1.8457285e-8, 8.6666670e+0
-0.026, -9.8993214e-10, -1.8021899e-8, 9.0000000e+0
-0.027, -7.5655965e-10, -1.7603057e-8, 9.3333330e+0
-0.028, -5.2732069e-10, -1.7207379e-8, 9.6666660e+0
-0.029, -3.6020420e-10, -1.6831908e-8, 9.9999990e+0
-0.030, -1.5352301e-10, -1.6474758e-8, 1.0333332e+1
-0.031, 2.7411585e-11, -1.6135806e-8, 1.0666665e+1
-0.032, 2.0255912e-10, -1.5819074e-8, 1.0999998e+1
-0.033, 3.8526526e-10, -1.5507306e-8, 1.1333331e+1
-0.034, 5.2616278e-10, -1.5205231e-8, 1.1666664e+1
-0.035, 6.7001288e-10, -1.4918752e-8, 1.1999997e+1
-0.036, 8.4067242e-10, -1.4644329e-8, 1.2333330e+1
-0.037, 9.6243713e-10, -1.4387399e-8, 1.2666663e+1
-0.038, 1.1071140e-9, -1.4139331e-8, 1.2999996e+1
-0.039, 1.2448227e-9, -1.3892446e-8, 1.3333329e+1
-0.040, 1.3626901e-9, -1.3665534e-8, 1.3666662e+1
-0.041, 1.5033513e-9, -1.3446303e-8, 1.3999995e+1
-0.042, 1.5973617e-9, -1.3228965e-8, 1.4333328e+1
-0.043, 1.7226695e-9, -1.3020724e-8, 1.4666661e+1
-0.044, 1.8946282e-9, -1.2825604e-8, 1.4999994e+1
-0.045, 1.9754112e-9, -1.2627765e-8, 1.5333327e+1
-0.046, 2.0585560e-9, -1.2452617e-8, 1.5666660e+1
-0.047, 2.1518578e-9, -1.2276405e-8, 1.5999993e+1
-0.048, 2.2285072e-9, -1.2100074e-8, 1.6333326e+1
-0.049, 2.3407054e-9, -1.1936627e-8, 1.6666660e+1
-0.050, 2.4097959e-9, -1.1774360e-8, 1.6999994e+1
-0.051, 2.4996727e-9, -1.1622613e-8, 1.7333328e+1
-0.052, 2.6038400e-9, -1.1473938e-8, 1.7666662e+1
-0.053, 2.6530893e-9, -1.1327153e-8, 1.7999996e+1
-0.054, 2.7491074e-9, -1.1189352e-8, 1.8333330e+1
-0.055, 2.8292997e-9, -1.1047177e-8, 1.8666664e+1
-0.056, 2.9006342e-9, -1.0912212e-8, 1.8999998e+1
-0.057, 2.9955893e-9, -1.0781618e-8, 1.9333332e+1
-0.058, 3.0510978e-9, -1.0653271e-8, 1.9666666e+1
-0.059, 3.1204246e-9, -1.0530715e-8, 2.0000000e+1
-0.060, 3.2030973e-9, -1.0408513e-8, 2.0333334e+1
-0.061, 3.2346308e-9, -1.0293166e-8, 2.0666668e+1
-0.062, 3.3248622e-9, -1.0180655e-8, 2.1000002e+1
-0.063, 3.3882839e-9, -1.0068499e-8, 2.1333336e+1
-0.064, 3.4362340e-9, -9.9654427e-9, 2.1666670e+1
-0.065, 3.5217405e-9, -9.8662873e-9, 2.2000004e+1
-0.066, 3.5687457e-9, -9.7645305e-9, 2.2333338e+1
-0.067, 3.6223646e-9, -9.6528483e-9, 2.2666672e+1
-0.068, 3.6732675e-9, -9.5669277e-9, 2.3000006e+1
-0.069, 3.7154302e-9, -9.4719095e-9, 2.3333340e+1
-0.070, 3.7799150e-9, -9.3829167e-9, 2.3666674e+1
-0.071, 3.8406203e-9, -9.2906145e-9, 2.4000008e+1
-0.072, 3.8833736e-9, -9.2056407e-9, 2.4333342e+1
-0.073, 3.9512829e-9, -9.1151122e-9, 2.4666676e+1
-0.074, 3.9878953e-9, -9.0334478e-9, 2.5000010e+1
-0.075, 4.0354911e-9, -8.9496552e-9, 2.5333344e+1
-0.076, 4.0894643e-9, -8.8715364e-9, 2.5666677e+1
-0.077, 4.0999750e-9, -8.7980263e-9, 2.6000011e+1
-0.078, 4.1583190e-9, -8.7251069e-9, 2.6333345e+1
-0.079, 4.2135913e-9, -8.6448599e-9, 2.6666679e+1
-0.080, 4.2357948e-9, -8.5759586e-9, 2.7000013e+1
-0.081, 4.3116168e-9, -8.5045766e-9, 2.7333347e+1
-0.082, 4.3328754e-9, -8.4308294e-9, 2.7666681e+1
-0.083, 4.3811799e-9, -8.3624014e-9, 2.8000015e+1
-0.084, 4.4402317e-9, -8.2992910e-9, 2.8333349e+1
-0.085, 4.4605457e-9, -8.2335818e-9, 2.8666683e+1
-0.086, 4.5012913e-9, -8.1639708e-9, 2.9000017e+1
-0.087, 4.5559734e-9, -8.1081879e-9, 2.9333351e+1
-0.088, 4.5792397e-9, -8.0385787e-9, 2.9666685e+1
-0.089, 4.6214028e-9, -7.9849229e-9, 3.0000019e+1
-0.090, 4.6466764e-9, -7.9248856e-9, 3.0333353e+1
-0.091, 4.6594320e-9, -7.8636671e-9, 3.0666687e+1
-0.092, 4.7082085e-9, -7.8211206e-9, 3.1000021e+1
-0.093, 4.7276960e-9, -7.7583646e-9, 3.1333355e+1
-0.094, 4.7796611e-9, -7.7047098e-9, 3.1666689e+1
-0.095, 4.8247766e-9, -7.6441999e-9, 3.2000023e+1
-0.096, 4.8639870e-9, -7.6021260e-9, 3.2333355e+1
-0.097, 4.9661470e-9, -7.5153803e-9, 3.2666687e+1
-0.098, 4.8316267e-9, -7.4981239e-9, 3.3000019e+1
-0.099, 4.9109921e-9, -7.4525062e-9, 3.3333351e+1
-0.100, 4.9741775e-9, -7.3948323e-9, 3.3666683e+1
-0.101, 5.0011053e-9, -7.3469675e-9, 3.4000015e+1
-0.102, 5.0588578e-9, -7.3034765e-9, 3.4333347e+1
-0.103, 5.0854316e-9, -7.2540760e-9, 3.4666679e+1
-0.104, 5.0953521e-9, -7.2073929e-9, 3.5000011e+1
-0.105, 5.1392863e-9, -7.1614190e-9, 3.5333344e+1
-0.106, 5.1448370e-9, -7.1191102e-9, 3.5666676e+1
-0.107, 5.1841660e-9, -7.0753821e-9, 3.6000008e+1
-0.108, 5.2288085e-9, -7.0330723e-9, 3.6333340e+1
-0.109, 5.2347144e-9, -6.9920629e-9, 3.6666672e+1
-0.110, 5.2795932e-9, -6.9343886e-9, 3.7000004e+1
-0.111, 5.2823101e-9, -6.9034258e-9, 3.7333336e+1
-0.112, 5.2969544e-9, -6.8627699e-9, 3.7666668e+1
-0.113, 5.3613207e-9, -6.8214052e-9, 3.8000000e+1
-0.114, 5.3689977e-9, -6.7811059e-9, 3.8333332e+1
-0.115, 5.3978151e-9, -6.7451777e-9, 3.8666664e+1
-0.116, 5.4478906e-9, -6.7049952e-9, 3.8999996e+1
-0.117, 5.4571028e-9, -6.6678854e-9, 3.9333328e+1
-0.118, 5.4875735e-9, -6.6312480e-9, 3.9666660e+1
-0.119, 5.5208789e-9, -6.5968568e-9, 3.9999992e+1
-0.120, 5.5358780e-9, -6.5593930e-9, 4.0333324e+1
-0.121, 5.5926859e-9, -6.5258279e-9, 4.0666656e+1
-0.122, 5.5991816e-9, -6.4889552e-9, 4.0999989e+1
-0.123, 5.6251643e-9, -6.4550365e-9, 4.1333321e+1
-0.124, 5.6711067e-9, -6.4246635e-9, 4.1666653e+1
-0.125, 5.6663825e-9, -6.3923995e-9, 4.1999985e+1
-0.126, 5.7077183e-9, -6.3576535e-9, 4.2333317e+1
-0.127, 5.7385439e-9, -6.3309438e-9, 4.2666649e+1
-0.128, 5.7508265e-9, -6.2951342e-9, 4.2999981e+1
-0.129, 5.7945244e-9, -6.2625154e-9, 4.3333313e+1
-0.130, 5.8039729e-9, -6.2340333e-9, 4.3666645e+1
-0.131, 5.8332628e-9, -6.2030692e-9, 4.3999977e+1
-0.132, 5.8787326e-9, -6.1730505e-9, 4.4333309e+1
-0.133, 5.8845200e-9, -6.1456324e-9, 4.4666641e+1
-0.134, 5.9217222e-9, -6.1222321e-9, 4.4999973e+1
-0.135, 5.9556178e-9, -6.0890222e-9, 4.5333305e+1
-0.136, 5.9693179e-9, -6.0572307e-9, 4.5666637e+1
-0.137, 6.0152607e-9, -6.0318213e-9, 4.5999969e+1
-0.138, 6.0211653e-9, -6.0002665e-9, 4.6333302e+1
-0.139, 6.0590768e-9, -5.9772205e-9, 4.6666634e+1
-0.140, 6.0961614e-9, -5.9502749e-9, 4.6999966e+1
-0.141, 6.1019483e-9, -5.9290017e-9, 4.7333298e+1
-0.142, 6.1481269e-9, -5.8969740e-9, 4.7666630e+1
-0.143, 6.1827312e-9, -5.8745191e-9, 4.7999962e+1
-0.144, 6.2028085e-9, -5.8481642e-9, 4.8333294e+1
-0.145, 6.2768595e-9, -5.8225180e-9, 4.8666626e+1
-0.146, 6.3192584e-9, -5.7682721e-9, 4.8999958e+1
-0.147, 6.3360295e-9, -5.7595266e-9, 4.9333290e+1
-0.148, 6.3187859e-9, -5.7597629e-9, 4.9666622e+1
-0.149, 6.3155974e-9, -5.7104801e-9, 4.9999954e+1
-0.150, 6.3793735e-9, -5.7091802e-9, 5.0333286e+1
-0.151, 6.4072463e-9, -5.6724252e-9, 5.0666618e+1
-0.152, 6.4262600e-9, -5.6584795e-9, 5.0999950e+1
-0.153, 6.4936976e-9, -5.6302336e-9, 5.1333282e+1
-0.154, 6.5219239e-9, -5.6036424e-9, 5.1666615e+1
-0.155, 6.5072796e-9, -5.5846150e-9, 5.1999947e+1
-0.156, 6.5378680e-9, -5.5748055e-9, 5.2333279e+1
-0.157, 6.5728272e-9, -5.5464415e-9, 5.2666611e+1
-0.158, 6.6360126e-9, -5.5179594e-9, 5.2999943e+1
-0.159, 6.6664829e-9, -5.4964500e-9, 5.3333275e+1
-0.160, 6.7195116e-9, -5.4802585e-9, 5.3666607e+1
-0.161, 6.8595818e-9, -5.4390128e-9, 5.3999939e+1
-0.162, 6.7238815e-9, -5.4163216e-9, 5.4333271e+1
-0.163, 6.6593970e-9, -5.4318035e-9, 5.4666603e+1
-0.164, 6.7621468e-9, -5.4097029e-9, 5.4999935e+1
-0.165, 6.7998216e-9, -5.3807483e-9, 5.5333267e+1
-0.166, 6.8614723e-9, -5.3626659e-9, 5.5666599e+1
-0.167, 6.9000925e-9, -5.3396203e-9, 5.5999931e+1
-0.168, 6.9393025e-9, -5.3172839e-9, 5.6333263e+1
-0.169, 6.9965824e-9, -5.3028653e-9, 5.6666595e+1
-0.170, 7.0061486e-9, -5.2784013e-9, 5.6999928e+1
-0.171, 7.0549251e-9, -5.2638649e-9, 5.7333260e+1
-0.172, 7.1064190e-9, -5.2472009e-9, 5.7666592e+1
-0.173, 7.1218902e-9, -5.2281730e-9, 5.7999924e+1
-0.174, 7.1662969e-9, -5.2083182e-9, 5.8333256e+1
-0.175, 7.2063351e-9, -5.1937818e-9, 5.8666588e+1
-0.176, 7.2277113e-9, -5.1739271e-9, 5.8999920e+1
-0.177, 7.2955029e-9, -5.1553721e-9, 5.9333252e+1
-0.178, 7.3234934e-9, -5.1388263e-9, 5.9666584e+1
-0.179, 7.3749864e-9, -5.1131810e-9, 5.9999916e+1
-0.180, 7.4750197e-9, -5.0975801e-9, 6.0333248e+1
-0.181, 7.4237625e-9, -5.0667346e-9, 6.0666580e+1
-0.182, 7.4389979e-9, -5.0754800e-9, 6.0999912e+1
-0.183, 7.5086799e-9, -5.0603526e-9, 6.1333244e+1
-0.184, 7.5139939e-9, -5.0453433e-9, 6.1666576e+1
-0.185, 7.6137914e-9, -5.0251341e-9, 6.1999908e+1
-0.186, 7.6413107e-9, -5.0071702e-9, 6.2333241e+1
-0.187, 7.6759141e-9, -4.9903877e-9, 6.2666573e+1
-0.188, 7.7389819e-9, -4.9711240e-9, 6.2999905e+1
-0.189, 7.7369737e-9, -4.9655693e-9, 6.3333237e+1
-0.190, 7.8294491e-9, -4.9377964e-9, 6.3666569e+1
-0.191, 7.8301570e-9, -4.9399236e-9, 6.3999901e+1
-0.192, 7.8680689e-9, -4.9201869e-9, 6.4333237e+1
-0.193, 7.9203879e-9, -4.9086046e-9, 6.4666573e+1
-0.194, 7.9482607e-9, -4.8964317e-9, 6.4999908e+1
-0.195, 8.0032976e-9, -4.8742135e-9, 6.5333244e+1
-0.196, 8.0771123e-9, -4.8631041e-9, 6.5666580e+1
-0.197, 8.1154958e-9, -4.8401763e-9, 6.5999916e+1
-0.198, 8.1340383e-9, -4.8367488e-9, 6.6333252e+1
-0.199, 8.1928526e-9, -4.8224491e-9, 6.6666588e+1
-0.200, 8.2354878e-9, -4.8103943e-9, 6.6999924e+1
-0.201, 8.3065865e-9, -4.7924305e-9, 6.7333260e+1
-0.202, 8.3343412e-9, -4.7810849e-9, 6.7666595e+1
-0.203, 8.3989438e-9, -4.7620574e-9, 6.7999931e+1
-0.204, 8.4238634e-9, -4.7631210e-9, 6.8333267e+1
-0.205, 8.5307477e-9, -4.7354662e-9, 6.8666603e+1
-0.206, 8.5555492e-9, -4.7159654e-9, 6.8999939e+1
-0.207, 8.5876737e-9, -4.7124202e-9, 6.9333275e+1
-0.208, 8.6137746e-9, -4.7006017e-9, 6.9666611e+1
-0.209, 8.6892431e-9, -4.6937472e-9, 6.9999947e+1
-0.210, 8.7377821e-9, -4.6757833e-9, 7.0333282e+1
-0.211, 8.7778194e-9, -4.6643196e-9, 7.0666618e+1
-0.212, 8.8411234e-9, -4.6554556e-9, 7.0999954e+1
-0.213, 8.8649799e-9, -4.6428101e-9, 7.1333290e+1
-0.214, 8.9235597e-9, -4.6291007e-9, 7.1666626e+1
-0.215, 8.9762340e-9, -4.6162185e-9, 7.1999962e+1
-0.216, 9.0213490e-9, -4.6002637e-9, 7.2333298e+1
-0.217, 9.0839443e-9, -4.5901003e-9, 7.2666634e+1
-0.218, 9.1196117e-9, -4.5805271e-9, 7.2999969e+1
-0.219, 9.1725214e-9, -4.5711910e-9, 7.3333305e+1
-0.220, 9.2429113e-9, -4.5619721e-9, 7.3666641e+1
-0.221, 9.2646433e-9, -4.5482631e-9, 7.3999977e+1
-0.222, 9.3362127e-9, -4.5334900e-9, 7.4333313e+1
-0.223, 9.3854622e-9, -4.5271085e-9, 7.4666649e+1
-0.224, 9.4318775e-9, -4.5161168e-9, 7.4999985e+1
-0.225, 9.5026209e-9, -4.5050079e-9, 7.5333321e+1
-0.226, 9.5287218e-9, -4.4993351e-9, 7.5666656e+1
-0.227, 9.5829318e-9, -4.4864530e-9, 7.5999992e+1
-0.228, 9.6490691e-9, -4.4751074e-9, 7.6333328e+1
-0.229, 9.6886339e-9, -4.4613979e-9, 7.6666664e+1
-0.230, 9.7453237e-9, -4.4595074e-9, 7.7000000e+1
-0.231, 9.8031947e-9, -4.4431978e-9, 7.7333336e+1
-0.232, 9.8512629e-9, -4.4301980e-9, 7.7666672e+1
-0.233, 9.9195274e-9, -4.4236979e-9, 7.8000008e+1
-0.234, 9.9549577e-9, -4.4127066e-9, 7.8333344e+1
-0.235, 1.0015190e-8, -4.4078612e-9, 7.8666679e+1
-0.236, 1.0082156e-8, -4.3922608e-9, 7.9000015e+1
-0.237, 1.0122783e-8, -4.3817430e-9, 7.9333351e+1
-0.238, 1.0183607e-8, -4.3758335e-9, 7.9666687e+1
-0.239, 1.0243248e-8, -4.3680335e-9, 8.0000023e+1
-0.240, 1.0286829e-8, -4.3558606e-9, 8.0333359e+1
-0.241, 1.0360408e-8, -4.3440420e-9, 8.0666695e+1
-0.242, 1.0394894e-8, -4.3344692e-9, 8.1000031e+1
-0.243, 1.0453827e-8, -4.3325783e-9, 8.1333366e+1
-0.244, 1.0528469e-8, -4.3218233e-9, 8.1666702e+1
-0.245, 1.0561892e-8, -4.3076414e-9, 8.2000038e+1
-0.246, 1.0624722e-8, -4.2966506e-9, 8.2333374e+1
-0.247, 1.0693459e-8, -4.2945234e-9, 8.2666710e+1
-0.248, 1.0744952e-8, -4.2870774e-9, 8.3000046e+1
-0.249, 1.0819711e-8, -4.2784500e-9, 8.3333382e+1
-0.250, 1.0862702e-8, -4.2712407e-9, 8.3666718e+1
-0.251, 1.0920219e-8, -4.2616679e-9, 8.4000053e+1
-0.252, 1.0996631e-8, -4.2528043e-9, 8.4333389e+1
-0.253, 1.1023205e-8, -4.2440584e-9, 8.4666725e+1
-0.254, 1.1105995e-8, -4.2362585e-9, 8.5000061e+1
-0.255, 1.1167645e-8, -4.2276307e-9, 8.5333397e+1
-0.256, 1.1221028e-8, -4.2234944e-9, 8.5666733e+1
-0.257, 1.1299094e-8, -4.2128581e-9, 8.6000069e+1
-0.258, 1.1338659e-8, -4.2035220e-9, 8.6333405e+1
-0.259, 1.1396766e-8, -4.1966670e-9, 8.6666740e+1
-0.260, 1.1475896e-8, -4.1854391e-9, 8.7000076e+1
-0.261, 1.1518058e-8, -4.1808308e-9, 8.7333412e+1
-0.262, 1.1593643e-8, -4.1740940e-9, 8.7666748e+1
-0.263, 1.1658011e-8, -4.1649937e-9, 8.8000084e+1
-0.264, 1.1709740e-8, -4.1590846e-9, 8.8333420e+1
-0.265, 1.1787216e-8, -4.1471484e-9, 8.8666756e+1
-0.266, 1.1829969e-8, -4.1453752e-9, 8.9000092e+1
-0.267, 1.1905438e-8, -4.1349750e-9, 8.9333427e+1
-0.268, 1.1986220e-8, -4.1329664e-9, 8.9666763e+1
-0.269, 1.2015747e-8, -4.1275299e-9, 9.0000099e+1
-0.270, 1.2088262e-8, -4.1232755e-9, 9.0333435e+1
-0.271, 1.2142353e-8, -4.1125201e-9, 9.0666771e+1
-0.272, 1.2186878e-8, -4.1063748e-9, 9.1000107e+1
-0.273, 1.2272386e-8, -4.1008201e-9, 9.1333443e+1
-0.274, 1.2314430e-8, -4.1003472e-9, 9.1666779e+1
-0.275, 1.2383284e-8, -4.0910111e-9, 9.2000114e+1
-0.276, 1.2458989e-8, -4.0865200e-9, 9.2333450e+1
-0.277, 1.2506585e-8, -4.0819108e-9, 9.2666786e+1
-0.278, 1.2568706e-8, -4.0749377e-9, 9.3000122e+1
-0.279, 1.2637915e-8, -4.0700923e-9, 9.3333458e+1
-0.280, 1.2703581e-8, -4.0601651e-9, 9.3666794e+1
-0.281, 1.2784955e-8, -4.0487009e-9, 9.4000130e+1
-0.282, 1.2820975e-8, -4.0504737e-9, 9.4333466e+1
-0.283, 1.2897035e-8, -4.0446828e-9, 9.4666801e+1
-0.284, 1.2977581e-8, -4.0371195e-9, 9.5000137e+1
-0.285, 1.3008288e-8, -4.0262464e-9, 9.5333473e+1
-0.286, 1.3096157e-8, -4.0235282e-9, 9.5666809e+1
-0.287, 1.3170208e-8, -4.0189194e-9, 9.6000145e+1
-0.288, 1.3227016e-8, -4.0177373e-9, 9.6333481e+1
-0.289, 1.3306618e-8, -4.0117096e-9, 9.6666817e+1
-0.290, 1.3350670e-8, -4.0053281e-9, 9.7000153e+1
-0.291, 1.3414920e-8, -4.0030823e-9, 9.7333488e+1
-0.292, 1.3504914e-8, -3.9987098e-9, 9.7666824e+1
-0.293, 1.3554871e-8, -3.9958730e-9, 9.8000160e+1
-0.294, 1.3623370e-8, -3.9850003e-9, 9.8333496e+1
-0.295, 1.3696831e-8, -3.9803911e-9, 9.8666832e+1
-0.296, 1.3756475e-8, -3.9757819e-9, 9.9000168e+1
-0.297, 1.3845996e-8, -3.9727093e-9, 9.9333504e+1
-0.298, 1.3875641e-8, -3.9654999e-9, 9.9666840e+1
-0.299, 1.3965635e-8, -3.9626635e-9, 1.0000018e+2
-0.300, 1.4049016e-8, -3.9586454e-9, 1.0033351e+2
-0.301, 1.4098619e-8, -3.9564001e-9, 1.0066685e+2
-0.302, 1.4176214e-8, -3.9474179e-9, 1.0100018e+2
-0.303, 1.4245069e-8, -3.9452908e-9, 1.0133352e+2
-0.304, 1.4293373e-8, -3.9411541e-9, 1.0166685e+2
-0.305, 1.4382660e-8, -3.9451722e-9, 1.0200019e+2
-0.306, 1.4456473e-8, -3.9381995e-9, 1.0233353e+2
-0.307, 1.4554734e-8, -3.9287449e-9, 1.0266686e+2
-0.308, 1.4624890e-8, -3.9233083e-9, 1.0300020e+2
-0.309, 1.4633747e-8, -3.9282724e-9, 1.0333353e+2
-0.310, 1.4713112e-8, -3.9276813e-9, 1.0366687e+2
-0.311, 1.4795194e-8, -3.9172812e-9, 1.0400021e+2
-0.312, 1.4869955e-8, -3.9231902e-9, 1.0433354e+2
-0.313, 1.4933612e-8, -3.9118446e-9, 1.0466688e+2
-0.314, 1.4988293e-8, -3.9133812e-9, 1.0500021e+2
-0.315, 1.5059982e-8, -3.9108992e-9, 1.0533355e+2
-0.316, 1.5143836e-8, -3.9119628e-9, 1.0566689e+2
-0.317, 1.5182220e-8, -3.9082995e-9, 1.0600022e+2
-0.318, 1.5266190e-8, -3.9053445e-9, 1.0633356e+2
-0.319, 1.5349926e-8, -3.8952988e-9, 1.0666689e+2
-0.320, 1.5400357e-8, -3.8955350e-9, 1.0700023e+2
-0.321, 1.5488345e-8, -3.8963628e-9, 1.0733356e+2
-0.322, 1.5542671e-8, -3.8954173e-9, 1.0766690e+2
-0.323, 1.5607156e-8, -3.8897445e-9, 1.0800024e+2
-0.324, 1.5693489e-8, -3.8902170e-9, 1.0833357e+2
-0.325, 1.5742502e-8, -3.8841894e-9, 1.0866691e+2
-0.326, 1.5825885e-8, -3.8846628e-9, 1.0900024e+2
-0.327, 1.5897101e-8, -3.8818264e-9, 1.0933358e+2
-0.328, 1.5961348e-8, -3.8822985e-9, 1.0966692e+2
-0.329, 1.6036461e-8, -3.8831263e-9, 1.1000025e+2
-0.330, 1.6081932e-8, -3.8812349e-9, 1.1033359e+2
-0.331, 1.6164250e-8, -3.8819441e-9, 1.1066692e+2
-0.332, 1.6244678e-8, -3.8788714e-9, 1.1100026e+2
-0.333, 1.6282355e-8, -3.8739074e-9, 1.1133360e+2
-0.334, 1.6363845e-8, -3.8795802e-9, 1.1166693e+2
-0.335, 1.6436596e-8, -3.8785166e-9, 1.1200027e+2
-0.336, 1.6480177e-8, -3.8783989e-9, 1.1233360e+2
-0.337, 1.6569462e-8, -3.8740260e-9, 1.1266694e+2
-0.338, 1.6619303e-8, -3.8768624e-9, 1.1300027e+2
-0.339, 1.6688631e-8, -3.8772172e-9, 1.1333361e+2
-0.340, 1.6773782e-8, -3.8761532e-9, 1.1366695e+2
-0.341, 1.6813230e-8, -3.8801717e-9, 1.1400028e+2
-0.342, 1.6879014e-8, -3.8742622e-9, 1.1433362e+2
-0.343, 1.6953420e-8, -3.8791081e-9, 1.1466695e+2
-0.344, 1.7011642e-8, -3.8798174e-9, 1.1500029e+2
-0.345, 1.7091244e-8, -3.8776897e-9, 1.1533363e+2
-0.346, 1.7129629e-8, -3.8820627e-9, 1.1566696e+2
-0.347, 1.7206869e-8, -3.8782804e-9, 1.1600030e+2
-0.348, 1.7284934e-8, -3.8776897e-9, 1.1633363e+2
-0.349, 1.7318831e-8, -3.8834806e-9, 1.1666697e+2
-0.350, 1.7397252e-8, -3.8895083e-9, 1.1700031e+2
-0.351, 1.7468468e-8, -3.8827714e-9, 1.1733364e+2
-0.352, 1.7524449e-8, -3.8866719e-9, 1.1766698e+2
-0.353, 1.7602634e-8, -3.8929353e-9, 1.1800031e+2
-0.354, 1.7642906e-8, -3.8904533e-9, 1.1833365e+2
-0.355, 1.7707864e-8, -3.8955350e-9, 1.1866698e+2
-0.356, 1.7781796e-8, -3.8910444e-9, 1.1900032e+2
-0.357, 1.7826025e-8, -3.8918717e-9, 1.1933366e+2
-0.358, 1.7900962e-8, -3.9030992e-9, 1.1966699e+2
-0.359, 1.7967277e-8, -3.9029806e-9, 1.2000033e+2
-0.360, 1.8020129e-8, -3.9080632e-9, 1.2033366e+2
-0.361, 1.8089928e-8, -3.9140899e-9, 1.2066700e+2
-0.362, 1.8132564e-8, -3.9179904e-9, 1.2100034e+2
-0.363, 1.8199705e-8, -3.9250816e-9, 1.2133367e+2
-0.364, 1.8271749e-8, -3.9302814e-9, 1.2166701e+2
-0.365, 1.8316156e-8, -3.9264996e-9, 1.2200034e+2
-0.366, 1.8383474e-8, -3.9363086e-9, 1.2233368e+2
-0.367, 1.8447841e-8, -3.9418633e-9, 1.2266702e+2
-0.368, 1.8494552e-8, -3.9485997e-9, 1.2300035e+2
-0.369, 1.8584190e-8, -3.9493089e-9, 1.2333369e+2
-0.370, 1.8624169e-8, -3.9525001e-9, 1.2366702e+2
-0.371, 1.8685583e-8, -3.9598271e-9, 1.2400036e+2
-0.372, 1.8760462e-8, -3.9634909e-9, 1.2433369e+2
-0.373, 1.8802918e-8, -3.9693999e-9, 1.2466703e+2
-0.374, 1.8870416e-8, -3.9773185e-9, 1.2500037e+2
-0.375, 1.8937499e-8, -3.9857095e-9, 1.2533370e+2
-0.376, 1.8994719e-8, -3.9906731e-9, 1.2566704e+2
-0.377, 1.9069656e-8, -4.0013095e-9, 1.2600037e+2
-0.378, 1.9115303e-8, -4.0094643e-9, 1.2633371e+2
-0.379, 1.9180261e-8, -4.0171462e-9, 1.2666705e+2
-0.380, 1.9259627e-8, -4.0243555e-9, 1.2700038e+2
-0.381, 1.9291868e-8, -4.0310919e-9, 1.2733372e+2
-0.382, 1.9370525e-8, -4.0410191e-9, 1.2766705e+2
-0.383, 1.9434596e-8, -4.0508286e-9, 1.2800038e+2
-0.384, 1.9486503e-8, -4.0618198e-9, 1.2833371e+2
-0.385, 1.9563979e-8, -4.0730472e-9, 1.2866704e+2
-0.386, 1.9608208e-8, -4.0813202e-9, 1.2900037e+2
-0.387, 1.9671040e-8, -4.0942019e-9, 1.2933369e+2
-0.388, 1.9752768e-8, -4.1008201e-9, 1.2966702e+2
-0.389, 1.9794635e-8, -4.1106296e-9, 1.3000035e+2
-0.390, 1.9868743e-8, -4.1186663e-9, 1.3033368e+2
-0.391, 1.9937186e-8, -4.1271750e-9, 1.3066701e+2
-0.392, 1.9990864e-8, -4.1393480e-9, 1.3100034e+2
-0.393, 2.0069402e-8, -4.1495114e-9, 1.3133366e+2
-0.394, 2.0106782e-8, -4.1597938e-9, 1.3166699e+2
-0.395, 2.0184554e-8, -4.1724397e-9, 1.3200032e+2
-0.396, 2.0265336e-8, -4.1830761e-9, 1.3233365e+2
-0.397, 2.0297637e-8, -4.1958401e-9, 1.3266698e+2
-0.398, 2.0375763e-8, -4.2132129e-9, 1.3300031e+2
-0.399, 2.0444499e-8, -4.2288129e-9, 1.3333363e+2
