Jan. 27, 2006   23:24:06
Square Wave Voltammetry
File: z:\users\scottsaunders\git\labwork\ida\01_17_19_psoralen_nonequil_2\data\psoralen\0um_psoralen_transfer_swv_1.txt
Data Source:  Experiment
Instrument Model:  CHI760E
Header: 
Note: 

Init E (V) = 0.1
Final E (V) = -0.5
Incr E (V) = 0.001
Amplitude (V) = 0.025
Frequency (Hz) = 300
Quiet Time (sec) = 2
Sensitivity (A/V) = 1e-5
Sens 2 (A/V) = 1e-5

Potential/V, i1/A, i2/A

0.099, 1.4207157e-5, 1.4930969e-5
0.098, 1.5378868e-5, 1.5483722e-5
0.097, 1.5441728e-5, 1.5464146e-5
0.096, 1.5454609e-5, 1.5449637e-5
0.095, 1.5459458e-5, 1.5504984e-5
0.094, 1.5451576e-5, 1.5459394e-5
0.093, 1.5374202e-5, 1.5406402e-5
0.092, 1.5380450e-5, 1.5406238e-5
0.091, 1.5391894e-5, 1.5395304e-5
0.090, 1.5406924e-5, 1.5465566e-5
0.089, 1.5383679e-5, 1.5412272e-5
0.088, 1.5324898e-5, 1.5373422e-5
0.087, 1.5330561e-5, 1.5374522e-5
0.086, 1.5352296e-5, 1.5374742e-5
0.085, 1.5356600e-5, 1.5430658e-5
0.084, 1.5344231e-5, 1.5395593e-5
0.083, 1.5277250e-5, 1.5347763e-5
0.082, 1.5284437e-5, 1.5345908e-5
0.081, 1.5300575e-5, 1.5346910e-5
0.080, 1.5312560e-5, 1.5402904e-5
0.079, 1.5297122e-5, 1.5364298e-5
0.078, 1.5236441e-5, 1.5320167e-5
0.077, 1.5239191e-5, 1.5317553e-5
0.076, 1.5256535e-5, 1.5324162e-5
0.075, 1.5271698e-5, 1.5384683e-5
0.074, 1.5260292e-5, 1.5344811e-5
0.073, 1.5192238e-5, 1.5299811e-5
0.072, 1.5200310e-5, 1.5294056e-5
0.071, 1.5209567e-5, 1.5294987e-5
0.070, 1.5233913e-5, 1.5365269e-5
0.069, 1.5215859e-5, 1.5318710e-5
0.068, 1.5151621e-5, 1.5282265e-5
0.067, 1.5160234e-5, 1.5271984e-5
0.066, 1.5179477e-5, 1.5280082e-5
0.065, 1.5186199e-5, 1.5335649e-5
0.064, 1.5178081e-5, 1.5299067e-5
0.063, 1.5106768e-5, 1.5254866e-5
0.062, 1.5122994e-5, 1.5256463e-5
0.061, 1.5133559e-5, 1.5249847e-5
0.060, 1.5147991e-5, 1.5319072e-5
0.059, 1.5141160e-5, 1.5279051e-5
0.058, 1.5071339e-5, 1.5233082e-5
0.057, 1.5080552e-5, 1.5237817e-5
0.056, 1.5095560e-5, 1.5233089e-5
0.055, 1.5104630e-5, 1.5294328e-5
0.054, 1.5100919e-5, 1.5261739e-5
0.053, 1.5032409e-5, 1.5210763e-5
0.052, 1.5035751e-5, 1.5213245e-5
0.051, 1.5057951e-5, 1.5212311e-5
0.050, 1.5068457e-5, 1.5272501e-5
0.049, 1.5065669e-5, 1.5250644e-5
0.048, 1.4995827e-5, 1.5195103e-5
0.047, 1.5005868e-5, 1.5199012e-5
0.046, 1.5026479e-5, 1.5202743e-5
0.045, 1.5034546e-5, 1.5255788e-5
0.044, 1.5020461e-5, 1.5219959e-5
0.043, 1.4957155e-5, 1.5172782e-5
0.042, 1.4966065e-5, 1.5173673e-5
0.041, 1.4981471e-5, 1.5179474e-5
0.040, 1.4993130e-5, 1.5232001e-5
0.039, 1.4977457e-5, 1.5193084e-5
0.038, 1.4918467e-5, 1.5154524e-5
0.037, 1.4922134e-5, 1.5146101e-5
0.036, 1.4935184e-5, 1.5150323e-5
0.035, 1.4953540e-5, 1.5214941e-5
0.034, 1.4937075e-5, 1.5169447e-5
0.033, 1.4870547e-5, 1.5131145e-5
0.032, 1.4876394e-5, 1.5116606e-5
0.031, 1.4893967e-5, 1.5123382e-5
0.030, 1.4904725e-5, 1.5184293e-5
0.029, 1.4886271e-5, 1.5138186e-5
0.028, 1.4823172e-5, 1.5096957e-5
0.027, 1.4833079e-5, 1.5096225e-5
0.026, 1.4847606e-5, 1.5091194e-5
0.025, 1.4852840e-5, 1.5149816e-5
0.024, 1.4842675e-5, 1.5108943e-5
0.023, 1.4773786e-5, 1.5062485e-5
0.022, 1.4789046e-5, 1.5073483e-5
0.021, 1.4794871e-5, 1.5058949e-5
0.020, 1.4807654e-5, 1.5124140e-5
0.019, 1.4793222e-5, 1.5081396e-5
0.018, 1.4728726e-5, 1.5032407e-5
0.017, 1.4729798e-5, 1.5030716e-5
0.016, 1.4744312e-5, 1.5023279e-5
0.015, 1.4752723e-5, 1.5082532e-5
0.014, 1.4744104e-5, 1.5053150e-5
0.013, 1.4671570e-5, 1.4993755e-5
0.012, 1.4678609e-5, 1.4995579e-5
0.011, 1.4695761e-5, 1.4995660e-5
0.010, 1.4700840e-5, 1.5046819e-5
0.009, 1.4682802e-5, 1.5008203e-5
0.008, 1.4620027e-5, 1.4957983e-5
0.007, 1.4629919e-5, 1.4959871e-5
0.006, 1.4641149e-5, 1.4962629e-5
0.005, 1.4641444e-5, 1.5004745e-5
0.004, 1.4626961e-5, 1.4965428e-5
0.003, 1.4563811e-5, 1.4926887e-5
0.002, 1.4568912e-5, 1.4915258e-5
0.001, 1.4576386e-5, 1.4914429e-5
-0.000, 1.4585716e-5, 1.4971089e-5
-0.001, 1.4559389e-5, 1.4913103e-5
-0.002, 1.4499433e-5, 1.4879985e-5
-0.003, 1.4499661e-5, 1.4862673e-5
-0.004, 1.4511010e-5, 1.4862542e-5
-0.005, 1.4522127e-5, 1.4928180e-5
-0.006, 1.4495876e-5, 1.4871167e-5
-0.007, 1.4430492e-5, 1.4828376e-5
-0.008, 1.4436540e-5, 1.4822718e-5
-0.009, 1.4445951e-5, 1.4814392e-5
-0.010, 1.4456797e-5, 1.4876836e-5
-0.011, 1.4432089e-5, 1.4822746e-5
-0.012, 1.4365338e-5, 1.4778958e-5
-0.013, 1.4373285e-5, 1.4782227e-5
-0.014, 1.4385136e-5, 1.4774647e-5
-0.015, 1.4392663e-5, 1.4833577e-5
-0.016, 1.4368517e-5, 1.4782081e-5
-0.017, 1.4301721e-5, 1.4730769e-5
-0.018, 1.4306134e-5, 1.4733879e-5
-0.019, 1.4318459e-5, 1.4727613e-5
-0.020, 1.4314253e-5, 1.4772266e-5
-0.021, 1.4300331e-5, 1.4737581e-5
-0.022, 1.4232146e-5, 1.4681231e-5
-0.023, 1.4236337e-5, 1.4680995e-5
-0.024, 1.4243287e-5, 1.4674220e-5
-0.025, 1.4244713e-5, 1.4720527e-5
-0.026, 1.4230607e-5, 1.4686157e-5
-0.027, 1.4167272e-5, 1.4639532e-5
-0.028, 1.4169143e-5, 1.4631161e-5
-0.029, 1.4178066e-5, 1.4631651e-5
-0.030, 1.4178517e-5, 1.4673905e-5
-0.031, 1.4156168e-5, 1.4627147e-5
-0.032, 1.4090088e-5, 1.4587230e-5
-0.033, 1.4086281e-5, 1.4570618e-5
-0.034, 1.4104602e-5, 1.4577512e-5
-0.035, 1.4102671e-5, 1.4623656e-5
-0.036, 1.4080871e-5, 1.4571793e-5
-0.037, 1.4019945e-5, 1.4538288e-5
-0.038, 1.4016322e-5, 1.4518877e-5
-0.039, 1.4026436e-5, 1.4516719e-5
-0.040, 1.4029577e-5, 1.4575080e-5
-0.041, 1.3997254e-5, 1.4510727e-5
-0.042, 1.3942708e-5, 1.4480303e-5
-0.043, 1.3941622e-5, 1.4468464e-5
-0.044, 1.3948047e-5, 1.4457692e-5
-0.045, 1.3943649e-5, 1.4504269e-5
-0.046, 1.3929610e-5, 1.4461584e-5
-0.047, 1.3863241e-5, 1.4418601e-5
-0.048, 1.3862399e-5, 1.4413285e-5
-0.049, 1.3862393e-5, 1.4394633e-5
-0.050, 1.3880157e-5, 1.4461977e-5
-0.051, 1.3850142e-5, 1.4407347e-5
-0.052, 1.3785164e-5, 1.4357494e-5
-0.053, 1.3786510e-5, 1.4358422e-5
-0.054, 1.3797999e-5, 1.4352638e-5
-0.055, 1.3793859e-5, 1.4397439e-5
-0.056, 1.3775893e-5, 1.4358337e-5
-0.057, 1.3707575e-5, 1.4301611e-5
-0.058, 1.3713254e-5, 1.4301639e-5
-0.059, 1.3716513e-5, 1.4293422e-5
-0.060, 1.3715418e-5, 1.4336761e-5
-0.061, 1.3695628e-5, 1.4297032e-5
-0.062, 1.3631568e-5, 1.4249852e-5
-0.063, 1.3632403e-5, 1.4239895e-5
-0.064, 1.3629489e-5, 1.4228071e-5
-0.065, 1.3635937e-5, 1.4278578e-5
-0.066, 1.3619518e-5, 1.4238532e-5
-0.067, 1.3551567e-5, 1.4194842e-5
-0.068, 1.3545379e-5, 1.4173767e-5
-0.069, 1.3559471e-5, 1.4179202e-5
-0.070, 1.3560675e-5, 1.4227787e-5
-0.071, 1.3534882e-5, 1.4173083e-5
-0.072, 1.3464101e-5, 1.4127614e-5
-0.073, 1.3469711e-5, 1.4120167e-5
-0.074, 1.3482909e-5, 1.4121266e-5
-0.075, 1.3481535e-5, 1.4174582e-5
-0.076, 1.3454017e-5, 1.4113563e-5
-0.077, 1.3395472e-5, 1.4077407e-5
-0.078, 1.3397024e-5, 1.4071456e-5
-0.079, 1.3400410e-5, 1.4057865e-5
-0.080, 1.3396485e-5, 1.4108175e-5
-0.081, 1.3370824e-5, 1.4050140e-5
-0.082, 1.3314157e-5, 1.4015577e-5
-0.083, 1.3312434e-5, 1.4011070e-5
-0.084, 1.3316796e-5, 1.3994564e-5
-0.085, 1.3320618e-5, 1.4050896e-5
-0.086, 1.3303939e-5, 1.4011046e-5
-0.087, 1.3231755e-5, 1.3951734e-5
-0.088, 1.3228834e-5, 1.3946613e-5
-0.089, 1.3234599e-5, 1.3938503e-5
-0.090, 1.3243494e-5, 1.3996789e-5
-0.091, 1.3209250e-5, 1.3939829e-5
-0.092, 1.3147001e-5, 1.3887820e-5
-0.093, 1.3148849e-5, 1.3887553e-5
-0.094, 1.3166304e-5, 1.3893156e-5
-0.095, 1.3146446e-5, 1.3920471e-5
-0.096, 1.3124969e-5, 1.3874573e-5
-0.097, 1.3061175e-5, 1.3829362e-5
-0.098, 1.3065250e-5, 1.3821609e-5
-0.099, 1.3067474e-5, 1.3813402e-5
-0.100, 1.3066418e-5, 1.3857956e-5
-0.101, 1.3044304e-5, 1.3812405e-5
-0.102, 1.2977287e-5, 1.3769040e-5
-0.103, 1.2973065e-5, 1.3756460e-5
-0.104, 1.2979061e-5, 1.3748571e-5
-0.105, 1.2974153e-5, 1.3792530e-5
-0.106, 1.2958049e-5, 1.3745588e-5
-0.107, 1.2887684e-5, 1.3700293e-5
-0.108, 1.2894803e-5, 1.3697852e-5
-0.109, 1.2896681e-5, 1.3686508e-5
-0.110, 1.2896008e-5, 1.3738643e-5
-0.111, 1.2865372e-5, 1.3676112e-5
-0.112, 1.2804838e-5, 1.3638090e-5
-0.113, 1.2803004e-5, 1.3629671e-5
-0.114, 1.2815521e-5, 1.3623913e-5
-0.115, 1.2804845e-5, 1.3667794e-5
-0.116, 1.2782252e-5, 1.3612378e-5
-0.117, 1.2725688e-5, 1.3575966e-5
-0.118, 1.2721555e-5, 1.3571709e-5
-0.119, 1.2724682e-5, 1.3553587e-5
-0.120, 1.2725939e-5, 1.3605413e-5
-0.121, 1.2700515e-5, 1.3559395e-5
-0.122, 1.2644299e-5, 1.3514133e-5
-0.123, 1.2639590e-5, 1.3508309e-5
-0.124, 1.2646857e-5, 1.3499674e-5
-0.125, 1.2645392e-5, 1.3543289e-5
-0.126, 1.2622193e-5, 1.3499763e-5
-0.127, 1.2558332e-5, 1.3447390e-5
-0.128, 1.2558105e-5, 1.3443558e-5
-0.129, 1.2566043e-5, 1.3441394e-5
-0.130, 1.2568335e-5, 1.3487918e-5
-0.131, 1.2541394e-5, 1.3436160e-5
-0.132, 1.2483339e-5, 1.3393004e-5
-0.133, 1.2485563e-5, 1.3386330e-5
-0.134, 1.2489630e-5, 1.3377317e-5
-0.135, 1.2489512e-5, 1.3422834e-5
-0.136, 1.2467266e-5, 1.3375373e-5
-0.137, 1.2406686e-5, 1.3338973e-5
-0.138, 1.2413911e-5, 1.3335875e-5
-0.139, 1.2424312e-5, 1.3331221e-5
-0.140, 1.2417473e-5, 1.3371337e-5
-0.141, 1.2399147e-5, 1.3322605e-5
-0.142, 1.2336417e-5, 1.3280925e-5
-0.143, 1.2341650e-5, 1.3279488e-5
-0.144, 1.2347122e-5, 1.3267229e-5
-0.145, 1.2347122e-5, 1.3320606e-5
-0.146, 1.2331457e-5, 1.3269255e-5
-0.147, 1.2280399e-5, 1.3239391e-5
-0.148, 1.2273199e-5, 1.3226319e-5
-0.149, 1.2284977e-5, 1.3219371e-5
-0.150, 1.2283682e-5, 1.3268851e-5
-0.151, 1.2273200e-5, 1.3228913e-5
-0.152, 1.2211076e-5, 1.3179791e-5
-0.153, 1.2211749e-5, 1.3181741e-5
-0.154, 1.2221471e-5, 1.3167782e-5
-0.155, 1.2224627e-5, 1.3221012e-5
-0.156, 1.2207696e-5, 1.3180599e-5
-0.157, 1.2154748e-5, 1.3138759e-5
-0.158, 1.2156086e-5, 1.3137707e-5
-0.159, 1.2163155e-5, 1.3126994e-5
-0.160, 1.2172854e-5, 1.3178455e-5
-0.161, 1.2151592e-5, 1.3135939e-5
-0.162, 1.2099405e-5, 1.3094068e-5
-0.163, 1.2102420e-5, 1.3091996e-5
-0.164, 1.2113362e-5, 1.3090588e-5
-0.165, 1.2108785e-5, 1.3127716e-5
-0.166, 1.2101134e-5, 1.3095203e-5
-0.167, 1.2046256e-5, 1.3055742e-5
-0.168, 1.2050012e-5, 1.3048850e-5
-0.169, 1.2049539e-5, 1.3032779e-5
-0.170, 1.2072369e-5, 1.3098596e-5
-0.171, 1.2053390e-5, 1.3053392e-5
-0.172, 1.1998807e-5, 1.3020349e-5
-0.173, 1.1999709e-5, 1.3009794e-5
-0.174, 1.2022769e-5, 1.3013844e-5
-0.175, 1.2023374e-5, 1.3062711e-5
-0.176, 1.2010193e-5, 1.3017452e-5
-0.177, 1.1952372e-5, 1.2980478e-5
-0.178, 1.1966079e-5, 1.2986126e-5
-0.179, 1.1978055e-5, 1.2977245e-5
-0.180, 1.1987629e-5, 1.3038172e-5
-0.181, 1.1971979e-5, 1.2986555e-5
-0.182, 1.1920316e-5, 1.2954342e-5
-0.183, 1.1924907e-5, 1.2952634e-5
-0.184, 1.1945682e-5, 1.2950394e-5
-0.185, 1.1945342e-5, 1.3002063e-5
-0.186, 1.1937143e-5, 1.2961946e-5
-0.187, 1.1885628e-5, 1.2922410e-5
-0.188, 1.1885724e-5, 1.2920466e-5
-0.189, 1.1909389e-5, 1.2919963e-5
-0.190, 1.1918202e-5, 1.2977638e-5
-0.191, 1.1901988e-5, 1.2937275e-5
-0.192, 1.1851140e-5, 1.2894458e-5
-0.193, 1.1860862e-5, 1.2901669e-5
-0.194, 1.1884535e-5, 1.2905879e-5
-0.195, 1.1890856e-5, 1.2952688e-5
-0.196, 1.1875996e-5, 1.2914390e-5
-0.197, 1.1828570e-5, 1.2877241e-5
-0.198, 1.1836872e-5, 1.2880044e-5
-0.199, 1.1856345e-5, 1.2885326e-5
-0.200, 1.1865350e-5, 1.2933207e-5
-0.201, 1.1854001e-5, 1.2896553e-5
-0.202, 1.1806627e-5, 1.2864271e-5
-0.203, 1.1814337e-5, 1.2860486e-5
-0.204, 1.1830905e-5, 1.2862537e-5
-0.205, 1.1846165e-5, 1.2916227e-5
-0.206, 1.1831335e-5, 1.2876370e-5
-0.207, 1.1782377e-5, 1.2845474e-5
-0.208, 1.1793290e-5, 1.2843667e-5
-0.209, 1.1815438e-5, 1.2847001e-5
-0.210, 1.1830587e-5, 1.2909939e-5
-0.211, 1.1814041e-5, 1.2859675e-5
-0.212, 1.1764065e-5, 1.2829305e-5
-0.213, 1.1779805e-5, 1.2835835e-5
-0.214, 1.1800816e-5, 1.2835316e-5
-0.215, 1.1810752e-5, 1.2896895e-5
-0.216, 1.1804543e-5, 1.2853979e-5
-0.217, 1.1754337e-5, 1.2819142e-5
-0.218, 1.1769544e-5, 1.2828876e-5
-0.219, 1.1785623e-5, 1.2824862e-5
-0.220, 1.1800970e-5, 1.2887580e-5
-0.221, 1.1793520e-5, 1.2848468e-5
-0.222, 1.1748215e-5, 1.2813871e-5
-0.223, 1.1756960e-5, 1.2817931e-5
-0.224, 1.1781291e-5, 1.2818789e-5
-0.225, 1.1793718e-5, 1.2879822e-5
-0.226, 1.1787042e-5, 1.2848311e-5
-0.227, 1.1735255e-5, 1.2807675e-5
-0.228, 1.1751792e-5, 1.2817114e-5
-0.229, 1.1777831e-5, 1.2821381e-5
-0.230, 1.1789054e-5, 1.2875764e-5
-0.231, 1.1778415e-5, 1.2839382e-5
-0.232, 1.1732756e-5, 1.2802691e-5
-0.233, 1.1744503e-5, 1.2808890e-5
-0.234, 1.1776398e-5, 1.2825737e-5
-0.235, 1.1787088e-5, 1.2873901e-5
-0.236, 1.1775821e-5, 1.2837001e-5
-0.237, 1.1732512e-5, 1.2808272e-5
-0.238, 1.1746026e-5, 1.2809624e-5
-0.239, 1.1767754e-5, 1.2815484e-5
-0.240, 1.1783139e-5, 1.2870966e-5
-0.241, 1.1784661e-5, 1.2842031e-5
-0.242, 1.1737309e-5, 1.2816201e-5
-0.243, 1.1746160e-5, 1.2808737e-5
-0.244, 1.1774106e-5, 1.2817891e-5
-0.245, 1.1796255e-5, 1.2889804e-5
-0.246, 1.1783650e-5, 1.2840635e-5
-0.247, 1.1732631e-5, 1.2810119e-5
-0.248, 1.1750632e-5, 1.2818761e-5
-0.249, 1.1775088e-5, 1.2818267e-5
-0.250, 1.1793631e-5, 1.2888127e-5
-0.251, 1.1783515e-5, 1.2840237e-5
-0.252, 1.1738847e-5, 1.2812715e-5
-0.253, 1.1758283e-5, 1.2828361e-5
-0.254, 1.1780277e-5, 1.2824416e-5
-0.255, 1.1794746e-5, 1.2887111e-5
-0.256, 1.1791131e-5, 1.2851445e-5
-0.257, 1.1745369e-5, 1.2815720e-5
-0.258, 1.1764849e-5, 1.2828417e-5
-0.259, 1.1788891e-5, 1.2829518e-5
-0.260, 1.1805467e-5, 1.2892880e-5
-0.261, 1.1804379e-5, 1.2865207e-5
-0.262, 1.1755385e-5, 1.2827872e-5
-0.263, 1.1775097e-5, 1.2838693e-5
-0.264, 1.1800180e-5, 1.2841419e-5
-0.265, 1.1813243e-5, 1.2897164e-5
-0.266, 1.1810870e-5, 1.2868436e-5
-0.267, 1.1764642e-5, 1.2833760e-5
-0.268, 1.1777314e-5, 1.2836258e-5
-0.269, 1.1810420e-5, 1.2853653e-5
-0.270, 1.1826633e-5, 1.2906497e-5
-0.271, 1.1823860e-5, 1.2874686e-5
-0.272, 1.1773891e-5, 1.2841445e-5
-0.273, 1.1789823e-5, 1.2844587e-5
-0.274, 1.1818974e-5, 1.2857635e-5
-0.275, 1.1840229e-5, 1.2920018e-5
-0.276, 1.1834890e-5, 1.2879618e-5
-0.277, 1.1784987e-5, 1.2851997e-5
-0.278, 1.1801696e-5, 1.2852492e-5
-0.279, 1.1829738e-5, 1.2860328e-5
-0.280, 1.1849772e-5, 1.2929439e-5
-0.281, 1.1841130e-5, 1.2882149e-5
-0.282, 1.1799197e-5, 1.2859921e-5
-0.283, 1.1814500e-5, 1.2864683e-5
-0.284, 1.1843237e-5, 1.2865919e-5
-0.285, 1.1851207e-5, 1.2927256e-5
-0.286, 1.1856515e-5, 1.2893079e-5
-0.287, 1.1806457e-5, 1.2859617e-5
-0.288, 1.1828080e-5, 1.2876721e-5
-0.289, 1.1845987e-5, 1.2866686e-5
-0.290, 1.1876224e-5, 1.2944492e-5
-0.291, 1.1866858e-5, 1.2902110e-5
-0.292, 1.1821065e-5, 1.2866327e-5
-0.293, 1.1835031e-5, 1.2876011e-5
-0.294, 1.1867767e-5, 1.2880280e-5
-0.295, 1.1885688e-5, 1.2945735e-5
-0.296, 1.1880269e-5, 1.2913011e-5
-0.297, 1.1830447e-5, 1.2870940e-5
-0.298, 1.1856780e-5, 1.2888904e-5
-0.299, 1.1881193e-5, 1.2892107e-5
-0.300, 1.1902544e-5, 1.2953256e-5
-0.301, 1.1893687e-5, 1.2918679e-5
-0.302, 1.1853290e-5, 1.2890777e-5
-0.303, 1.1867752e-5, 1.2894339e-5
-0.304, 1.1897560e-5, 1.2906483e-5
-0.305, 1.1917715e-5, 1.2964310e-5
-0.306, 1.1919821e-5, 1.2932936e-5
-0.307, 1.1868247e-5, 1.2899125e-5
-0.308, 1.1876431e-5, 1.2894097e-5
-0.309, 1.1911933e-5, 1.2912062e-5
-0.310, 1.1936936e-5, 1.2978328e-5
-0.311, 1.1928152e-5, 1.2932412e-5
-0.312, 1.1881932e-5, 1.2904384e-5
-0.313, 1.1895417e-5, 1.2906073e-5
-0.314, 1.1930104e-5, 1.2919544e-5
-0.315, 1.1949098e-5, 1.2986990e-5
-0.316, 1.1937438e-5, 1.2938232e-5
-0.317, 1.1901464e-5, 1.2919982e-5
-0.318, 1.1918260e-5, 1.2924718e-5
-0.319, 1.1947456e-5, 1.2927791e-5
-0.320, 1.1962396e-5, 1.2992547e-5
-0.321, 1.1957371e-5, 1.2949144e-5
-0.322, 1.1923450e-5, 1.2932618e-5
-0.323, 1.1934644e-5, 1.2938115e-5
-0.324, 1.1962524e-5, 1.2935708e-5
-0.325, 1.1988259e-5, 1.3010422e-5
-0.326, 1.1983082e-5, 1.2969947e-5
-0.327, 1.1935737e-5, 1.2935281e-5
-0.328, 1.1950598e-5, 1.2943330e-5
-0.329, 1.1981797e-5, 1.2946852e-5
-0.330, 1.2017801e-5, 1.3028254e-5
-0.331, 1.2000715e-5, 1.2984765e-5
-0.332, 1.1953925e-5, 1.2944543e-5
-0.333, 1.1977132e-5, 1.2959791e-5
-0.334, 1.2011982e-5, 1.2976792e-5
-0.335, 1.2027419e-5, 1.3028885e-5
-0.336, 1.2023109e-5, 1.2996413e-5
-0.337, 1.1977641e-5, 1.2966027e-5
-0.338, 1.2006090e-5, 1.2979077e-5
-0.339, 1.2031242e-5, 1.2989134e-5
-0.340, 1.2052458e-5, 1.3045402e-5
-0.341, 1.2046145e-5, 1.3009902e-5
-0.342, 1.2004996e-5, 1.2989636e-5
-0.343, 1.2019634e-5, 1.2990480e-5
-0.344, 1.2051697e-5, 1.2999621e-5
-0.345, 1.2075673e-5, 1.3066833e-5
-0.346, 1.2075222e-5, 1.3028512e-5
-0.347, 1.2025999e-5, 1.2997645e-5
-0.348, 1.2047062e-5, 1.3004090e-5
-0.349, 1.2079746e-5, 1.3018334e-5
-0.350, 1.2100840e-5, 1.3087381e-5
-0.351, 1.2095405e-5, 1.3046509e-5
-0.352, 1.2062121e-5, 1.3026344e-5
-0.353, 1.2071251e-5, 1.3025705e-5
-0.354, 1.2111441e-5, 1.3040266e-5
-0.355, 1.2123846e-5, 1.3101815e-5
-0.356, 1.2127853e-5, 1.3070261e-5
-0.357, 1.2088811e-5, 1.3045885e-5
-0.358, 1.2106265e-5, 1.3056834e-5
-0.359, 1.2137116e-5, 1.3057752e-5
-0.360, 1.2163280e-5, 1.3129025e-5
-0.361, 1.2163184e-5, 1.3099261e-5
-0.362, 1.2127616e-5, 1.3074739e-5
-0.363, 1.2138647e-5, 1.3081519e-5
-0.364, 1.2177075e-5, 1.3093567e-5
-0.365, 1.2203572e-5, 1.3161663e-5
-0.366, 1.2198301e-5, 1.3129318e-5
-0.367, 1.2154409e-5, 1.3094370e-5
-0.368, 1.2176432e-5, 1.3107449e-5
-0.369, 1.2212184e-5, 1.3127024e-5
-0.370, 1.2239813e-5, 1.3190473e-5
-0.371, 1.2235088e-5, 1.3157751e-5
-0.372, 1.2191610e-5, 1.3128201e-5
-0.373, 1.2216709e-5, 1.3138682e-5
-0.374, 1.2245624e-5, 1.3154632e-5
-0.375, 1.2272601e-5, 1.3217015e-5
-0.376, 1.2273384e-5, 1.3186216e-5
-0.377, 1.2229611e-5, 1.3163803e-5
-0.378, 1.2252151e-5, 1.3167371e-5
-0.379, 1.2284452e-5, 1.3181771e-5
-0.380, 1.2312301e-5, 1.3252444e-5
-0.381, 1.2311835e-5, 1.3215416e-5
-0.382, 1.2267638e-5, 1.3191613e-5
-0.383, 1.2289043e-5, 1.3197523e-5
-0.384, 1.2328092e-5, 1.3215221e-5
-0.385, 1.2353746e-5, 1.3290966e-5
-0.386, 1.2355712e-5, 1.3250523e-5
-0.387, 1.2313898e-5, 1.3227179e-5
-0.388, 1.2335271e-5, 1.3239940e-5
-0.389, 1.2377115e-5, 1.3254677e-5
-0.390, 1.2397454e-5, 1.3325446e-5
-0.391, 1.2396367e-5, 1.3289824e-5
-0.392, 1.2357605e-5, 1.3264926e-5
-0.393, 1.2376739e-5, 1.3278926e-5
-0.394, 1.2421480e-5, 1.3292511e-5
-0.395, 1.2444524e-5, 1.3362194e-5
-0.396, 1.2449803e-5, 1.3337620e-5
-0.397, 1.2402332e-5, 1.3305416e-5
-0.398, 1.2426020e-5, 1.3318790e-5
-0.399, 1.2461041e-5, 1.3331002e-5
-0.400, 1.2491759e-5, 1.3400428e-5
-0.401, 1.2486584e-5, 1.3365814e-5
-0.402, 1.2451430e-5, 1.3343110e-5
-0.403, 1.2466859e-5, 1.3350805e-5
-0.404, 1.2507084e-5, 1.3373330e-5
-0.405, 1.2534896e-5, 1.3443634e-5
-0.406, 1.2533470e-5, 1.3408360e-5
-0.407, 1.2489688e-5, 1.3380968e-5
-0.408, 1.2515617e-5, 1.3391807e-5
-0.409, 1.2545965e-5, 1.3405775e-5
-0.410, 1.2586344e-5, 1.3487386e-5
-0.411, 1.2569748e-5, 1.3437068e-5
-0.412, 1.2531636e-5, 1.3422115e-5
-0.413, 1.2551251e-5, 1.3423665e-5
-0.414, 1.2597420e-5, 1.3450313e-5
-0.415, 1.2614164e-5, 1.3512879e-5
-0.416, 1.2616087e-5, 1.3476754e-5
-0.417, 1.2568017e-5, 1.3451834e-5
-0.418, 1.2600665e-5, 1.3471724e-5
-0.419, 1.2632478e-5, 1.3478273e-5
-0.420, 1.2655284e-5, 1.3554216e-5
-0.421, 1.2655202e-5, 1.3512750e-5
-0.422, 1.2612567e-5, 1.3490437e-5
-0.423, 1.2630282e-5, 1.3503239e-5
-0.424, 1.2665183e-5, 1.3511160e-5
-0.425, 1.2688515e-5, 1.3582159e-5
-0.426, 1.2693166e-5, 1.3553061e-5
-0.427, 1.2647966e-5, 1.3520720e-5
-0.428, 1.2663793e-5, 1.3534034e-5
-0.429, 1.2696752e-5, 1.3536614e-5
-0.430, 1.2724506e-5, 1.3612750e-5
-0.431, 1.2722161e-5, 1.3584111e-5
-0.432, 1.2674299e-5, 1.3545738e-5
-0.433, 1.2691784e-5, 1.3558227e-5
-0.434, 1.2733281e-5, 1.3576706e-5
-0.435, 1.2750277e-5, 1.3635899e-5
-0.436, 1.2746559e-5, 1.3603260e-5
-0.437, 1.2703975e-5, 1.3573921e-5
-0.438, 1.2716529e-5, 1.3578192e-5
-0.439, 1.2750809e-5, 1.3597337e-5
-0.440, 1.2773063e-5, 1.3658259e-5
-0.441, 1.2775739e-5, 1.3630823e-5
-0.442, 1.2727869e-5, 1.3600620e-5
-0.443, 1.2737739e-5, 1.3597709e-5
-0.444, 1.2770068e-5, 1.3612722e-5
-0.445, 1.2797444e-5, 1.3686798e-5
-0.446, 1.2795914e-5, 1.3646697e-5
-0.447, 1.2740726e-5, 1.3618352e-5
-0.448, 1.2756835e-5, 1.3615113e-5
-0.449, 1.2787788e-5, 1.3627434e-5
-0.450, 1.2810996e-5, 1.3698906e-5
-0.451, 1.2801178e-5, 1.3654986e-5
-0.452, 1.2755134e-5, 1.3630999e-5
-0.453, 1.2768878e-5, 1.3632561e-5
-0.454, 1.2802553e-5, 1.3639687e-5
-0.455, 1.2819542e-5, 1.3706010e-5
-0.456, 1.2812859e-5, 1.3664361e-5
-0.457, 1.2765507e-5, 1.3636675e-5
-0.458, 1.2782924e-5, 1.3650277e-5
-0.459, 1.2810301e-5, 1.3652914e-5
-0.460, 1.2828044e-5, 1.3718069e-5
-0.461, 1.2824918e-5, 1.3680696e-5
-0.462, 1.2776212e-5, 1.3645475e-5
-0.463, 1.2786591e-5, 1.3651874e-5
-0.464, 1.2822521e-5, 1.3662151e-5
-0.465, 1.2836316e-5, 1.3723627e-5
-0.466, 1.2838092e-5, 1.3697176e-5
-0.467, 1.2781720e-5, 1.3649988e-5
-0.468, 1.2804519e-5, 1.3668159e-5
-0.469, 1.2824422e-5, 1.3665965e-5
-0.470, 1.2847118e-5, 1.3730503e-5
-0.471, 1.2833685e-5, 1.3690307e-5
-0.472, 1.2795596e-5, 1.3666505e-5
-0.473, 1.2809000e-5, 1.3668920e-5
-0.474, 1.2833219e-5, 1.3676339e-5
-0.475, 1.2847384e-5, 1.3729878e-5
-0.476, 1.2842520e-5, 1.3694727e-5
-0.477, 1.2792750e-5, 1.3669316e-5
-0.478, 1.2808350e-5, 1.3666518e-5
-0.479, 1.2831651e-5, 1.3674186e-5
-0.480, 1.2854563e-5, 1.3740743e-5
-0.481, 1.2849203e-5, 1.3699191e-5
-0.482, 1.2800343e-5, 1.3675559e-5
-0.483, 1.2811439e-5, 1.3667728e-5
-0.484, 1.2838726e-5, 1.3676114e-5
-0.485, 1.2864587e-5, 1.3754193e-5
-0.486, 1.2849225e-5, 1.3698959e-5
-0.487, 1.2801547e-5, 1.3673340e-5
-0.488, 1.2820030e-5, 1.3680725e-5
-0.489, 1.2845418e-5, 1.3680183e-5
-0.490, 1.2865001e-5, 1.3750016e-5
-0.491, 1.2863968e-5, 1.3711444e-5
-0.492, 1.2811077e-5, 1.3679116e-5
-0.493, 1.2825863e-5, 1.3688089e-5
-0.494, 1.2852272e-5, 1.3687145e-5
-0.495, 1.2882441e-5, 1.3764742e-5
-0.496, 1.2872055e-5, 1.3723175e-5
-0.497, 1.2823120e-5, 1.3687157e-5
-0.498, 1.2835001e-5, 1.3694696e-5
-0.499, 1.2864278e-5, 1.3699382e-5
-0.500, 1.2884712e-5, 1.3765239e-5
