Dec. 9, 2005   00:24:01
Square Wave Voltammetry
File: d:\ida_biofilms\11_28_18_blankidapyo\0um_pyo_soak_swv.txt
Data Source:  Experiment
Instrument Model:  CHI760B
Header: 
Note: 

Init E (V) = 0.1
Final E (V) = -0.5
Incr E (V) = 0.001
Amplitude (V) = 0.025
Frequency (Hz) = 15
Quiet Time (sec) = 2
Sensitivity (A/V) = 1e-6
Sens 2 (A/V) = 1e-6

Potential/V, i1/A, i2/A

0.099, 1.0647845e-7, 6.8564880e-8
0.098, 1.5285984e-7, 9.1873403e-8
0.097, 1.5344078e-7, 9.3591986e-8
0.096, 1.6801286e-7, 1.0404897e-7
0.095, 1.5208298e-7, 9.1233304e-8
0.094, 1.5277449e-7, 9.3779171e-8
0.093, 1.5247093e-7, 8.8347981e-8
0.092, 1.6412955e-7, 1.0367460e-7
0.091, 1.4902599e-7, 9.0582532e-8
0.090, 1.4793395e-7, 8.9655344e-8
0.089, 1.4681569e-7, 9.1458311e-8
0.088, 1.5977490e-7, 9.9404332e-8
0.087, 1.4368500e-7, 8.9457501e-8
0.086, 1.4319814e-7, 8.9012332e-8
0.085, 1.4326602e-7, 8.7543974e-8
0.084, 1.4175598e-7, 8.7883421e-8
0.083, 1.5723194e-7, 1.0011911e-7
0.082, 1.4204790e-7, 8.8317918e-8
0.081, 1.4273455e-7, 8.7132754e-8
0.080, 1.3936042e-7, 8.5594564e-8
0.079, 1.5208008e-7, 9.7241553e-8
0.078, 1.3869413e-7, 8.5877758e-8
0.077, 1.5098414e-7, 9.6000143e-8
0.076, 1.4945661e-7, 9.5740219e-8
0.075, 1.5135171e-7, 9.4498802e-8
0.074, 1.3614439e-7, 8.3232962e-8
0.073, 1.4767500e-7, 9.3421292e-8
0.072, 1.4626481e-7, 9.3303939e-8
0.071, 1.4485369e-7, 9.3063420e-8
0.070, 1.3226594e-7, 8.2230130e-8
0.069, 1.4521447e-7, 9.3678310e-8
0.068, 1.4518247e-7, 9.2160477e-8
0.067, 1.4572946e-7, 9.2175028e-8
0.066, 1.4548797e-7, 9.0896762e-8
0.065, 1.2992277e-7, 8.1413518e-8
0.064, 1.4372866e-7, 9.1387506e-8
0.063, 1.4216332e-7, 9.2843258e-8
0.062, 1.3892398e-7, 9.0426383e-8
0.061, 1.2804125e-7, 8.0680309e-8
0.060, 1.4232236e-7, 8.9490470e-8
0.059, 1.4064742e-7, 9.0544702e-8
0.058, 1.4000830e-7, 8.9287774e-8
0.057, 1.2679983e-7, 7.8307075e-8
0.056, 1.3879597e-7, 8.8458549e-8
0.055, 1.3871838e-7, 8.8057995e-8
0.054, 1.3817525e-7, 8.7419835e-8
0.053, 1.2469135e-7, 7.5713679e-8
0.052, 1.3667780e-7, 8.6715715e-8
0.051, 1.3587282e-7, 8.6501380e-8
0.050, 1.3468281e-7, 8.6417003e-8
0.049, 1.2211930e-7, 7.4490693e-8
0.048, 1.3556732e-7, 8.5546063e-8
0.047, 1.2182447e-7, 7.3512112e-8
0.046, 1.2069749e-7, 7.2414238e-8
0.045, 1.2000501e-7, 7.2593657e-8
0.044, 1.3265000e-7, 8.2958493e-8
0.043, 1.1889842e-7, 7.4938768e-8
0.042, 1.1934553e-7, 7.2098061e-8
0.041, 1.1825055e-7, 7.1828438e-8
0.040, 1.1764537e-7, 7.2093208e-8
0.039, 1.3071900e-7, 8.2146727e-8
0.038, 1.1595490e-7, 6.9978924e-8
0.037, 1.1538464e-7, 7.0910957e-8
0.036, 1.1546416e-7, 6.9442592e-8
0.035, 1.2829922e-7, 8.1292285e-8
0.034, 1.1408018e-7, 7.0118588e-8
0.033, 1.1344881e-7, 7.0392083e-8
0.032, 1.1368836e-7, 6.8677380e-8
0.031, 1.2737593e-7, 8.0205076e-8
0.030, 1.1263122e-7, 6.9140000e-8
0.029, 1.1141502e-7, 6.9254440e-8
0.028, 1.1457675e-7, 6.8354424e-8
0.027, 1.2497941e-7, 7.7701884e-8
0.026, 1.1095142e-7, 6.7782203e-8
0.025, 1.0959557e-7, 6.6010280e-8
0.024, 1.0983415e-7, 6.6803622e-8
0.023, 1.0960235e-7, 6.6439924e-8
0.022, 1.2310467e-7, 7.6999711e-8
0.021, 1.0832893e-7, 6.6168369e-8
0.020, 1.0845889e-7, 6.6644560e-8
0.019, 1.0841913e-7, 6.7316677e-8
0.018, 1.2114266e-7, 7.8102431e-8
0.017, 1.0769853e-7, 6.6073319e-8
0.016, 1.0762579e-7, 6.6422466e-8
0.015, 1.0634365e-7, 6.8909181e-8
0.014, 1.1822922e-7, 7.6040521e-8
0.013, 1.0571905e-7, 6.4691278e-8
0.012, 1.1798578e-7, 7.5252998e-8
0.011, 1.1806532e-7, 7.5176381e-8
0.010, 1.1824667e-7, 7.3053364e-8
0.009, 1.0401599e-7, 6.2910622e-8
0.008, 1.1645827e-7, 7.1494810e-8
0.007, 1.1651355e-7, 7.5563356e-8
0.006, 1.1667842e-7, 7.3608128e-8
0.005, 1.0212671e-7, 6.0851619e-8
0.004, 1.1584628e-7, 7.3281285e-8
0.003, 1.1531868e-7, 7.2720702e-8
0.002, 1.1551653e-7, 7.4698242e-8
0.001, 1.1434980e-7, 7.2157221e-8
-0.000, 1.0072527e-7, 6.2511042e-8
-0.001, 1.1345850e-7, 7.1086504e-8
-0.002, 1.1311226e-7, 7.4343276e-8
-0.003, 1.1292217e-7, 7.0594787e-8
-0.004, 9.8803021e-8, 6.1965984e-8
-0.005, 1.1234705e-7, 7.2003012e-8
-0.006, 1.1199791e-7, 7.3588723e-8
-0.007, 1.1218992e-7, 7.3902960e-8
-0.008, 9.7749762e-8, 6.1821474e-8
-0.009, 1.1154692e-7, 7.3081488e-8
-0.010, 1.0997478e-7, 7.3622672e-8
-0.011, 1.1025507e-7, 7.1709145e-8
-0.012, 9.6856525e-8, 6.1590647e-8
-0.013, 1.0872755e-7, 7.2726529e-8
-0.014, 1.0962951e-7, 7.2401626e-8
-0.015, 1.0954223e-7, 7.3010696e-8
-0.016, 9.5714029e-8, 6.2129892e-8
-0.017, 1.0794682e-7, 7.2977720e-8
-0.018, 9.5535583e-8, 6.0277465e-8
-0.019, 9.4194270e-8, 6.0885561e-8
-0.020, 9.4378535e-8, 6.0260007e-8
-0.021, 1.0729410e-7, 7.1223248e-8
-0.022, 9.3880033e-8, 5.9782842e-8
-0.023, 1.0649495e-7, 7.0948779e-8
-0.024, 1.0537670e-7, 7.1233920e-8
-0.025, 1.0590915e-7, 7.0411481e-8
-0.026, 9.2021793e-8, 6.0106771e-8
-0.027, 1.0514199e-7, 7.0798450e-8
-0.028, 1.0615162e-7, 7.0182594e-8
-0.029, 1.0569772e-7, 7.0036151e-8
-0.030, 9.1339984e-8, 6.1520822e-8
-0.031, 1.0482292e-7, 7.0928415e-8
-0.032, 1.0462603e-7, 7.0658793e-8
-0.033, 1.0483358e-7, 6.9997355e-8
-0.034, 8.9683468e-8, 6.1564464e-8
-0.035, 1.0296370e-7, 7.1723697e-8
-0.036, 1.0300443e-7, 7.1693627e-8
-0.037, 1.0233911e-7, 7.0200059e-8
-0.038, 8.9338201e-8, 5.9415260e-8
-0.039, 1.0250690e-7, 7.1389096e-8
-0.040, 1.0168641e-7, 7.0958478e-8
-0.041, 1.0248169e-7, 7.1200944e-8
-0.042, 1.0286574e-7, 6.8469831e-8
-0.043, 8.8049262e-8, 6.0215392e-8
-0.044, 1.0206561e-7, 7.1046742e-8
-0.045, 1.0213834e-7, 7.0368806e-8
-0.046, 1.0096386e-7, 7.1486085e-8
-0.047, 8.7036739e-8, 5.9892429e-8
-0.048, 1.0016082e-7, 7.1855595e-8
-0.049, 1.0095610e-7, 7.4059109e-8
-0.050, 1.0015015e-7, 7.1501603e-8
-0.051, 8.5357918e-8, 5.7656916e-8
-0.052, 9.9596363e-8, 6.9920731e-8
-0.053, 8.6161926e-8, 5.9103943e-8
-0.054, 8.4722664e-8, 5.6412595e-8
-0.055, 8.5962135e-8, 5.8105961e-8
-0.056, 9.9728268e-8, 6.9447445e-8
-0.057, 8.5478177e-8, 5.9972933e-8
-0.058, 8.6816584e-8, 5.7140955e-8
-0.059, 8.3845919e-8, 5.9680033e-8
-0.060, 9.7329810e-8, 7.0620970e-8
-0.061, 8.4063160e-8, 5.8877966e-8
-0.062, 8.3199026e-8, 6.2306398e-8
-0.063, 8.4041822e-8, 6.1578035e-8
-0.064, 8.3945807e-8, 5.8621922e-8
-0.065, 9.7259012e-8, 7.0003168e-8
-0.066, 8.3472521e-8, 5.5051888e-8
-0.067, 8.3894406e-8, 5.9112672e-8
-0.068, 8.3006988e-8, 5.7975029e-8
-0.069, 9.6553919e-8, 6.9211765e-8
-0.070, 8.1958575e-8, 5.9254269e-8
-0.071, 8.3116582e-8, 5.8989496e-8
-0.072, 8.2662687e-8, 5.8901243e-8
-0.073, 9.5986564e-8, 6.9630751e-8
-0.074, 8.1899415e-8, 5.8797468e-8
-0.075, 8.1658897e-8, 5.9493821e-8
-0.076, 8.1505661e-8, 5.8542390e-8
-0.077, 9.5446353e-8, 6.9731612e-8
-0.078, 8.0926647e-8, 5.9496735e-8
-0.079, 8.0684188e-8, 5.8900270e-8
-0.080, 8.0678369e-8, 5.8288293e-8
-0.081, 9.4436729e-8, 7.0121501e-8
-0.082, 8.1146808e-8, 5.7572539e-8
-0.083, 8.1249610e-8, 5.8271805e-8
-0.084, 8.0831605e-8, 5.7965330e-8
-0.085, 8.0829665e-8, 5.8203916e-8
-0.086, 8.0873306e-8, 5.9011803e-8
-0.087, 9.3532833e-8, 6.9511458e-8
-0.088, 8.0790869e-8, 5.7932354e-8
-0.089, 8.0683215e-8, 5.7568659e-8
-0.090, 8.0265210e-8, 5.8715031e-8
-0.091, 9.3398988e-8, 6.8532870e-8
-0.092, 8.0007226e-8, 5.8039042e-8
-0.093, 7.9651294e-8, 5.7894532e-8
-0.094, 7.9758948e-8, 5.7625883e-8
-0.095, 9.3110941e-8, 6.8570699e-8
-0.096, 7.9323478e-8, 5.8459953e-8
-0.097, 7.9235221e-8, 5.7881920e-8
-0.098, 7.9460236e-8, 5.7731594e-8
-0.099, 9.2868476e-8, 6.8279739e-8
-0.100, 7.8548567e-8, 5.7753905e-8
-0.101, 7.8981124e-8, 5.6993535e-8
-0.102, 7.8149952e-8, 5.7447426e-8
-0.103, 9.1776414e-8, 6.8806372e-8
-0.104, 7.9020879e-8, 5.6970258e-8
-0.105, 7.8895773e-8, 5.7186536e-8
-0.106, 7.7845421e-8, 5.7590967e-8
-0.107, 9.1692044e-8, 6.8735574e-8
-0.108, 7.7677640e-8, 5.6436843e-8
-0.109, 9.2020827e-8, 6.6671717e-8
-0.110, 9.2103264e-8, 6.7402993e-8
-0.111, 9.1445699e-8, 6.7271088e-8
-0.112, 7.7377948e-8, 5.7672430e-8
-0.113, 9.0988898e-8, 6.8125537e-8
-0.114, 9.0790081e-8, 6.7731776e-8
-0.115, 9.0639745e-8, 6.7464086e-8
-0.116, 7.7721282e-8, 5.6933406e-8
-0.117, 9.1119823e-8, 6.7814213e-8
-0.118, 7.7269327e-8, 5.7093430e-8
-0.119, 7.6857134e-8, 5.7115734e-8
-0.120, 7.7018129e-8, 5.6990626e-8
-0.121, 8.9775611e-8, 6.7959689e-8
-0.122, 7.6945398e-8, 5.5618280e-8
-0.123, 7.6615642e-8, 5.5919905e-8
-0.124, 7.6577820e-8, 5.6050837e-8
-0.125, 9.0206228e-8, 6.6718272e-8
-0.126, 7.6301411e-8, 5.7255399e-8
-0.127, 7.7301337e-8, 5.6966378e-8
-0.128, 7.6360578e-8, 5.6212802e-8
-0.129, 8.9290680e-8, 6.7457307e-8
-0.130, 7.6185998e-8, 5.5612460e-8
-0.131, 8.9592305e-8, 6.7320549e-8
-0.132, 9.0035527e-8, 6.6317725e-8
-0.133, 8.8538073e-8, 6.6744462e-8
-0.134, 7.5198685e-8, 5.5225492e-8
-0.135, 8.8728157e-8, 6.5860924e-8
-0.136, 8.9184965e-8, 6.6714392e-8
-0.137, 8.8438185e-8, 6.7259450e-8
-0.138, 7.5166682e-8, 5.5944149e-8
-0.139, 8.8973536e-8, 6.7011172e-8
-0.140, 8.8877520e-8, 6.5865777e-8
-0.141, 8.8467274e-8, 6.6431198e-8
-0.142, 7.4619685e-8, 5.4992725e-8
-0.143, 8.7998835e-8, 6.6522361e-8
-0.144, 8.8471154e-8, 6.5617485e-8
-0.145, 8.8393563e-8, 6.5366294e-8
-0.146, 7.4534341e-8, 5.5163419e-8
-0.147, 8.8165649e-8, 6.6748335e-8
-0.148, 7.5070659e-8, 5.5585303e-8
-0.149, 7.4976590e-8, 5.4974297e-8
-0.150, 7.4929069e-8, 5.5064493e-8
-0.151, 8.7981377e-8, 6.5997675e-8
-0.152, 7.4396617e-8, 5.4150892e-8
-0.153, 7.3719661e-8, 5.5635738e-8
-0.154, 7.3957274e-8, 5.4484520e-8
-0.155, 7.3619766e-8, 5.4826881e-8
-0.156, 8.7270472e-8, 6.5226637e-8
-0.157, 7.4788439e-8, 5.3749368e-8
-0.158, 7.3732267e-8, 5.4296368e-8
-0.159, 7.3150353e-8, 5.4418571e-8
-0.160, 8.7393644e-8, 6.3873692e-8
-0.161, 7.3891314e-8, 5.3731910e-8
-0.162, 7.4062982e-8, 5.2217970e-8
-0.163, 7.3515992e-8, 5.5657075e-8
-0.164, 8.7542034e-8, 6.3778643e-8
-0.165, 7.3665348e-8, 5.5359330e-8
-0.166, 7.4170643e-8, 5.5120744e-8
-0.167, 7.3942729e-8, 5.2982216e-8
-0.168, 8.6546962e-8, 6.4455605e-8
-0.169, 7.3194968e-8, 5.3616503e-8
-0.170, 7.2603356e-8, 5.6276811e-8
-0.171, 7.3040759e-8, 5.5506746e-8
-0.172, 8.6389846e-8, 6.4810571e-8
-0.173, 7.3613947e-8, 5.5168265e-8
-0.174, 8.5964082e-8, 6.5376000e-8
-0.175, 8.6216239e-8, 6.5726113e-8
-0.176, 8.6101799e-8, 6.7437909e-8
-0.177, 7.2815752e-8, 5.2380905e-8
-0.178, 8.5675062e-8, 6.5118982e-8
-0.179, 8.6594483e-8, 6.2859215e-8
-0.180, 8.5841876e-8, 6.4911433e-8
-0.181, 7.2397746e-8, 5.2612702e-8
-0.182, 8.5580012e-8, 6.3248130e-8
-0.183, 7.2736228e-8, 5.3064653e-8
-0.184, 7.2531584e-8, 5.4575686e-8
-0.185, 7.3245403e-8, 5.3646566e-8
-0.186, 8.5604256e-8, 6.5963725e-8
-0.187, 7.2557768e-8, 5.2534141e-8
-0.188, 7.2426843e-8, 5.1850396e-8
-0.189, 7.1846870e-8, 5.5654166e-8
-0.190, 8.5099941e-8, 6.3267528e-8
-0.191, 7.1810987e-8, 5.6914008e-8
-0.192, 7.2131996e-8, 5.3192672e-8
-0.193, 7.2072844e-8, 4.9840857e-8
-0.194, 7.1745035e-8, 5.3005490e-8
-0.195, 8.5658570e-8, 6.6063620e-8
-0.196, 7.1436617e-8, 5.2015270e-8
-0.197, 7.1937059e-8, 5.2748483e-8
-0.198, 7.1199004e-8, 5.3887092e-8
-0.199, 8.5275481e-8, 6.4356676e-8
-0.200, 7.1073899e-8, 5.5175057e-8
-0.201, 7.1555910e-8, 5.3579647e-8
-0.202, 7.2660576e-8, 5.3437077e-8
-0.203, 8.5033015e-8, 6.4604954e-8
-0.204, 7.2459812e-8, 5.2450737e-8
-0.205, 7.0814941e-8, 4.8207617e-8
-0.206, 7.1145664e-8, 5.3725124e-8
-0.207, 8.4691628e-8, 6.4598169e-8
-0.208, 7.1415286e-8, 5.0827197e-8
-0.209, 7.1278535e-8, 5.7223396e-8
-0.210, 7.1074865e-8, 5.3762946e-8
-0.211, 8.5543157e-8, 6.4959927e-8
-0.212, 7.1729517e-8, 5.3965646e-8
-0.213, 7.1357093e-8, 5.3167462e-8
-0.214, 7.1065166e-8, 5.2846438e-8
-0.215, 6.9931403e-8, 5.3479752e-8
-0.216, 7.0681097e-8, 5.2035634e-8
-0.217, 8.4550038e-8, 6.5032665e-8
-0.218, 7.0579269e-8, 5.4474825e-8
-0.219, 7.1556883e-8, 5.3311965e-8
-0.220, 7.1161175e-8, 5.4411785e-8
-0.221, 8.4653806e-8, 6.5793998e-8
-0.222, 7.1496750e-8, 5.3246016e-8
-0.223, 7.1346420e-8, 5.4246904e-8
-0.224, 7.1129172e-8, 5.5306959e-8
-0.225, 8.4597552e-8, 6.2199717e-8
-0.226, 7.0286369e-8, 5.3440957e-8
-0.227, 6.9815016e-8, 5.3192672e-8
-0.228, 7.0148644e-8, 5.3014219e-8
-0.229, 8.5311363e-8, 6.3882418e-8
-0.230, 7.0331950e-8, 5.3951098e-8
-0.231, 7.1115601e-8, 5.3849266e-8
-0.232, 7.1068072e-8, 5.3320697e-8
-0.233, 8.4131059e-8, 6.4976412e-8
-0.234, 7.1228101e-8, 5.3654325e-8
-0.235, 7.0300914e-8, 5.3471020e-8
-0.236, 7.0189387e-8, 5.3435137e-8
-0.237, 8.4598526e-8, 6.5407029e-8
-0.238, 7.0652007e-8, 5.3852176e-8
-0.239, 7.0327111e-8, 5.3476843e-8
-0.240, 7.1270776e-8, 5.4942291e-8
-0.241, 7.0109856e-8, 5.4638726e-8
-0.242, 8.4943792e-8, 6.3816465e-8
-0.243, 7.1486078e-8, 5.2747509e-8
-0.244, 7.0298007e-8, 5.4691100e-8
-0.245, 7.0917743e-8, 5.4056812e-8
-0.246, 8.4898204e-8, 6.4403231e-8
-0.247, 7.0227209e-8, 5.4803603e-8
-0.248, 8.4662531e-8, 6.5468129e-8
-0.249, 8.3598600e-8, 6.5283857e-8
-0.250, 8.5007798e-8, 6.4213140e-8
-0.251, 7.0847918e-8, 5.4345833e-8
-0.252, 8.5066958e-8, 6.5045271e-8
-0.253, 8.5950504e-8, 6.5038485e-8
-0.254, 8.5288093e-8, 6.5444851e-8
-0.255, 7.1273682e-8, 5.4386568e-8
-0.256, 8.4492811e-8, 6.5246034e-8
-0.257, 8.5214381e-8, 6.4894948e-8
-0.258, 8.4187306e-8, 6.5704775e-8
-0.259, 8.5547043e-8, 6.4829969e-8
-0.260, 7.0781965e-8, 5.4460273e-8
-0.261, 8.5218261e-8, 6.5383752e-8
-0.262, 8.5119332e-8, 6.5313927e-8
-0.263, 8.6009663e-8, 6.6444777e-8
-0.264, 7.1348360e-8, 5.4691100e-8
-0.265, 8.4905970e-8, 6.5842492e-8
-0.266, 8.5042714e-8, 6.5628157e-8
-0.267, 8.4588820e-8, 6.5453584e-8
-0.268, 7.1448255e-8, 5.4807483e-8
-0.269, 8.5339501e-8, 6.5513717e-8
-0.270, 8.4594646e-8, 6.6107269e-8
-0.271, 8.5416112e-8, 6.6090777e-8
-0.272, 7.1594705e-8, 5.5334112e-8
-0.273, 8.5208562e-8, 6.5149045e-8
-0.274, 8.5413205e-8, 6.5817275e-8
-0.275, 8.4648953e-8, 6.5167477e-8
-0.276, 7.1356119e-8, 5.5003394e-8
-0.277, 8.5021384e-8, 6.6290568e-8
-0.278, 7.1287261e-8, 5.5249739e-8
-0.279, 7.0443491e-8, 5.4694006e-8
-0.280, 7.0358141e-8, 5.5456312e-8
-0.281, 7.1539418e-8, 5.6272935e-8
-0.282, 8.5560622e-8, 6.6198432e-8
-0.283, 7.1283381e-8, 5.4986906e-8
-0.284, 7.1584040e-8, 5.4876342e-8
-0.285, 7.1417219e-8, 5.5572695e-8
-0.286, 8.5187224e-8, 6.6203285e-8
-0.287, 7.1318297e-8, 5.5182817e-8
-0.288, 7.1504509e-8, 5.5629922e-8
-0.289, 7.1359999e-8, 5.5458255e-8
-0.290, 8.5593584e-8, 6.6452529e-8
-0.291, 7.2150428e-8, 5.6830604e-8
-0.292, 7.0796517e-8, 5.6196317e-8
-0.293, 7.1780910e-8, 5.4778386e-8
-0.294, 8.5328814e-8, 6.6719238e-8
-0.295, 7.1867234e-8, 5.5958701e-8
-0.296, 7.1138878e-8, 5.7428032e-8
-0.297, 7.1263010e-8, 5.6528975e-8
-0.298, 8.5829264e-8, 6.7905376e-8
-0.299, 7.1561729e-8, 5.6474661e-8
-0.300, 7.1567548e-8, 5.6502788e-8
-0.301, 7.1486085e-8, 5.5962580e-8
-0.302, 8.5137756e-8, 6.7292426e-8
-0.303, 7.0901258e-8, 5.6722946e-8
-0.304, 7.1853648e-8, 5.6322396e-8
-0.305, 7.1658711e-8, 5.6443628e-8
-0.306, 7.1425944e-8, 5.6638569e-8
-0.307, 8.5190138e-8, 6.7981027e-8
-0.308, 7.1909909e-8, 5.8265986e-8
-0.309, 7.1574341e-8, 5.5297264e-8
-0.310, 7.1617009e-8, 5.6859697e-8
-0.311, 8.5778829e-8, 6.7072271e-8
-0.312, 7.1153423e-8, 5.6592981e-8
-0.313, 8.5644992e-8, 6.7386509e-8
-0.314, 8.6277339e-8, 6.7548470e-8
-0.315, 8.5026230e-8, 6.8193422e-8
-0.316, 7.1836205e-8, 5.6422291e-8
-0.317, 8.5875826e-8, 6.6359426e-8
-0.318, 8.5169766e-8, 6.7055787e-8
-0.319, 8.5455866e-8, 7.0303834e-8
-0.320, 7.1674236e-8, 5.5630892e-8
-0.321, 8.5021377e-8, 6.8388367e-8
-0.322, 7.1166028e-8, 5.7153564e-8
-0.323, 7.1629621e-8, 5.5645437e-8
-0.324, 8.5645965e-8, 6.8440734e-8
-0.325, 7.0966237e-8, 5.4027716e-8
-0.326, 7.1314417e-8, 5.8354235e-8
-0.327, 7.1781884e-8, 5.7983755e-8
-0.328, 7.1407520e-8, 5.8151539e-8
-0.329, 8.5261902e-8, 6.7855908e-8
-0.330, 7.0820761e-8, 5.8741215e-8
-0.331, 7.1065159e-8, 5.7402815e-8
-0.332, 7.1493837e-8, 5.9768290e-8
-0.333, 8.4978709e-8, 6.8273920e-8
-0.334, 7.1507422e-8, 5.6086719e-8
-0.335, 7.1240706e-8, 5.7369842e-8
-0.336, 7.1286294e-8, 5.6681237e-8
-0.337, 8.4506389e-8, 6.6791017e-8
-0.338, 7.1706239e-8, 5.5683259e-8
-0.339, 7.0778093e-8, 5.7725781e-8
-0.340, 7.1025397e-8, 5.8507485e-8
-0.341, 8.4460801e-8, 6.9287424e-8
-0.342, 7.0619997e-8, 5.7788817e-8
-0.343, 7.1089410e-8, 5.8452198e-8
-0.344, 7.0929381e-8, 5.8140877e-8
-0.345, 7.1084557e-8, 5.7084709e-8
-0.346, 7.1572401e-8, 5.7017786e-8
-0.347, 8.4369638e-8, 6.9054657e-8
-0.348, 7.0510410e-8, 5.7487199e-8
-0.349, 7.0755782e-8, 5.8195187e-8
-0.350, 7.0162230e-8, 5.7091491e-8
-0.351, 8.4717819e-8, 6.8429095e-8
-0.352, 7.0919683e-8, 5.8383332e-8
-0.353, 7.0008994e-8, 5.8477415e-8
-0.354, 7.0924536e-8, 5.6956683e-8
-0.355, 8.4082565e-8, 6.8558087e-8
-0.356, 7.0943933e-8, 5.7222422e-8
-0.357, 6.9752950e-8, 5.8925483e-8
-0.358, 7.0956538e-8, 5.7899381e-8
-0.359, 8.3936115e-8, 6.8986765e-8
-0.360, 7.0847918e-8, 5.7903261e-8
-0.361, 6.9640450e-8, 5.6976081e-8
-0.362, 7.0165136e-8, 5.8578284e-8
-0.363, 8.3582108e-8, 6.8330174e-8
-0.364, 6.9875156e-8, 5.7243760e-8
-0.365, 7.0097251e-8, 5.8161234e-8
-0.366, 6.9705422e-8, 5.8748970e-8
-0.367, 8.3911864e-8, 6.9480421e-8
-0.368, 7.0532714e-8, 5.7467801e-8
-0.369, 7.0316439e-8, 5.8547247e-8
-0.370, 6.8752058e-8, 5.8776127e-8
-0.371, 6.9197220e-8, 5.9327000e-8
-0.372, 8.3639335e-8, 6.8445587e-8
-0.373, 6.9451325e-8, 5.8208766e-8
-0.374, 6.9948861e-8, 5.7480403e-8
-0.375, 6.9701549e-8, 5.9119458e-8
-0.376, 8.3039964e-8, 6.8800560e-8
-0.377, 6.9672453e-8, 5.8996282e-8
-0.378, 8.3422094e-8, 6.6920975e-8
-0.379, 8.3624784e-8, 6.8307870e-8
-0.380, 8.3694616e-8, 6.8981919e-8
-0.381, 6.9909092e-8, 5.7659822e-8
-0.382, 8.2735433e-8, 6.8628886e-8
-0.383, 8.3171862e-8, 6.8613375e-8
-0.384, 8.2853752e-8, 6.7425304e-8
-0.385, 6.8604642e-8, 5.7581268e-8
-0.386, 8.3336744e-8, 6.8458192e-8
-0.387, 6.8867472e-8, 5.8588949e-8
-0.388, 6.9073081e-8, 5.7665645e-8
-0.389, 8.3256246e-8, 6.7569808e-8
-0.390, 6.8774369e-8, 5.7163263e-8
-0.391, 8.3089425e-8, 6.9516311e-8
-0.392, 8.2734459e-8, 6.8759825e-8
-0.393, 8.2510425e-8, 6.8030488e-8
-0.394, 6.8914026e-8, 5.8242708e-8
-0.395, 8.2711182e-8, 6.8264221e-8
-0.396, 8.1846075e-8, 6.8171111e-8
-0.397, 8.1534751e-8, 6.8982885e-8
-0.398, 6.8249676e-8, 5.8405643e-8
-0.399, 8.2083687e-8, 6.7789962e-8
-0.400, 8.2215585e-8, 6.7237146e-8
-0.401, 8.2252441e-8, 6.7887918e-8
-0.402, 6.7917981e-8, 5.7841191e-8
-0.403, 8.1630766e-8, 6.8596883e-8
-0.404, 8.2220438e-8, 7.0125374e-8
-0.405, 8.3071001e-8, 6.8444614e-8
-0.406, 6.8195362e-8, 5.7796576e-8
-0.407, 8.2828535e-8, 6.8983852e-8
-0.408, 8.1673441e-8, 6.7898583e-8
-0.409, 8.1777216e-8, 6.8406791e-8
-0.410, 8.1812132e-8, 6.8064431e-8
-0.411, 8.1796614e-8, 6.6741549e-8
-0.412, 6.7692980e-8, 6.0244496e-8
-0.413, 6.8811218e-8, 5.6151706e-8
-0.414, 6.8706477e-8, 5.7515322e-8
-0.415, 6.8124564e-8, 5.9359976e-8
-0.416, 8.2490054e-8, 6.6042283e-8
-0.417, 6.8529964e-8, 5.8477418e-8
-0.418, 6.8487289e-8, 5.9423023e-8
-0.419, 6.9198194e-8, 5.9746952e-8
-0.420, 8.0839364e-8, 7.0233995e-8
-0.421, 6.7552349e-8, 6.3261709e-8
-0.422, 6.8443647e-8, 5.8081714e-8
-0.423, 6.8256462e-8, 5.9510310e-8
-0.424, 8.1618161e-8, 6.8947969e-8
-0.425, 6.9115757e-8, 5.8608347e-8
-0.426, 6.8175964e-8, 5.8671382e-8
-0.427, 6.8283626e-8, 5.8772255e-8
-0.428, 8.1551235e-8, 6.9877089e-8
-0.429, 6.7430150e-8, 5.9734347e-8
-0.430, 6.8122624e-8, 5.8864387e-8
-0.431, 6.7721103e-8, 6.4889129e-8
-0.432, 8.1703504e-8, 6.9602621e-8
-0.433, 6.8210880e-8, 5.9509347e-8
-0.434, 8.1734541e-8, 6.9423194e-8
-0.435, 8.0702613e-8, 6.9356275e-8
-0.436, 8.1545423e-8, 6.8221553e-8
-0.437, 6.7908289e-8, 5.9039927e-8
-0.438, 8.1470745e-8, 6.8948943e-8
-0.439, 8.0869434e-8, 6.9226317e-8
-0.440, 8.1400913e-8, 6.9690877e-8
-0.441, 6.7278847e-8, 5.9851708e-8
-0.442, 8.1758785e-8, 6.8915966e-8
-0.443, 6.8110012e-8, 6.0932116e-8
-0.444, 6.7087782e-8, 6.0188242e-8
-0.445, 6.7497069e-8, 5.9874004e-8
-0.446, 8.1711264e-8, 6.9031373e-8
-0.447, 6.6875387e-8, 6.0108711e-8
-0.448, 6.7073238e-8, 6.0622732e-8
-0.449, 6.7768624e-8, 5.9077756e-8
-0.450, 8.1090555e-8, 6.9331065e-8
-0.451, 6.7345766e-8, 5.9112665e-8
-0.452, 6.7753106e-8, 5.9601476e-8
-0.453, 6.6803622e-8, 5.8790679e-8
-0.454, 6.7084883e-8, 5.8935186e-8
-0.455, 8.0057660e-8, 6.9308761e-8
-0.456, 6.7475732e-8, 5.8872143e-8
-0.457, 6.5987976e-8, 5.9613107e-8
-0.458, 6.6674630e-8, 5.8888631e-8
-0.459, 8.0535798e-8, 7.0780025e-8
-0.460, 6.7137250e-8, 5.9026352e-8
-0.461, 6.7072271e-8, 5.8755759e-8
-0.462, 6.6687235e-8, 6.0257094e-8
-0.463, 8.0200223e-8, 6.9442599e-8
-0.464, 6.6790044e-8, 6.0689658e-8
-0.465, 6.6321604e-8, 5.9455996e-8
-0.466, 6.6613524e-8, 5.9303733e-8
-0.467, 8.0381596e-8, 7.0980782e-8
-0.468, 6.6362340e-8, 5.9261055e-8
-0.469, 6.6276989e-8, 5.9108789e-8
-0.470, 6.7126585e-8, 5.9671308e-8
-0.471, 8.0508649e-8, 6.9138061e-8
-0.472, 6.6972376e-8, 5.8489054e-8
-0.473, 6.5411875e-8, 6.0279412e-8
-0.474, 6.5375026e-8, 5.9727554e-8
-0.475, 6.6121814e-8, 5.8912878e-8
-0.476, 6.6719245e-8, 5.8891541e-8
-0.477, 8.0124579e-8, 7.0298015e-8
-0.478, 6.6061681e-8, 5.9624753e-8
-0.479, 6.5663073e-8, 6.0271645e-8
-0.480, 6.6087864e-8, 5.8707272e-8
-0.481, 7.9637708e-8, 6.9468783e-8
-0.482, 6.6049076e-8, 5.9312455e-8
-0.483, 6.5884194e-8, 5.9395873e-8
-0.484, 6.5737751e-8, 5.8272775e-8
-0.485, 7.9374878e-8, 7.0406635e-8
-0.486, 6.6029678e-8, 5.8978827e-8
-0.487, 6.5758115e-8, 5.9454059e-8
-0.488, 6.6129573e-8, 5.8394001e-8
-0.489, 7.9320571e-8, 7.0395963e-8
-0.490, 6.5431280e-8, 5.9774109e-8
-0.491, 6.5740664e-8, 5.9380355e-8
-0.492, 6.6322571e-8, 5.9681980e-8
-0.493, 7.9339969e-8, 7.0985635e-8
-0.494, 6.5401210e-8, 5.9778955e-8
-0.495, 6.6025791e-8, 5.9879824e-8
-0.496, 6.6415680e-8, 5.8701453e-8
-0.497, 7.9748283e-8, 7.1101056e-8
-0.498, 6.5192694e-8, 5.9695552e-8
-0.499, 6.5763935e-8, 5.9965167e-8
-0.500, 6.5935595e-8, 5.9586931e-8
