Dec. 9, 2005   00:21:58
Cyclic Voltammetry
File: d:\ida_biofilms\11_28_18_blankidapyo\0um_pyo_soak_gc.txt
Data Source:  Experiment
Instrument Model:  CHI760B
Header: 
Note: 

Init E (V) = 0.1
High E (V) = 0.1
Low E (V) = -0.5
Init P/N = N
Scan Rate (V/s) = 0.003
Segment = 2
Sample Interval (V) = 0.001
Quiet Time (sec) = 2
Sensitivity (A/V) = 1e-7
2nd E (V) = 0.1
Sens 2 (A/V) = 1e-7

Potential/V, i1/A, i2/A, Time/s

0.100, -4.3371609e-9, -4.6913362e-9, 3.3333334e-1
0.099, -3.3124443e-9, -4.1614840e-9, 6.6666669e-1
0.098, -2.6086104e-9, -3.6874690e-9, 1.0000000e+0
0.097, -1.9552620e-9, -3.3800058e-9, 1.3333334e+0
0.096, -1.4936282e-9, -3.0600817e-9, 1.6666667e+0
0.095, -1.0685004e-9, -2.7765032e-9, 2.0000000e+0
0.094, -7.6383327e-10, -2.5896612e-9, 2.3333333e+0
0.093, -4.9135840e-10, -2.4219902e-9, 2.6666665e+0
0.092, -2.4971761e-10, -2.1774740e-9, 2.9999998e+0
0.091, -1.0577162e-10, -2.0801785e-9, 3.3333330e+0
0.090, 1.4737202e-10, -1.9408657e-9, 3.6666663e+0
0.089, 2.9627065e-10, -1.7819818e-9, 3.9999995e+0
0.088, 3.9596240e-10, -1.6946716e-9, 4.3333330e+0
0.087, 6.0716843e-10, -1.6264530e-9, 4.6666665e+0
0.086, 7.0662060e-10, -1.5706161e-9, 5.0000000e+0
0.085, 7.5151380e-10, -1.5096666e-9, 5.3333335e+0
0.084, 8.3155482e-10, -1.4251523e-9, 5.6666670e+0
0.083, 9.6016362e-10, -1.3248215e-9, 6.0000005e+0
0.082, 1.1479644e-9, -1.2054789e-9, 6.3333340e+0
0.081, 1.1827127e-9, -1.1875855e-9, 6.6666675e+0
0.080, 1.1898221e-9, -1.1343846e-9, 7.0000010e+0
0.079, 1.3333687e-9, -1.0574590e-9, 7.3333344e+0
0.078, 1.4116524e-9, -1.0239090e-9, 7.6666679e+0
0.077, 1.4804301e-9, -9.6016362e-10, 8.0000010e+0
0.076, 1.5889088e-9, -8.9785623e-10, 8.3333340e+0
0.075, 1.5949000e-9, -8.6518481e-10, 8.6666670e+0
0.074, 1.6429884e-9, -7.9880347e-10, 9.0000000e+0
0.073, 1.6727842e-9, -7.6533330e-10, 9.3333330e+0
0.072, 1.6801334e-9, -7.2563233e-10, 9.6666660e+0
0.071, 1.6965089e-9, -6.9328038e-10, 9.9999990e+0
0.070, 1.7258253e-9, -6.7570655e-10, 1.0333332e+1
0.069, 1.7382867e-9, -6.6244626e-10, 1.0666665e+1
0.068, 1.7862953e-9, -6.4958533e-10, 1.0999998e+1
0.067, 1.8181679e-9, -6.3864164e-10, 1.1333331e+1
0.066, 1.8074640e-9, -6.1899086e-10, 1.1666664e+1
0.065, 1.8332654e-9, -6.0589034e-10, 1.1999997e+1
0.064, 1.8419726e-9, -5.8799693e-10, 1.2333330e+1
0.063, 1.9522888e-9, -5.8176619e-10, 1.2666663e+1
0.062, 1.9427029e-9, -5.5868055e-10, 1.2999996e+1
0.061, 1.9619544e-9, -5.2345289e-10, 1.3333329e+1
0.060, 2.0826549e-9, -5.5436694e-10, 1.3666662e+1
0.059, 1.9458981e-9, -5.1722215e-10, 1.3999995e+1
0.058, 2.0467081e-9, -4.9860982e-10, 1.4333328e+1
0.057, 2.1082169e-9, -4.7240878e-10, 1.4666661e+1
0.056, 2.0649211e-9, -4.5116036e-10, 1.4999994e+1
0.055, 2.0892850e-9, -4.0938250e-10, 1.5333327e+1
0.054, 2.1238735e-9, -4.3198886e-10, 1.5666660e+1
0.053, 2.1166842e-9, -3.9644171e-10, 1.5999993e+1
0.052, 2.1247522e-9, -3.7343592e-10, 1.6333326e+1
0.051, 2.1296249e-9, -3.7359571e-10, 1.6666660e+1
0.050, 2.1372137e-9, -3.4387987e-10, 1.6999994e+1
0.049, 2.1356958e-9, -3.3868758e-10, 1.7333328e+1
0.048, 2.1450421e-9, -3.2766398e-10, 1.7666662e+1
0.047, 2.1498350e-9, -3.0322031e-10, 1.7999996e+1
0.046, 2.1470390e-9, -3.0441852e-10, 1.8333330e+1
0.045, 2.1482374e-9, -2.7150748e-10, 1.8666664e+1
0.044, 2.1615776e-9, -2.7118793e-10, 1.8999998e+1
0.043, 2.1567845e-9, -2.6551636e-10, 1.9333332e+1
0.042, 2.1626161e-9, -2.4962002e-10, 1.9666666e+1
0.041, 2.1709237e-9, -2.4714367e-10, 2.0000000e+1
0.040, 2.1616573e-9, -2.4219104e-10, 2.0333334e+1
0.039, 2.1599798e-9, -2.3747806e-10, 2.0666668e+1
0.038, 2.1648527e-9, -2.2709348e-10, 2.1000002e+1
0.037, 2.1651720e-9, -2.0624448e-10, 2.1333336e+1
0.036, 2.1733999e-9, -2.1071783e-10, 2.1666670e+1
0.035, 2.1720419e-9, -2.0153150e-10, 2.2000004e+1
0.034, 2.1814679e-9, -1.9306409e-10, 2.2333338e+1
0.033, 2.1753970e-9, -1.9218541e-10, 2.2666672e+1
0.032, 2.1767550e-9, -1.7964404e-10, 2.3000006e+1
0.031, 2.1972844e-9, -1.8084226e-10, 2.3333340e+1
0.030, 2.1825064e-9, -1.8156118e-10, 2.3666674e+1
0.029, 2.1789117e-9, -1.6830090e-10, 2.4000008e+1
0.028, 2.2327515e-9, -1.6854056e-10, 2.4333342e+1
0.027, 2.1702047e-9, -1.6047254e-10, 2.4666676e+1
0.026, 2.1897755e-9, -1.5448144e-10, 2.5000010e+1
0.025, 2.2039146e-9, -1.6183052e-10, 2.5333344e+1
0.024, 2.1773141e-9, -1.5328323e-10, 2.5666677e+1
0.023, 2.1909738e-9, -1.4761166e-10, 2.6000011e+1
0.022, 2.1994413e-9, -1.5208501e-10, 2.6333345e+1
0.021, 2.2009590e-9, -1.4465606e-10, 2.6666679e+1
0.020, 2.1997606e-9, -1.3139577e-10, 2.7000013e+1
0.019, 2.1925715e-9, -1.4058212e-10, 2.7333347e+1
0.018, 2.2027962e-9, -1.3970342e-10, 2.7666681e+1
0.017, 2.2073494e-9, -1.3171531e-10, 2.8000015e+1
0.016, 2.1936097e-9, -1.3307327e-10, 2.8333349e+1
0.015, 2.2164559e-9, -1.3051708e-10, 2.8666683e+1
0.014, 2.2111037e-9, -1.2580409e-10, 2.9000017e+1
0.013, 2.2178936e-9, -1.2899933e-10, 2.9333351e+1
0.012, 2.2212487e-9, -1.2292836e-10, 2.9666685e+1
0.011, 2.2098257e-9, -1.2436623e-10, 3.0000019e+1
0.010, 2.2262812e-9, -1.1709703e-10, 3.0333353e+1
0.009, 2.2367457e-9, -1.1350238e-10, 3.0666687e+1
0.008, 2.2154174e-9, -1.1877453e-10, 3.1000021e+1
0.007, 2.2436155e-9, -1.1078641e-10, 3.1333355e+1
0.006, 2.2127813e-9, -1.1006749e-10, 3.1666689e+1
0.005, 2.2138997e-9, -1.0471544e-10, 3.2000023e+1
0.004, 2.2231659e-9, -1.0743140e-10, 3.2333355e+1
0.003, 2.2255624e-9, -9.1694798e-11, 3.2666687e+1
0.002, 2.2699762e-9, -1.1046689e-10, 3.3000019e+1
0.001, 2.2369855e-9, -9.6248030e-11, 3.3333351e+1
-0.000, 2.2330711e-9, -1.0024209e-10, 3.3666683e+1
-0.001, 2.2608697e-9, -9.4171115e-11, 3.4000015e+1
-0.002, 2.2419380e-9, -8.5464059e-11, 3.4333347e+1
-0.003, 2.2369055e-9, -9.2813132e-11, 3.4666679e+1
-0.004, 2.2859525e-9, -8.3387151e-11, 3.5000011e+1
-0.005, 2.2408997e-9, -7.1484839e-11, 3.5333344e+1
-0.006, 2.2475297e-9, -7.2523300e-11, 3.5666676e+1
-0.007, 2.2605504e-9, -6.8609118e-11, 3.6000008e+1
-0.008, 2.2529616e-9, -7.4839857e-11, 3.6333340e+1
-0.009, 2.2463313e-9, -6.6771845e-11, 3.6666672e+1
-0.010, 2.2688580e-9, -7.2603180e-11, 3.7000004e+1
-0.011, 2.2794822e-9, -5.7265984e-11, 3.7333336e+1
-0.012, 2.2521629e-9, -6.0860636e-11, 3.7666668e+1
-0.013, 2.2706153e-9, -6.3976005e-11, 3.8000000e+1
-0.014, 2.2905857e-9, -6.2138739e-11, 3.8333332e+1
-0.015, 2.2643847e-9, -5.8544086e-11, 3.8666664e+1
-0.016, 2.2703759e-9, -5.9422772e-11, 3.8999996e+1
-0.017, 2.2976949e-9, -5.3751208e-11, 3.9333328e+1
-0.018, 2.2984938e-9, -6.0461226e-11, 3.9666660e+1
-0.019, 2.2750886e-9, -4.7280825e-11, 3.9999992e+1
-0.020, 2.3656741e-9, -5.5348833e-11, 4.0333324e+1
-0.021, 2.3207809e-9, -5.1913942e-11, 4.0666656e+1
-0.022, 2.2956181e-9, -4.9597382e-11, 4.0999989e+1
-0.023, 2.3336417e-9, -3.8174366e-11, 4.1333321e+1
-0.024, 2.3099969e-9, -3.8414008e-11, 4.1666653e+1
-0.025, 2.3266920e-9, -2.8109329e-11, 4.1999985e+1
-0.026, 2.3522539e-9, -2.7550160e-11, 4.2333317e+1
-0.027, 2.3451445e-9, -3.6416977e-11, 4.2666649e+1
-0.028, 2.3425883e-9, -2.3316455e-11, 4.2999981e+1
-0.029, 2.3519344e-9, -2.3076811e-11, 4.3333313e+1
-0.030, 2.3549698e-9, -2.5313487e-11, 4.3666645e+1
-0.031, 2.3810911e-9, -1.3890470e-11, 4.3999977e+1
-0.032, 2.3514553e-9, -1.4209995e-11, 4.4333309e+1
-0.033, 2.4068127e-9, -2.4115269e-11, 4.4666641e+1
-0.034, 2.3730231e-9, -8.4585455e-12, 4.4999973e+1
-0.035, 2.3942714e-9, -8.3786641e-12, 4.5333305e+1
-0.036, 2.4552209e-9, -1.5887585e-12, 4.5666637e+1
-0.037, 2.4227091e-9, -1.7165599e-11, 4.5999969e+1
-0.038, 2.3905971e-9, -1.5248450e-11, 4.6333302e+1
-0.039, 2.4099283e-9, -1.3970351e-11, 4.6666634e+1
-0.040, 2.4228690e-9, -1.8443700e-11, 4.6999966e+1
-0.041, 2.4463540e-9, 6.8786526e-12, 4.7333298e+1
-0.042, 2.4756706e-9, -4.7840078e-12, 4.7666630e+1
-0.043, 2.4546618e-9, 7.2780592e-12, 4.7999962e+1
-0.044, 2.4682416e-9, -9.3372384e-12, 4.8333294e+1
-0.045, 2.4672828e-9, -4.7840078e-12, 4.8666626e+1
-0.046, 2.4952413e-9, 7.1182964e-12, 4.8999958e+1
-0.047, 2.4962798e-9, -1.0934863e-11, 4.9333290e+1
-0.048, 2.5164100e-9, 1.6783927e-11, 4.9666622e+1
-0.049, 2.5633802e-9, -1.3650826e-11, 4.9999954e+1
-0.050, 2.5314275e-9, -3.2662644e-12, 5.0333286e+1
-0.051, 2.5517972e-9, 1.2709983e-11, 5.0666618e+1
-0.052, 2.5859865e-9, -6.3018362e-13, 5.0999950e+1
-0.053, 2.5613829e-9, 1.4387489e-11, 5.1333282e+1
-0.054, 2.5874245e-9, -2.6272146e-12, 5.1666615e+1
-0.055, 2.6036402e-9, -3.2662644e-12, 5.1999947e+1
-0.056, 2.5914184e-9, 2.2455410e-12, 5.2333279e+1
-0.057, 2.6105900e-9, 4.6419782e-12, 5.2666611e+1
-0.058, 2.6182585e-9, 1.2550221e-11, 5.2999943e+1
-0.059, 2.6172200e-9, 1.2869661e-12, 5.3333275e+1
-0.060, 2.6186577e-9, 1.0073903e-11, 5.3666607e+1
-0.061, 2.6273650e-9, 1.5425945e-11, 5.3999939e+1
-0.062, 2.6534861e-9, 4.4023344e-12, 5.4333271e+1
-0.063, 2.6385483e-9, 7.7573468e-12, 5.4666603e+1
-0.064, 2.6381488e-9, 2.0857869e-11, 5.4999935e+1
-0.065, 2.6660274e-9, -1.9082834e-12, 5.5333267e+1
-0.066, 2.6585185e-9, 7.4378212e-12, 5.5666599e+1
-0.067, 2.6597169e-9, 2.0458463e-11, 5.5999931e+1
-0.068, 2.6936664e-9, 1.8221789e-11, 5.6333263e+1
-0.069, 2.6862375e-9, 1.7662536e-12, 5.6666595e+1
-0.070, 2.6931073e-9, -5.0236521e-12, 5.6999928e+1
-0.071, 2.6986189e-9, 4.4822158e-12, 5.7333260e+1
-0.072, 2.7006959e-9, 2.7248368e-11, 5.7666592e+1
-0.073, 2.7075657e-9, 2.4772051e-11, 5.7999924e+1
-0.074, 2.7221840e-9, 4.4982004e-11, 5.8333256e+1
-0.075, 2.7351248e-9, 2.3813475e-11, 5.8666588e+1
-0.076, 2.7422342e-9, 1.9659651e-11, 5.8999920e+1
-0.077, 2.7539768e-9, 1.7662536e-12, 5.9333252e+1
-0.078, 2.7566927e-9, 5.6804344e-12, 5.9666584e+1
-0.079, 2.7604470e-9, 1.4467286e-12, 5.9999916e+1
-0.080, 2.7618050e-9, -2.9467396e-12, 6.0333248e+1
-0.081, 2.7940772e-9, -2.2278084e-12, 6.0666580e+1
-0.082, 2.7927192e-9, -9.4970013e-12, 6.0999912e+1
-0.083, 2.7898435e-9, 2.6848962e-11, 6.1333244e+1
-0.084, 2.8617366e-9, 2.3573832e-11, 6.1666576e+1
-0.085, 2.8267486e-9, 2.6449472e-12, 6.1999908e+1
-0.086, 2.8797897e-9, 1.4547251e-11, 6.2333241e+1
-0.087, 2.9179730e-9, 1.5026539e-11, 6.2666573e+1
-0.088, 2.8959257e-9, 2.9245401e-11, 6.2999905e+1
-0.089, 2.9368248e-9, 3.1402193e-11, 6.3333237e+1
-0.090, 2.9798011e-9, 3.2840057e-11, 6.3666569e+1
-0.091, 3.0016885e-9, 2.7807538e-11, 6.3999901e+1
-0.092, 3.0371556e-9, 3.0363739e-11, 6.4333237e+1
-0.093, 3.0474603e-9, 2.9724688e-11, 6.4666573e+1
-0.094, 3.0833271e-9, 3.6834116e-11, 6.4999908e+1
-0.095, 3.1081702e-9, 3.7313406e-11, 6.5333244e+1
-0.096, 3.0969869e-9, 1.7422976e-11, 6.5666580e+1
-0.097, 3.1307765e-9, 2.3014663e-11, 6.5999916e+1
-0.098, 3.1305369e-9, 2.3414069e-11, 6.6333252e+1
-0.099, 3.1332530e-9, 1.9739533e-11, 6.6666588e+1
-0.100, 3.1516254e-9, 3.1561954e-11, 6.6999924e+1
-0.101, 3.1502676e-9, 2.2775020e-11, 6.7333260e+1
-0.102, 3.1866134e-9, 2.4772051e-11, 6.7666595e+1
-0.103, 3.1897289e-9, 2.7408131e-11, 6.7999931e+1
-0.104, 3.2013119e-9, 1.8301671e-11, 6.8333267e+1
-0.105, 3.2205631e-9, 4.2585567e-11, 6.8666603e+1
-0.106, 3.2568290e-9, 5.3209770e-11, 6.8999939e+1
-0.107, 3.2701695e-9, 1.8621195e-11, 6.9333275e+1
-0.108, 3.3152223e-9, 2.8206944e-11, 6.9666611e+1
-0.109, 3.3289620e-9, 3.5476139e-11, 6.9999947e+1
-0.110, 3.3711394e-9, 3.4916969e-11, 7.0333282e+1
-0.111, 3.4126775e-9, 2.9485043e-11, 7.0666618e+1
-0.112, 3.4359229e-9, 4.0348894e-11, 7.0999954e+1
-0.113, 3.5201975e-9, 1.2230696e-11, 7.1333290e+1
-0.114, 3.5167627e-9, 1.3908201e-11, 7.1666626e+1
-0.115, 3.5509520e-9, 2.7567894e-11, 7.1999962e+1
-0.116, 3.5969634e-9, 1.3588678e-11, 7.2333298e+1
-0.117, 3.6000789e-9, 2.6928843e-11, 7.2666634e+1
-0.118, 3.6134988e-9, 1.8461434e-11, 7.2999969e+1
-0.119, 3.6377830e-9, 1.9420007e-11, 7.3333305e+1
-0.120, 3.6373835e-9, 2.2854900e-11, 7.3666641e+1
-0.121, 3.6536791e-9, 2.4851846e-12, 7.3999977e+1
-0.122, 3.6728505e-9, 1.3349034e-11, 7.4333313e+1
-0.123, 3.6999304e-9, 1.5505828e-11, 7.4666649e+1
-0.124, 3.7289274e-9, 8.8756840e-12, 7.4999985e+1
-0.125, 3.7596815e-9, 1.7343096e-11, 7.5333321e+1
-0.126, 3.8011398e-9, 2.5650660e-12, 7.5666656e+1
-0.127, 3.8541810e-9, 1.5505828e-11, 7.5999992e+1
-0.128, 3.8928434e-9, 1.1112358e-11, 7.6333328e+1
-0.129, 3.9809525e-9, 1.7742502e-11, 7.6666664e+1
-0.130, 3.9994852e-9, 4.3224534e-12, 7.7000000e+1
-0.131, 4.0620320e-9, 4.1626906e-12, 7.7333336e+1
-0.132, 4.0934256e-9, -1.2692335e-12, 7.7666672e+1
-0.133, 4.1064459e-9, 1.1032477e-11, 7.8000008e+1
-0.134, 4.1281738e-9, 3.0443534e-12, 7.8333344e+1
-0.135, 4.1551735e-9, 2.4772051e-11, 7.8666679e+1
-0.136, 4.1682737e-9, 1.2470340e-11, 7.9000015e+1
-0.137, 4.2072563e-9, 2.6848962e-11, 7.9333351e+1
-0.138, 4.2553450e-9, -6.9408017e-12, 7.9666687e+1
-0.139, 4.3171728e-9, 1.6384520e-11, 8.0000023e+1
-0.140, 4.3779624e-9, 4.0109249e-11, 8.0333359e+1
-0.141, 4.4638346e-9, 1.8141908e-11, 8.0666695e+1
-0.142, 4.5020978e-9, 5.1212658e-12, 8.1000031e+1
-0.143, 4.5686388e-9, 7.2780592e-12, 8.1333366e+1
-0.144, 4.5949200e-9, -6.9408017e-12, 8.1666702e+1
-0.145, 4.6242361e-9, -8.0591393e-12, 8.2000038e+1
-0.146, 4.6412509e-9, -1.3171539e-11, 8.2333374e+1
-0.147, 4.6638573e-9, -8.6982738e-13, 8.2666710e+1
-0.148, 4.7206528e-9, 1.7822382e-11, 8.3000046e+1
-0.149, 4.7327151e-9, -4.7042112e-13, 8.3333382e+1
-0.150, 4.7932649e-9, 7.8372283e-12, 8.3666718e+1
-0.151, 4.8782582e-9, 1.9819413e-11, 8.4000053e+1
-0.152, 4.9259476e-9, 8.6360398e-12, 8.4333389e+1
-0.153, 5.0207669e-9, 2.6769080e-11, 8.4666725e+1
-0.154, 5.0771627e-9, 2.2135968e-11, 8.5000061e+1
-0.155, 5.0880264e-9, 1.0153784e-11, 8.5333397e+1
-0.156, 5.1224558e-9, -5.5030237e-13, 8.5666733e+1
-0.157, 5.1533697e-9, 5.3609092e-12, 8.6000069e+1
-0.158, 5.2132805e-9, 2.4851846e-12, 8.6333405e+1
-0.159, 5.2826969e-9, 8.0767869e-13, 8.6666740e+1
-0.160, 5.3132920e-9, 1.9819413e-11, 8.7000076e+1
-0.161, 5.4812022e-9, -8.6982738e-13, 8.7333412e+1
-0.162, 5.5039684e-9, 5.6803499e-13, 8.7666748e+1
-0.163, 5.5488618e-9, 7.0384150e-12, 8.8000084e+1
-0.164, 5.5922369e-9, -1.3171539e-11, 8.8333420e+1
-0.165, 5.6082929e-9, 1.4946658e-11, 8.8666756e+1
-0.166, 5.6447993e-9, -7.5798508e-12, 8.9000092e+1
-0.167, 5.7067866e-9, -5.9023455e-12, 8.9333427e+1
-0.168, 5.7365028e-9, -4.7042112e-13, 8.9666763e+1
-0.169, 5.8302834e-9, -1.1813557e-11, 9.0000099e+1
-0.170, 5.9540990e-9, -3.4260268e-12, 9.0333435e+1
-0.171, 6.0131313e-9, 1.6783927e-11, 9.0666771e+1
-0.172, 6.0705658e-9, 8.0768708e-12, 9.1000107e+1
-0.173, 6.1006014e-9, -2.0680460e-12, 9.1333443e+1
-0.174, 6.1655450e-9, 1.6064911e-12, 9.1666779e+1
-0.175, 6.2316063e-9, -2.6272146e-12, 9.2000114e+1
-0.176, 6.3625323e-9, 7.9171097e-12, 9.2333450e+1
-0.177, 6.4862675e-9, 1.6464401e-11, 9.2666786e+1
-0.178, 6.5446608e-9, -7.8994607e-13, 9.3000122e+1
-0.179, 6.5766930e-9, 3.6035220e-12, 9.3333458e+1
-0.180, 6.6452319e-9, -3.9053144e-12, 9.3666794e+1
-0.181, 6.6688761e-9, -1.1893438e-11, 9.4000130e+1
-0.182, 6.7271100e-9, -4.2248392e-12, 9.4333466e+1
-0.183, 6.8586745e-9, 1.2789865e-11, 9.4666801e+1
-0.184, 6.9582859e-9, 2.6449472e-12, 9.5000137e+1
-0.185, 7.0410433e-9, -8.6981880e-12, 9.5333473e+1
-0.186, 7.0769901e-9, 2.2295731e-11, 9.5666809e+1
-0.187, 7.1453679e-9, 4.5620968e-12, 9.6000145e+1
-0.188, 7.2484152e-9, -1.4369757e-11, 9.6333481e+1
-0.189, 7.3713520e-9, -1.0295814e-11, 9.6666817e+1
-0.190, 7.4795112e-9, 4.0269010e-11, 9.7000153e+1
-0.191, 7.5339104e-9, 5.0413844e-12, 9.7333488e+1
-0.192, 7.5649043e-9, 2.3893358e-11, 9.7666824e+1
-0.193, 7.6409510e-9, 4.7218592e-12, 9.8000160e+1
-0.194, 7.7594144e-9, 2.3254222e-12, 9.8333496e+1
-0.195, 7.8755624e-9, 1.9739533e-11, 9.8666832e+1
-0.196, 8.0225435e-9, 5.2011468e-12, 9.9000168e+1
-0.197, 8.0493843e-9, 1.3428915e-11, 9.9333504e+1
-0.198, 8.1370137e-9, 3.1721719e-11, 9.9666840e+1
-0.199, 8.2791223e-9, 5.6803499e-13, 1.0000018e+2
-0.200, 8.3830480e-9, 1.6304640e-11, 1.0033351e+2
-0.201, 8.4813818e-9, 2.9964333e-11, 1.0066685e+2
-0.202, 8.5325054e-9, 2.1417038e-11, 1.0100018e+2
-0.203, 8.5861860e-9, 6.9585340e-12, 1.0133352e+2
-0.204, 8.6364311e-9, 9.0354469e-12, 1.0166685e+2
-0.205, 8.7939567e-9, 1.4786896e-11, 1.0200019e+2
-0.206, 8.9815178e-9, 1.1591646e-11, 1.0233353e+2
-0.207, 9.0374348e-9, -3.8254335e-12, 1.0266686e+2
-0.208, 9.1277013e-9, 8.8747538e-14, 1.0300020e+2
-0.209, 9.3240482e-9, -4.0011636e-11, 1.0333353e+2
-0.210, 9.3434602e-9, -4.2727596e-11, 1.0366687e+2
-0.211, 9.5060182e-9, -1.0215932e-11, 1.0400021e+2
-0.212, 9.5966843e-9, 5.9999592e-12, 1.0433354e+2
-0.213, 9.7358370e-9, -8.2189013e-12, 1.0466688e+2
-0.214, 9.9074215e-9, -5.1035330e-12, 1.0500021e+2
-0.215, 1.0007433e-8, -5.5030237e-13, 1.0533355e+2
-0.216, 1.0088193e-8, -2.5473250e-11, 1.0566689e+2
-0.217, 1.0263932e-8, 8.3165150e-12, 1.0600022e+2
-0.218, 1.0423054e-8, 1.2070849e-12, 1.0633356e+2
-0.219, 1.0512442e-8, -6.3018362e-13, 1.0666689e+2
-0.220, 1.0596398e-8, 9.0354469e-12, 1.0700023e+2
-0.221, 1.0723249e-8, 8.5561584e-12, 1.0733356e+2
-0.222, 1.0894115e-8, 1.6064911e-12, 1.0766690e+2
-0.223, 1.0974235e-8, -7.1804455e-12, 1.0800024e+2
-0.224, 1.1053238e-8, 4.1626906e-12, 1.0833357e+2
-0.225, 1.1276106e-8, -1.4289877e-11, 1.0866691e+2
-0.226, 1.1404077e-8, 6.7987712e-12, 1.0900024e+2
-0.227, 1.1485236e-8, -1.5647856e-11, 1.0933358e+2
-0.228, 1.1692848e-8, -1.1653794e-11, 1.0966692e+2
-0.229, 1.1916755e-8, -2.2757286e-11, 1.1000025e+2
-0.230, 1.2041768e-8, -1.8603463e-11, 1.1033359e+2
-0.231, 1.2327743e-8, -2.0201087e-11, 1.1066692e+2
-0.232, 1.2444850e-8, -1.7964413e-11, 1.1100026e+2
-0.233, 1.2540228e-8, -3.2183273e-11, 1.1133360e+2
-0.234, 1.2719401e-8, -2.4993962e-11, 1.1166693e+2
-0.235, 1.2902809e-8, -2.0520611e-11, 1.1200027e+2
-0.236, 1.2986924e-8, -2.1239543e-11, 1.1233360e+2
-0.237, 1.3075911e-8, -2.6751348e-11, 1.1266694e+2
-0.238, 1.3317313e-8, -2.1878594e-11, 1.1300027e+2
-0.239, 1.3425951e-8, -1.9402275e-11, 1.1333361e+2
-0.240, 1.3488896e-8, -2.2757286e-11, 1.1366695e+2
-0.241, 1.3672385e-8, -1.5727739e-11, 1.1400028e+2
-0.242, 1.3854194e-8, -2.6831228e-11, 1.1433362e+2
-0.243, 1.3919616e-8, -3.2103389e-11, 1.1466695e+2
-0.244, 1.4056294e-8, -3.4260185e-11, 1.1500029e+2
-0.245, 1.4238742e-8, -3.1144819e-11, 1.1533363e+2
-0.246, 1.4405215e-8, -8.6183075e-12, 1.1566696e+2
-0.247, 1.4520642e-8, -3.2263154e-11, 1.1600030e+2
-0.248, 1.4715713e-8, -2.0440731e-11, 1.1633363e+2
-0.249, 1.4897203e-8, -1.4769162e-11, 1.1666697e+2
-0.250, 1.5029407e-8, -2.4754318e-11, 1.1700031e+2
-0.251, 1.5236619e-8, -3.3061966e-11, 1.1733364e+2
-0.252, 1.5373695e-8, -3.5378523e-11, 1.1766698e+2
-0.253, 1.5456692e-8, -3.8733534e-11, 1.1800031e+2
-0.254, 1.5704801e-8, -2.3396337e-11, 1.1833365e+2
-0.255, 1.5876708e-8, -4.5443559e-11, 1.1866698e+2
-0.256, 1.6038626e-8, -4.2168428e-11, 1.1900032e+2
-0.257, 1.6331631e-8, -3.5937694e-11, 1.1933366e+2
-0.258, 1.6429963e-8, -5.4550021e-11, 1.1966699e+2
-0.259, 1.6626393e-8, -3.9212824e-11, 1.2000033e+2
-0.260, 1.6858209e-8, -4.6881419e-11, 1.2033366e+2
-0.261, 1.7019088e-8, -3.7774960e-11, 1.2066700e+2
-0.262, 1.7323677e-8, -4.7360709e-11, 1.2100034e+2
-0.263, 1.7517706e-8, -5.5588475e-11, 1.2133367e+2
-0.264, 1.7781394e-8, -6.7970067e-11, 1.2166701e+2
-0.265, 1.7940758e-8, -5.8703847e-11, 1.2200034e+2
-0.266, 1.8274582e-8, -6.8688999e-11, 1.2233368e+2
-0.267, 1.8419406e-8, -6.2058858e-11, 1.2266702e+2
-0.268, 1.8575893e-8, -7.3961164e-11, 1.2300035e+2
-0.269, 1.8785103e-8, -6.6771845e-11, 1.2333369e+2
-0.270, 1.8856838e-8, -6.9168289e-11, 1.2366702e+2
-0.271, 1.9003739e-8, -7.8913799e-11, 1.2400036e+2
-0.272, 1.9259117e-8, -7.0765914e-11, 1.2433369e+2
-0.273, 1.9410255e-8, -6.6691971e-11, 1.2466703e+2
-0.274, 1.9685205e-8, -6.8049948e-11, 1.2500037e+2
-0.275, 1.9810059e-8, -6.1579568e-11, 1.2533370e+2
-0.276, 1.9998021e-8, -5.7026339e-11, 1.2566704e+2
-0.277, 2.0235188e-8, -5.1195007e-11, 1.2600037e+2
-0.278, 2.0341909e-8, -5.8863608e-11, 1.2633371e+2
-0.279, 2.0464846e-8, -6.5254108e-11, 1.2666705e+2
-0.280, 2.0649532e-8, -6.3896125e-11, 1.2700038e+2
-0.281, 2.0771429e-8, -5.7186100e-11, 1.2733372e+2
-0.282, 2.0858341e-8, -5.9023370e-11, 1.2766705e+2
-0.283, 2.1170358e-8, -5.8064796e-11, 1.2800038e+2
-0.284, 2.1344418e-8, -6.7251135e-11, 1.2833371e+2
-0.285, 2.1671532e-8, -6.3097312e-11, 1.2866704e+2
-0.286, 2.1835129e-8, -7.0446385e-11, 1.2900037e+2
-0.287, 2.2099774e-8, -5.9742301e-11, 1.2933369e+2
-0.288, 2.2235813e-8, -6.7171255e-11, 1.2966702e+2
-0.289, 2.2335824e-8, -6.9967102e-11, 1.3000035e+2
-0.290, 2.2473699e-8, -6.5174220e-11, 1.3033368e+2
-0.291, 2.2688020e-8, -6.6372442e-11, 1.3066701e+2
-0.292, 2.2856010e-8, -7.5239259e-11, 1.3100034e+2
-0.293, 2.3176014e-8, -6.8049948e-11, 1.3133366e+2
-0.294, 2.3331065e-8, -7.7715584e-11, 1.3166699e+2
-0.295, 2.3665127e-8, -7.7475935e-11, 1.3200032e+2
-0.296, 2.3799249e-8, -7.0446385e-11, 1.3233365e+2
-0.297, 2.4107750e-8, -8.4745128e-11, 1.3266698e+2
-0.298, 2.4277337e-8, -8.6742155e-11, 1.3300031e+2
-0.299, 2.4658851e-8, -7.5558781e-11, 1.3333363e+2
-0.300, 2.4944745e-8, -8.2508451e-11, 1.3366696e+2
-0.301, 2.5197410e-8, -7.8993680e-11, 1.3400029e+2
-0.302, 2.5487617e-8, -7.8035106e-11, 1.3433362e+2
-0.303, 2.5725823e-8, -8.6103104e-11, 1.3466695e+2
-0.304, 2.6097590e-8, -8.9777644e-11, 1.3500027e+2
-0.305, 2.6373899e-8, -8.9458121e-11, 1.3533360e+2
-0.306, 2.6637430e-8, -9.4969928e-11, 1.3566693e+2
-0.307, 2.6749424e-8, -7.6357594e-11, 1.3600026e+2
-0.308, 2.6902953e-8, -9.4810167e-11, 1.3633359e+2
-0.309, 2.6977725e-8, -9.0017292e-11, 1.3666692e+2
-0.310, 2.7024294e-8, -9.7685887e-11, 1.3700024e+2
-0.311, 2.7121988e-8, -8.6422633e-11, 1.3733357e+2
-0.312, 2.7161930e-8, -9.7925529e-11, 1.3766690e+2
-0.313, 2.7306193e-8, -9.9363399e-11, 1.3800023e+2
-0.314, 2.7559736e-8, -1.0088114e-10, 1.3833356e+2
-0.315, 2.7688905e-8, -1.1557929e-10, 1.3866689e+2
-0.316, 2.8030799e-8, -1.1286333e-10, 1.3900021e+2
-0.317, 2.8195274e-8, -1.0136043e-10, 1.3933354e+2
-0.318, 2.8276670e-8, -1.0319769e-10, 1.3966687e+2
-0.319, 2.8490115e-8, -9.7765775e-11, 1.4000020e+2
-0.320, 2.8648040e-8, -1.0535450e-10, 1.4033353e+2
-0.321, 2.8970760e-8, -1.0407639e-10, 1.4066685e+2
-0.322, 2.9170064e-8, -1.1030712e-10, 1.4100018e+2
-0.323, 2.9593114e-8, -1.1262367e-10, 1.4133351e+2
-0.324, 3.0098203e-8, -1.1981299e-10, 1.4166684e+2
-0.325, 3.0493457e-8, -1.1446095e-10, 1.4200017e+2
-0.326, 3.0941749e-8, -1.2308812e-10, 1.4233350e+2
-0.327, 3.1281882e-8, -1.2636325e-10, 1.4266682e+2
-0.328, 3.1676816e-8, -1.2468575e-10, 1.4300015e+2
-0.329, 3.2098107e-8, -1.2684254e-10, 1.4333348e+2
-0.330, 3.2521083e-8, -1.2380706e-10, 1.4366681e+2
-0.331, 3.2896601e-8, -1.2364729e-10, 1.4400014e+2
-0.332, 3.3110126e-8, -1.3379221e-10, 1.4433347e+2
-0.333, 3.3424296e-8, -1.3371232e-10, 1.4466679e+2
-0.334, 3.3580466e-8, -1.3674782e-10, 1.4500012e+2
-0.335, 3.3847510e-8, -1.2604373e-10, 1.4533345e+2
-0.336, 3.4130210e-8, -1.3323304e-10, 1.4566678e+2
-0.337, 3.4551583e-8, -1.3578924e-10, 1.4600011e+2
-0.338, 3.4973837e-8, -1.3570936e-10, 1.4633344e+2
-0.339, 3.5396170e-8, -1.4194010e-10, 1.4666676e+2
-0.340, 3.5891990e-8, -1.4194010e-10, 1.4700009e+2
-0.341, 3.6169816e-8, -1.4617381e-10, 1.4733342e+2
-0.342, 3.6469132e-8, -1.3898449e-10, 1.4766675e+2
-0.343, 3.6524490e-8, -1.4441641e-10, 1.4800008e+2
-0.344, 3.6461543e-8, -1.4329808e-10, 1.4833340e+2
-0.345, 3.6376708e-8, -1.4625369e-10, 1.4866673e+2
-0.346, 3.6173013e-8, -1.5064716e-10, 1.4900006e+2
-0.347, 3.6045282e-8, -1.4609391e-10, 1.4933339e+2
-0.348, 3.5965002e-8, -1.4449629e-10, 1.4966672e+2
-0.349, 3.5912841e-8, -1.4369748e-10, 1.5000005e+2
-0.350, 3.5865629e-8, -1.5464122e-10, 1.5033337e+2
-0.351, 3.5832478e-8, -1.5240453e-10, 1.5066670e+2
-0.352, 3.5820097e-8, -1.4529511e-10, 1.5100003e+2
-0.353, 3.5902055e-8, -1.5200513e-10, 1.5133336e+2
-0.354, 3.5856445e-8, -1.5823587e-10, 1.5166669e+2
-0.355, 3.5848696e-8, -1.5983349e-10, 1.5200002e+2
-0.356, 3.5893187e-8, -1.4521523e-10, 1.5233334e+2
-0.357, 3.5919548e-8, -1.5711753e-10, 1.5266667e+2
-0.358, 3.5975866e-8, -1.5344299e-10, 1.5300000e+2
-0.359, 3.6058061e-8, -1.5056727e-10, 1.5333333e+2
-0.360, 3.6216548e-8, -1.6183052e-10, 1.5366666e+2
-0.361, 3.6483911e-8, -1.6622399e-10, 1.5399998e+2
-0.362, 3.6903366e-8, -1.6207016e-10, 1.5433331e+2
-0.363, 3.7386410e-8, -1.6494589e-10, 1.5466664e+2
-0.364, 3.7919136e-8, -1.7620914e-10, 1.5499997e+2
-0.365, 3.8367510e-8, -1.7053757e-10, 1.5533330e+2
-0.366, 3.8811010e-8, -1.7469140e-10, 1.5566663e+2
-0.367, 3.9283428e-8, -1.7596950e-10, 1.5599995e+2
-0.368, 3.9830375e-8, -1.9098717e-10, 1.5633328e+2
-0.369, 4.0296563e-8, -1.9274457e-10, 1.5666661e+2
-0.370, 4.0835204e-8, -1.8587479e-10, 1.5699994e+2
-0.371, 4.1466819e-8, -1.9338361e-10, 1.5733327e+2
-0.372, 4.2225853e-8, -1.9721792e-10, 1.5766660e+2
-0.373, 4.2841016e-8, -1.9386290e-10, 1.5799992e+2
-0.374, 4.3451870e-8, -1.8803158e-10, 1.5833325e+2
-0.375, 4.3968942e-8, -2.0033329e-10, 1.5866658e+2
-0.376, 4.4427143e-8, -1.9250493e-10, 1.5899991e+2
-0.377, 4.4800984e-8, -2.0392793e-10, 1.5933324e+2
-0.378, 4.4969376e-8, -1.9530076e-10, 1.5966656e+2
-0.379, 4.5173152e-8, -2.0904034e-10, 1.5999989e+2
-0.380, 4.5233779e-8, -2.0336877e-10, 1.6033322e+2
-0.381, 4.5235939e-8, -2.1039832e-10, 1.6066655e+2
-0.382, 4.5132651e-8, -1.9913507e-10, 1.6099988e+2
-0.383, 4.4901558e-8, -2.0073268e-10, 1.6133321e+2
-0.384, 4.4781096e-8, -2.0592497e-10, 1.6166653e+2
-0.385, 4.4708401e-8, -2.0872082e-10, 1.6199986e+2
-0.386, 4.4536819e-8, -2.0840128e-10, 1.6233319e+2
-0.387, 4.4447752e-8, -2.1495156e-10, 1.6266652e+2
-0.388, 4.4416993e-8, -2.0336877e-10, 1.6299985e+2
-0.389, 4.4390951e-8, -2.0935985e-10, 1.6333318e+2
-0.390, 4.4788365e-8, -2.1950478e-10, 1.6366650e+2
-0.391, 4.5755247e-8, -2.3348398e-10, 1.6399983e+2
-0.392, 4.6744976e-8, -2.3028875e-10, 1.6433316e+2
-0.393, 4.7428440e-8, -2.3356389e-10, 1.6466649e+2
-0.394, 4.7722960e-8, -2.3667923e-10, 1.6499982e+2
-0.395, 4.7752756e-8, -2.4834193e-10, 1.6533315e+2
-0.396, 4.7909722e-8, -2.4067331e-10, 1.6566647e+2
-0.397, 4.8268628e-8, -2.5105787e-10, 1.6599980e+2
-0.398, 4.8738649e-8, -2.5057859e-10, 1.6633313e+2
-0.399, 4.9081819e-8, -2.4922059e-10, 1.6666646e+2
-0.400, 4.9216499e-8, -2.4602534e-10, 1.6699979e+2
-0.401, 4.9233595e-8, -2.5880634e-10, 1.6733311e+2
-0.402, 4.8907118e-8, -2.5401348e-10, 1.6766644e+2
-0.403, 4.8276377e-8, -2.6008445e-10, 1.6799977e+2
-0.404, 4.7534282e-8, -2.6256078e-10, 1.6833310e+2
-0.405, 4.7244072e-8, -2.8181213e-10, 1.6866643e+2
-0.406, 4.7963326e-8, -2.9826769e-10, 1.6899976e+2
-0.407, 4.9798835e-8, -3.0569663e-10, 1.6933308e+2
-0.408, 5.1970645e-8, -3.1767880e-10, 1.6966641e+2
-0.409, 5.3746088e-8, -3.3605149e-10, 1.6999974e+2
-0.410, 5.4825200e-8, -3.3413436e-10, 1.7033307e+2
-0.411, 5.5557873e-8, -3.4675560e-10, 1.7066640e+2
-0.412, 5.5944099e-8, -3.4260178e-10, 1.7099973e+2
-0.413, 5.6053217e-8, -3.7223771e-10, 1.7133305e+2
-0.414, 5.6218969e-8, -3.6273184e-10, 1.7166638e+2
-0.415, 5.6112011e-8, -3.6424957e-10, 1.7199971e+2
-0.416, 5.5904639e-8, -3.6864303e-10, 1.7233304e+2
-0.417, 5.5906074e-8, -3.7774953e-10, 1.7266637e+2
-0.418, 5.6095153e-8, -3.6896258e-10, 1.7299969e+2
-0.419, 5.6460291e-8, -3.8070511e-10, 1.7333302e+2
-0.420, 5.6904828e-8, -3.7071995e-10, 1.7366635e+2
-0.421, 5.7769942e-8, -4.0778486e-10, 1.7399968e+2
-0.422, 5.8996516e-8, -4.2847409e-10, 1.7433301e+2
-0.423, 6.0015807e-8, -4.1633216e-10, 1.7466634e+2
-0.424, 6.1092763e-8, -4.4860415e-10, 1.7499966e+2
-0.425, 6.2181947e-8, -4.6489992e-10, 1.7533299e+2
-0.426, 6.3028764e-8, -4.6561888e-10, 1.7566632e+2
-0.427, 6.3468669e-8, -4.7145021e-10, 1.7599965e+2
-0.428, 6.3835721e-8, -4.6529933e-10, 1.7633298e+2
-0.429, 6.3949393e-8, -4.6106563e-10, 1.7666631e+2
-0.430, 6.4147578e-8, -4.9110099e-10, 1.7699963e+2
-0.431, 6.4008987e-8, -4.8471049e-10, 1.7733296e+2
-0.432, 6.3477060e-8, -4.7105081e-10, 1.7766629e+2
-0.433, 6.2542931e-8, -4.3989715e-10, 1.7799962e+2
-0.434, 6.1502639e-8, -4.3446519e-10, 1.7833295e+2
-0.435, 6.0556758e-8, -4.5443549e-10, 1.7866628e+2
-0.436, 6.0046474e-8, -4.3758056e-10, 1.7899960e+2
-0.437, 5.9898142e-8, -4.5659232e-10, 1.7933293e+2
-0.438, 5.9855005e-8, -4.5155976e-10, 1.7966626e+2
-0.439, 5.9677831e-8, -4.5371656e-10, 1.7999959e+2
-0.440, 5.9414383e-8, -4.4205389e-10, 1.8033292e+2
-0.441, 5.9045803e-8, -4.6489992e-10, 1.8066624e+2
-0.442, 5.8706391e-8, -4.5795026e-10, 1.8099957e+2
-0.443, 5.8786192e-8, -4.3957760e-10, 1.8133290e+2
-0.444, 5.8989812e-8, -4.5659232e-10, 1.8166623e+2
-0.445, 5.9403277e-8, -4.5954790e-10, 1.8199956e+2
-0.446, 6.0055982e-8, -4.7704191e-10, 1.8233289e+2
-0.447, 6.0850162e-8, -4.9956844e-10, 1.8266621e+2
-0.448, 6.1847160e-8, -5.1338783e-10, 1.8299954e+2
-0.449, 6.3162645e-8, -5.2808602e-10, 1.8333287e+2
-0.450, 6.4695165e-8, -5.2768656e-10, 1.8366620e+2
-0.451, 6.5831159e-8, -5.3271915e-10, 1.8399953e+2
-0.452, 6.6370433e-8, -5.4206523e-10, 1.8433286e+2
-0.453, 6.6353664e-8, -5.4286403e-10, 1.8466618e+2
-0.454, 6.5991159e-8, -5.4270427e-10, 1.8499951e+2
-0.455, 6.5804237e-8, -5.4773680e-10, 1.8533284e+2
-0.456, 6.5801117e-8, -5.5276927e-10, 1.8566617e+2
-0.457, 6.6239593e-8, -5.4837584e-10, 1.8599950e+2
-0.458, 6.7304249e-8, -5.6323379e-10, 1.8633282e+2
-0.459, 6.8993096e-8, -5.8440225e-10, 1.8666615e+2
-0.460, 7.1076002e-8, -5.9095256e-10, 1.8699948e+2
-0.461, 7.3086689e-8, -6.0253530e-10, 1.8733281e+2
-0.462, 7.4425181e-8, -6.0996430e-10, 1.8766614e+2
-0.463, 7.5089957e-8, -6.1116251e-10, 1.8799947e+2
-0.464, 7.4852544e-8, -6.0612998e-10, 1.8833279e+2
-0.465, 7.3743401e-8, -5.9798205e-10, 1.8866612e+2
-0.466, 7.2018921e-8, -5.9183125e-10, 1.8899945e+2
-0.467, 7.0483040e-8, -5.8344368e-10, 1.8933278e+2
-0.468, 6.9951994e-8, -5.9438743e-10, 1.8966611e+2
-0.469, 7.0256419e-8, -5.9151173e-10, 1.8999944e+2
-0.470, 7.0820377e-8, -6.0620986e-10, 1.9033276e+2
-0.471, 7.1337375e-8, -5.8679872e-10, 1.9066609e+2
-0.472, 7.1791575e-8, -6.1244060e-10, 1.9099942e+2
-0.473, 7.2218619e-8, -6.1220096e-10, 1.9133275e+2
-0.474, 7.2461063e-8, -6.0557082e-10, 1.9166608e+2
-0.475, 7.2167573e-8, -5.9542593e-10, 1.9199940e+2
-0.476, 7.1438819e-8, -6.0333416e-10, 1.9233273e+2
-0.477, 7.0854654e-8, -5.9662408e-10, 1.9266606e+2
-0.478, 7.0509003e-8, -5.8759753e-10, 1.9299939e+2
-0.479, 7.0363299e-8, -6.0141697e-10, 1.9333272e+2
-0.480, 7.0781319e-8, -6.0517141e-10, 1.9366605e+2
-0.481, 7.1719285e-8, -5.7417748e-10, 1.9399937e+2
-0.482, 7.3171130e-8, -6.3960021e-10, 1.9433270e+2
-0.483, 7.4620814e-8, -6.2458255e-10, 1.9466603e+2
-0.484, 7.5709359e-8, -6.4167710e-10, 1.9499936e+2
-0.485, 7.6590283e-8, -6.4391376e-10, 1.9533269e+2
-0.486, 7.6977628e-8, -6.4399369e-10, 1.9566602e+2
-0.487, 7.7134032e-8, -6.4279543e-10, 1.9599934e+2
-0.488, 7.7103842e-8, -6.4623035e-10, 1.9633267e+2
-0.489, 7.6724007e-8, -6.4974509e-10, 1.9666600e+2
-0.490, 7.6588606e-8, -6.4774808e-10, 1.9699933e+2
-0.491, 7.6272116e-8, -6.4734867e-10, 1.9733266e+2
-0.492, 7.5872947e-8, -6.5581612e-10, 1.9766599e+2
-0.493, 7.5798425e-8, -6.5869182e-10, 1.9799931e+2
-0.494, 7.6573748e-8, -6.6124800e-10, 1.9833264e+2
-0.495, 7.7346279e-8, -6.6372435e-10, 1.9866597e+2
-0.496, 7.7302502e-8, -6.6084860e-10, 1.9899930e+2
-0.497, 7.6608814e-8, -6.5653499e-10, 1.9933263e+2
-0.498, 7.5814633e-8, -6.5581612e-10, 1.9966595e+2
-0.499, 7.5028765e-8, -6.4798777e-10, 1.9999928e+2
-0.500, 7.2247694e-8, -6.4231620e-10, 2.0033261e+2
-0.499, 7.0504129e-8, -6.2865646e-10, 2.0066594e+2
-0.498, 6.9078808e-8, -6.2530148e-10, 2.0099927e+2
-0.497, 6.7712200e-8, -6.1020389e-10, 2.0133260e+2
-0.496, 6.5977815e-8, -5.9446731e-10, 2.0166592e+2
-0.495, 6.3833170e-8, -5.7873067e-10, 2.0199925e+2
-0.494, 6.2187937e-8, -5.7146154e-10, 2.0233258e+2
-0.493, 6.1098994e-8, -5.6626925e-10, 2.0266591e+2
-0.492, 6.0816532e-8, -5.5348820e-10, 2.0299924e+2
-0.491, 6.1242226e-8, -5.6515093e-10, 2.0333257e+2
-0.490, 6.2230349e-8, -5.7034316e-10, 2.0366589e+2
-0.489, 6.3490958e-8, -5.6738758e-10, 2.0399922e+2
-0.488, 6.4820100e-8, -5.7793192e-10, 2.0433255e+2
-0.487, 6.6049239e-8, -5.7289934e-10, 2.0466588e+2
-0.486, 6.7179791e-8, -5.8256500e-10, 2.0499921e+2
-0.485, 6.8224239e-8, -5.7186095e-10, 2.0533253e+2
-0.484, 6.8759846e-8, -5.6946453e-10, 2.0566586e+2
-0.483, 6.8736121e-8, -5.5133148e-10, 2.0599919e+2
-0.482, 6.8629959e-8, -5.6419236e-10, 2.0633252e+2
-0.481, 6.8804496e-8, -5.5780180e-10, 2.0666585e+2
-0.480, 6.9126500e-8, -5.4693799e-10, 2.0699918e+2
-0.479, 6.8039320e-8, -5.3663329e-10, 2.0733250e+2
-0.478, 6.6062896e-8, -5.2089666e-10, 2.0766583e+2
-0.477, 6.3712314e-8, -4.7416615e-10, 2.0799916e+2
-0.476, 6.1584828e-8, -4.5850942e-10, 2.0833249e+2
-0.475, 5.9529405e-8, -4.2975221e-10, 2.0866582e+2
-0.474, 5.7535892e-8, -4.2551848e-10, 2.0899915e+2
-0.473, 5.6063360e-8, -3.8310155e-10, 2.0933247e+2
-0.472, 5.4967870e-8, -3.9077014e-10, 2.0966580e+2
-0.471, 5.3745449e-8, -3.7966666e-10, 2.0999913e+2
-0.470, 5.3042012e-8, -3.5426442e-10, 2.1033246e+2
-0.469, 5.2620877e-8, -3.4571715e-10, 2.1066579e+2
-0.468, 5.2155972e-8, -3.2886222e-10, 2.1099911e+2
-0.467, 5.1750572e-8, -3.5074965e-10, 2.1133244e+2
-0.466, 5.1598715e-8, -3.4068462e-10, 2.1166577e+2
-0.465, 5.1658631e-8, -3.2582670e-10, 2.1199910e+2
-0.464, 5.1977754e-8, -3.3269651e-10, 2.1233243e+2
-0.463, 5.1951634e-8, -3.3716985e-10, 2.1266576e+2
-0.462, 5.1649522e-8, -3.0593628e-10, 2.1299908e+2
-0.461, 5.1298361e-8, -3.0825284e-10, 2.1333241e+2
-0.460, 5.1054890e-8, -3.0809308e-10, 2.1366574e+2
-0.459, 5.0785207e-8, -3.0817293e-10, 2.1399907e+2
-0.458, 5.0645255e-8, -3.1823799e-10, 2.1433240e+2
-0.457, 5.0211902e-8, -2.7622046e-10, 2.1466573e+2
-0.456, 4.9835499e-8, -2.8476776e-10, 2.1499905e+2
-0.455, 4.9626770e-8, -2.7893643e-10, 2.1533238e+2
-0.454, 4.9747950e-8, -2.8772335e-10, 2.1566571e+2
-0.453, 5.0491167e-8, -2.9251623e-10, 2.1599904e+2
-0.452, 5.1656151e-8, -3.1871727e-10, 2.1633237e+2
-0.451, 5.3240921e-8, -3.5921704e-10, 2.1666570e+2
-0.450, 5.4819132e-8, -3.8206310e-10, 2.1699902e+2
-0.449, 5.6479383e-8, -4.1137954e-10, 2.1733235e+2
-0.448, 5.7871791e-8, -4.3957760e-10, 2.1766568e+2
-0.447, 5.8471461e-8, -4.1745049e-10, 2.1799901e+2
-0.446, 5.8319767e-8, -4.2575812e-10, 2.1833234e+2
-0.445, 5.7501705e-8, -4.0187365e-10, 2.1866566e+2
-0.444, 5.6046986e-8, -3.4947156e-10, 2.1899899e+2
-0.443, 5.4345197e-8, -3.2702493e-10, 2.1933232e+2
-0.442, 5.2395695e-8, -2.8013464e-10, 2.1966565e+2
-0.441, 5.0656521e-8, -2.7789798e-10, 2.1999898e+2
-0.440, 4.9513019e-8, -2.5984481e-10, 2.2033231e+2
-0.439, 4.9191339e-8, -2.7022937e-10, 2.2066563e+2
-0.438, 4.9301175e-8, -2.7110805e-10, 2.2099896e+2
-0.437, 4.9691312e-8, -2.7238614e-10, 2.2133229e+2
-0.436, 4.9691796e-8, -2.6072350e-10, 2.2166562e+2
-0.435, 4.9504632e-8, -2.5201646e-10, 2.2199895e+2
-0.434, 4.9096279e-8, -2.5585076e-10, 2.2233228e+2
-0.433, 4.8536709e-8, -2.4426797e-10, 2.2266560e+2
-0.432, 4.7751396e-8, -2.2853136e-10, 2.2299893e+2
-0.431, 4.6827093e-8, -2.1079771e-10, 2.2333226e+2
-0.430, 4.5952554e-8, -2.0935985e-10, 2.2366559e+2
-0.429, 4.5341540e-8, -2.0129184e-10, 2.2399892e+2
-0.428, 4.5194561e-8, -2.1079771e-10, 2.2433224e+2
-0.427, 4.5210776e-8, -1.9625933e-10, 2.2466557e+2
-0.426, 4.5054769e-8, -1.9258480e-10, 2.2499890e+2
-0.425, 4.4746987e-8, -1.8515585e-10, 2.2533223e+2
-0.424, 4.4073825e-8, -1.8116179e-10, 2.2566556e+2
-0.423, 4.3110457e-8, -1.7149615e-10, 2.2599889e+2
-0.422, 4.2143416e-8, -1.6989853e-10, 2.2633221e+2
-0.421, 4.1228219e-8, -1.6790150e-10, 2.2666554e+2
-0.420, 4.0446899e-8, -1.6127136e-10, 2.2699887e+2
-0.419, 3.9813440e-8, -1.5839563e-10, 2.2733220e+2
-0.418, 3.9080131e-8, -1.5783647e-10, 2.2766553e+2
-0.417, 3.8793676e-8, -1.4880988e-10, 2.2799886e+2
-0.416, 3.8960309e-8, -1.4984834e-10, 2.2833218e+2
-0.415, 3.9746020e-8, -1.5224479e-10, 2.2866551e+2
-0.414, 4.1209045e-8, -1.4960870e-10, 2.2899884e+2
-0.413, 4.3223970e-8, -1.5216489e-10, 2.2933217e+2
-0.412, 4.5422780e-8, -7.8833919e-11, 2.2966550e+2
-0.411, 4.6896751e-8, -2.5968505e-10, 2.2999883e+2
-0.410, 4.6737306e-8, -2.5976490e-10, 2.3033215e+2
-0.409, 4.6474177e-8, -1.4976845e-10, 2.3066548e+2
-0.408, 4.6274476e-8, -1.6854056e-10, 2.3099881e+2
-0.407, 4.6008392e-8, -1.5264418e-10, 2.3133214e+2
-0.406, 4.5794391e-8, -1.6430685e-10, 2.3166547e+2
-0.405, 4.5490282e-8, -1.5440157e-10, 2.3199879e+2
-0.404, 4.5127781e-8, -1.4873000e-10, 2.3233212e+2
-0.403, 4.4830859e-8, -1.4569451e-10, 2.3266545e+2
-0.402, 4.4865530e-8, -1.3986319e-10, 2.3299878e+2
-0.401, 4.5229388e-8, -1.4337796e-10, 2.3333211e+2
-0.400, 4.5659949e-8, -1.4186022e-10, 2.3366544e+2
-0.399, 4.6140674e-8, -1.4401701e-10, 2.3399876e+2
-0.398, 4.6396135e-8, -1.3946377e-10, 2.3433209e+2
-0.397, 4.6536805e-8, -1.3147566e-10, 2.3466542e+2
-0.396, 4.6407315e-8, -1.4233950e-10, 2.3499875e+2
-0.395, 4.6021331e-8, -1.4026259e-10, 2.3533208e+2
-0.394, 4.5093991e-8, -1.3483066e-10, 2.3566541e+2
-0.393, 4.3817245e-8, -1.2500527e-10, 2.3599873e+2
-0.392, 4.2389210e-8, -1.0902903e-10, 2.3633206e+2
-0.391, 4.0965649e-8, -1.1254380e-10, 2.3666539e+2
-0.390, 3.9608224e-8, -1.0136043e-10, 2.3699872e+2
-0.389, 3.8392752e-8, -1.0112079e-10, 2.3733205e+2
-0.388, 3.7681648e-8, -1.0303793e-10, 2.3766537e+2
-0.387, 3.7517733e-8, -9.8484700e-11, 2.3799870e+2
-0.386, 3.7950052e-8, -1.0815034e-10, 2.3833203e+2
-0.385, 3.8263025e-8, -9.6647433e-11, 2.3866536e+2
-0.384, 3.8116525e-8, -9.4410764e-11, 2.3899869e+2
-0.383, 3.7804025e-8, -9.6807194e-11, 2.3933202e+2
-0.382, 3.7456225e-8, -9.3212542e-11, 2.3966534e+2
-0.381, 3.7438650e-8, -9.8564580e-11, 2.3999867e+2
-0.380, 3.7470361e-8, -8.4345725e-11, 2.4033200e+2
-0.379, 3.7475314e-8, -8.4904889e-11, 2.4066533e+2
-0.378, 3.7497202e-8, -8.2428571e-11, 2.4099866e+2
-0.377, 3.7434098e-8, -7.2842829e-11, 2.4133199e+2
-0.376, 3.7098037e-8, -9.3452183e-11, 2.4166531e+2
-0.375, 3.6457546e-8, -7.8674157e-11, 2.4199864e+2
-0.374, 3.5447691e-8, -7.0526265e-11, 2.4233197e+2
-0.373, 3.4348204e-8, -7.2683061e-11, 2.4266530e+2
-0.372, 3.3375251e-8, -7.4280686e-11, 2.4299863e+2
-0.371, 3.2590496e-8, -6.2298500e-11, 2.4333195e+2
-0.370, 3.2058328e-8, -6.1419807e-11, 2.4366528e+2
-0.369, 3.1547568e-8, -6.6691971e-11, 2.4399861e+2
-0.368, 3.1035530e-8, -5.3192041e-11, 2.4433194e+2
-0.367, 3.0525090e-8, -5.2393229e-11, 2.4466527e+2
-0.366, 3.0276738e-8, -4.5683204e-11, 2.4499860e+2
-0.365, 3.0434663e-8, -4.1769019e-11, 2.4533192e+2
-0.364, 3.0591071e-8, -5.6706813e-11, 2.4566525e+2
-0.363, 3.0870574e-8, -4.5603323e-11, 2.4599858e+2
-0.362, 3.1049268e-8, -5.9342899e-11, 2.4633191e+2
-0.361, 3.1314954e-8, -5.1115129e-11, 2.4666524e+2
-0.360, 3.1637516e-8, -4.5044152e-11, 2.4699857e+2
-0.359, 3.1973897e-8, -5.3591444e-11, 2.4733189e+2
-0.358, 3.2058889e-8, -5.4070734e-11, 2.4766522e+2
-0.357, 3.2044351e-8, -4.2088544e-11, 2.4799855e+2
-0.356, 3.1989551e-8, -5.1514532e-11, 2.4833188e+2
-0.355, 3.1864296e-8, -2.2517642e-11, 2.4866521e+2
-0.354, 3.1686643e-8, -4.4724627e-11, 2.4899854e+2
-0.353, 3.1668907e-8, -5.1834058e-11, 2.4933186e+2
-0.352, 3.1926287e-8, -5.0476078e-11, 2.4966519e+2
-0.351, 3.2075103e-8, -3.9053059e-11, 2.4999852e+2
-0.350, 3.2289506e-8, -4.6961299e-11, 2.5033185e+2
-0.349, 3.2158500e-8, -3.5538288e-11, 2.5066518e+2
-0.348, 3.1753903e-8, -3.5298642e-11, 2.5099850e+2
-0.347, 3.1204959e-8, -3.3940659e-11, 2.5133183e+2
-0.346, 3.0695798e-8, -2.9307549e-11, 2.5166516e+2
-0.345, 3.0189828e-8, -1.2852013e-11, 2.5199849e+2
-0.344, 2.9633373e-8, -1.7325362e-11, 2.5233182e+2
-0.343, 2.9088026e-8, -1.0375695e-11, 2.5266515e+2
-0.342, 2.8317890e-8, -1.9881646e-12, 2.5299847e+2
-0.341, 2.7641377e-8, 1.2070933e-11, 2.5333180e+2
-0.340, 2.7070623e-8, 1.2949627e-11, 2.5366513e+2
-0.339, 2.6513693e-8, 2.0458463e-11, 2.5399846e+2
-0.338, 2.5977290e-8, 1.6064911e-12, 2.5433179e+2
-0.337, 2.5507269e-8, 2.1896325e-11, 2.5466512e+2
-0.336, 2.5161782e-8, 9.5147336e-12, 2.5499844e+2
-0.335, 2.4866381e-8, 2.5411102e-11, 2.5533177e+2
-0.334, 2.4756785e-8, 2.9485043e-11, 2.5566510e+2
-0.333, 2.4813341e-8, 2.4851933e-11, 2.5599843e+2
-0.332, 2.5076629e-8, 1.4067964e-11, 2.5633176e+2
-0.331, 2.5177361e-8, 1.7422976e-11, 2.5666510e+2
-0.330, 2.5157789e-8, 1.6384520e-11, 2.5699844e+2
-0.329, 2.4929808e-8, 4.1307464e-11, 2.5733179e+2
-0.328, 2.4675705e-8, 3.3878511e-11, 2.5766513e+2
-0.327, 2.4268550e-8, 4.6819271e-11, 2.5799847e+2
-0.326, 2.3983135e-8, 5.3609180e-11, 2.5833182e+2
-0.325, 2.3626546e-8, 6.1357655e-11, 2.5866516e+2
-0.324, 2.3255257e-8, 5.3529296e-11, 2.5899850e+2
-0.323, 2.2985338e-8, 6.2396116e-11, 2.5933185e+2
-0.322, 2.2715501e-8, 5.5606211e-11, 2.5966519e+2
-0.321, 2.2422974e-8, 7.2381268e-11, 2.5999854e+2
-0.320, 2.2270561e-8, 5.5206801e-11, 2.6033188e+2
-0.319, 2.1964535e-8, 5.0094404e-11, 2.6066522e+2
-0.318, 2.1711394e-8, 6.3913860e-11, 2.6099857e+2
-0.317, 2.1304796e-8, 8.2446307e-11, 2.6133191e+2
-0.316, 2.1052612e-8, 7.7653432e-11, 2.6166525e+2
-0.315, 2.0808574e-8, 8.6919659e-11, 2.6199860e+2
-0.314, 2.0634353e-8, 8.8756925e-11, 2.6233194e+2
-0.313, 2.0367150e-8, 8.6520249e-11, 2.6266528e+2
-0.312, 2.0238382e-8, 8.0289511e-11, 2.6299863e+2
-0.311, 1.9884189e-8, 7.7413784e-11, 2.6333197e+2
-0.310, 1.9721870e-8, 8.2845716e-11, 2.6366531e+2
-0.309, 1.9364721e-8, 7.3659370e-11, 2.6399866e+2
-0.308, 1.9200325e-8, 1.0057934e-10, 2.6433200e+2
-0.307, 1.8989917e-8, 7.3739251e-11, 2.6466534e+2
-0.306, 1.8837826e-8, 9.7783504e-11, 2.6499869e+2
-0.305, 1.8802117e-8, 8.8357516e-11, 2.6533203e+2
-0.304, 1.8718403e-8, 9.1313124e-11, 2.6566537e+2
-0.303, 1.8507915e-8, 7.4298422e-11, 2.6599872e+2
-0.302, 1.8438977e-8, 9.0753953e-11, 2.6633206e+2
-0.301, 1.8396081e-8, 8.7958113e-11, 2.6666541e+2
-0.300, 1.8339925e-8, 1.0657044e-10, 2.6699875e+2
-0.299, 1.8315880e-8, 9.3629680e-11, 2.6733209e+2
-0.298, 1.8311647e-8, 9.5546827e-11, 2.6766544e+2
-0.297, 1.8301662e-8, 8.1967017e-11, 2.6799878e+2
-0.296, 1.8259724e-8, 9.2032056e-11, 2.6833212e+2
-0.295, 1.8089816e-8, 7.9730340e-11, 2.6866547e+2
-0.294, 1.7893148e-8, 8.8916687e-11, 2.6899881e+2
-0.293, 1.7733626e-8, 9.3070510e-11, 2.6933215e+2
-0.292, 1.7409308e-8, 8.5641556e-11, 2.6966550e+2
-0.291, 1.7227419e-8, 9.2271697e-11, 2.6999884e+2
-0.290, 1.6894235e-8, 9.0514311e-11, 2.7033218e+2
-0.289, 1.6696369e-8, 9.8582309e-11, 2.7066553e+2
-0.288, 1.6402565e-8, 7.8771774e-11, 2.7099887e+2
-0.287, 1.6039584e-8, 1.0393435e-10, 2.7133221e+2
-0.286, 1.5787320e-8, 1.0712960e-10, 2.7166556e+2
-0.285, 1.5462444e-8, 1.1943131e-10, 2.7199890e+2
-0.284, 1.5348933e-8, 1.2502301e-10, 2.7233224e+2
-0.283, 1.5325845e-8, 1.2422420e-10, 2.7266559e+2
-0.282, 1.5361953e-8, 1.0768877e-10, 2.7299893e+2
-0.281, 1.5381522e-8, 1.1144319e-10, 2.7333228e+2
-0.280, 1.5306833e-8, 1.1575679e-10, 2.7366562e+2
-0.279, 1.5020859e-8, 8.7239181e-11, 2.7399896e+2
-0.278, 1.4868686e-8, 1.1679523e-10, 2.7433231e+2
-0.277, 1.4527513e-8, 1.2606147e-10, 2.7466565e+2
-0.276, 1.4374061e-8, 1.0481306e-10, 2.7499899e+2
-0.275, 1.4015314e-8, 1.2614135e-10, 2.7533234e+2
-0.274, 1.3827594e-8, 1.1032486e-10, 2.7566568e+2
-0.273, 1.3484743e-8, 1.3396971e-10, 2.7599902e+2
-0.272, 1.3278890e-8, 1.2765909e-10, 2.7633237e+2
-0.271, 1.2947542e-8, 1.3852293e-10, 2.7666571e+2
-0.270, 1.2672111e-8, 1.4794892e-10, 2.7699905e+2
-0.269, 1.2462023e-8, 1.4818857e-10, 2.7733240e+2
-0.268, 1.2290199e-8, 1.2278632e-10, 2.7766574e+2
-0.267, 1.2024914e-8, 1.3668566e-10, 2.7799908e+2
-0.266, 1.1883285e-8, 1.5098441e-10, 2.7833243e+2
-0.265, 1.1605857e-8, 1.5090452e-10, 2.7866577e+2
-0.264, 1.1473732e-8, 1.5242227e-10, 2.7899911e+2
-0.263, 1.1403357e-8, 1.6320624e-10, 2.7933246e+2
-0.262, 1.1292163e-8, 1.5034536e-10, 2.7966580e+2
-0.261, 1.1125131e-8, 1.3972117e-10, 2.7999915e+2
-0.260, 1.1013936e-8, 1.4970632e-10, 2.8033249e+2
-0.259, 1.0958099e-8, 1.3828329e-10, 2.8066583e+2
-0.258, 1.0753603e-8, 1.3716496e-10, 2.8099918e+2
-0.257, 1.0587930e-8, 1.5481871e-10, 2.8133252e+2
-0.256, 1.0476495e-8, 1.4419450e-10, 2.8166586e+2
-0.255, 1.0241965e-8, 1.3117386e-10, 2.8199921e+2
-0.254, 1.0013184e-8, 1.4579213e-10, 2.8233255e+2
-0.253, 9.8429576e-9, 1.5409977e-10, 2.8266589e+2
-0.252, 9.5549852e-9, 1.6288672e-10, 2.8299924e+2
-0.251, 9.4581694e-9, 1.6288672e-10, 2.8333258e+2
-0.250, 9.2095798e-9, 1.5601694e-10, 2.8366592e+2
-0.249, 9.0143493e-9, 1.5066488e-10, 2.8399927e+2
-0.248, 8.8526697e-9, 1.8477417e-10, 2.8433261e+2
-0.247, 8.6013632e-9, 1.6656125e-10, 2.8466595e+2
-0.246, 8.5092609e-9, 1.6448434e-10, 2.8499930e+2
-0.245, 8.3148297e-9, 1.7526831e-10, 2.8533264e+2
-0.244, 8.1013072e-9, 1.6240742e-10, 2.8566599e+2
-0.243, 7.9968219e-9, 1.8357595e-10, 2.8599933e+2
-0.242, 7.7732345e-9, 1.7167365e-10, 2.8633267e+2
-0.241, 7.5982145e-9, 1.7934225e-10, 2.8666602e+2
-0.240, 7.5243243e-9, 1.8173868e-10, 2.8699936e+2
-0.239, 7.4322215e-9, 1.6855828e-10, 2.8733270e+2
-0.238, 7.2992190e-9, 1.8693097e-10, 2.8766605e+2
-0.237, 7.1360216e-9, 1.9036586e-10, 2.8799939e+2
-0.236, 7.0447177e-9, 1.7878307e-10, 2.8833273e+2
-0.235, 6.9782562e-9, 1.8764990e-10, 2.8866608e+2
-0.234, 6.8085888e-9, 1.8533335e-10, 2.8899942e+2
-0.233, 6.6724710e-9, 1.8693097e-10, 2.8933276e+2
-0.232, 6.6117614e-9, 1.6791923e-10, 2.8966611e+2
-0.231, 6.4913803e-9, 1.7750498e-10, 2.8999945e+2
-0.230, 6.2931149e-9, 1.8133928e-10, 2.9033279e+2
-0.229, 6.1172964e-9, 1.9316171e-10, 2.9066614e+2
-0.228, 6.0378147e-9, 1.7103460e-10, 2.9099948e+2
-0.227, 5.8258895e-9, 1.9979184e-10, 2.9133282e+2
-0.226, 5.6499112e-9, 1.9915279e-10, 2.9166617e+2
-0.225, 5.5775389e-9, 2.0274746e-10, 2.9199951e+2
-0.224, 5.4702585e-9, 1.9803445e-10, 2.9233286e+2
-0.223, 5.2486677e-9, 1.8788954e-10, 2.9266620e+2
-0.222, 5.1352362e-9, 2.0091019e-10, 2.9299954e+2
-0.221, 5.0825149e-9, 1.9164396e-10, 2.9333289e+2
-0.220, 4.9316191e-9, 2.0817938e-10, 2.9366623e+2
-0.219, 4.7759308e-9, 2.0330662e-10, 2.9399957e+2
-0.218, 4.6866235e-9, 1.7950201e-10, 2.9433292e+2
-0.217, 4.6133724e-9, 1.9276229e-10, 2.9466626e+2
-0.216, 4.5842956e-9, 1.9907290e-10, 2.9499960e+2
-0.215, 4.5433963e-9, 1.8669132e-10, 2.9533295e+2
-0.214, 4.4935504e-9, 2.0562317e-10, 2.9566629e+2
-0.213, 4.3486459e-9, 1.9052562e-10, 2.9599963e+2
-0.212, 4.2074957e-9, 1.8693097e-10, 2.9633298e+2
-0.211, 4.1467061e-9, 1.9108479e-10, 2.9666632e+2
-0.210, 4.0920676e-9, 1.9787469e-10, 2.9699966e+2
-0.209, 4.0248871e-9, 1.9236289e-10, 2.9733301e+2
-0.208, 3.8800629e-9, 1.9300193e-10, 2.9766635e+2
-0.207, 3.7353178e-9, 1.9619718e-10, 2.9799969e+2
-0.206, 3.6700547e-9, 1.8733037e-10, 2.9833304e+2
-0.205, 3.6376231e-9, 1.9292207e-10, 2.9866638e+2
-0.204, 3.5783512e-9, 2.0418531e-10, 2.9899973e+2
-0.203, 3.4899228e-9, 1.9404039e-10, 2.9933307e+2
-0.202, 3.3293612e-9, 2.0218829e-10, 2.9966641e+2
-0.201, 3.2045868e-9, 1.9867351e-10, 2.9999976e+2
-0.200, 3.1410012e-9, 1.8757002e-10, 3.0033310e+2
-0.199, 3.1078506e-9, 2.0578295e-10, 3.0066644e+2
-0.198, 3.0139902e-9, 1.9779482e-10, 3.0099979e+2
-0.197, 2.8503135e-9, 1.9835399e-10, 3.0133313e+2
-0.196, 2.7814557e-9, 2.0666162e-10, 3.0166647e+2
-0.195, 2.7321692e-9, 2.0330662e-10, 3.0199982e+2
-0.194, 2.6700215e-9, 2.0953736e-10, 3.0233316e+2
-0.193, 2.6262466e-9, 1.9875339e-10, 3.0266650e+2
-0.192, 2.5621019e-9, 1.9483920e-10, 3.0299985e+2
-0.191, 2.3661533e-9, 2.0977699e-10, 3.0333319e+2
-0.190, 2.3001714e-9, 1.9220313e-10, 3.0366653e+2
-0.189, 2.1937696e-9, 2.0106994e-10, 3.0399988e+2
-0.188, 2.1544679e-9, 2.2120002e-10, 3.0433322e+2
-0.187, 2.1152462e-9, 2.2191894e-10, 3.0466656e+2
-0.186, 2.0203474e-9, 2.1712608e-10, 3.0499991e+2
-0.185, 1.8872652e-9, 1.9891316e-10, 3.0533325e+2
-0.184, 1.7886119e-9, 2.1321189e-10, 3.0566660e+2
-0.183, 1.7289405e-9, 2.1177403e-10, 3.0599994e+2
-0.182, 1.6882011e-9, 2.1784502e-10, 3.0633328e+2
-0.181, 1.6524943e-9, 2.1209356e-10, 3.0666663e+2
-0.180, 1.6119946e-9, 2.0562317e-10, 3.0699997e+2
-0.179, 1.5666221e-9, 2.2223848e-10, 3.0733331e+2
-0.178, 1.4551078e-9, 2.1417046e-10, 3.0766666e+2
-0.177, 1.3844129e-9, 2.0969713e-10, 3.0800000e+2
-0.176, 1.2867980e-9, 2.2583313e-10, 3.0833334e+2
-0.175, 1.1936565e-9, 2.2048108e-10, 3.0866669e+2
-0.174, 1.1882245e-9, 2.2247811e-10, 3.0900003e+2
-0.173, 1.1514792e-9, 2.2016156e-10, 3.0933337e+2
-0.172, 1.0962813e-9, 2.0857878e-10, 3.0966672e+2
-0.171, 1.0308585e-9, 2.2359646e-10, 3.1000006e+2
-0.170, 9.5217556e-10, 2.1880357e-10, 3.1033340e+2
-0.169, 8.3786550e-10, 2.1728584e-10, 3.1066675e+2
-0.168, 7.9616747e-10, 2.2759052e-10, 3.1100009e+2
-0.167, 7.5686590e-10, 2.1433022e-10, 3.1133344e+2
-0.166, 7.1860279e-10, 2.1704620e-10, 3.1166678e+2
-0.165, 6.9312062e-10, 2.1968229e-10, 3.1200012e+2
-0.164, 6.7051426e-10, 2.1177403e-10, 3.1233347e+2
-0.163, 6.3648486e-10, 2.2431537e-10, 3.1266681e+2
-0.162, 5.7082244e-10, 2.3637745e-10, 3.1300015e+2
-0.161, 4.9158028e-10, 2.1960239e-10, 3.1333350e+2
-0.160, 4.4716630e-10, 2.2902838e-10, 3.1366684e+2
-0.159, 3.0865224e-10, 2.3941293e-10, 3.1400018e+2
-0.158, 2.7869676e-10, 2.2239822e-10, 3.1433353e+2
-0.157, 2.3332422e-10, 2.3989224e-10, 3.1466687e+2
-0.156, 1.9825637e-10, 2.4708152e-10, 3.1500021e+2
-0.155, 1.9170611e-10, 2.3118517e-10, 3.1533356e+2
-0.154, 1.6254946e-10, 2.3773544e-10, 3.1566690e+2
-0.153, 1.2812064e-10, 2.2998695e-10, 3.1600024e+2
-0.152, 6.3736363e-11, 2.3342184e-10, 3.1633359e+2
-0.151, -3.6834034e-12, 2.4188926e-10, 3.1666693e+2
-0.150, -5.7363597e-11, 2.4061114e-10, 3.1700027e+2
-0.149, -1.2829814e-10, 2.2974732e-10, 3.1733362e+2
-0.148, -1.8461441e-10, 2.4420582e-10, 3.1766696e+2
-0.147, -2.0099006e-10, 2.3821473e-10, 3.1800031e+2
-0.146, -2.4939811e-10, 2.3973246e-10, 3.1833365e+2
-0.145, -2.7128555e-10, 2.2743074e-10, 3.1866699e+2
-0.144, -2.8710204e-10, 2.3589816e-10, 3.1900034e+2
-0.143, -3.0930902e-10, 2.3821473e-10, 3.1933368e+2
-0.142, -3.1897465e-10, 2.4612298e-10, 3.1966702e+2
-0.141, -3.3503078e-10, 2.4260818e-10, 3.2000037e+2
-0.140, -4.0356890e-10, 2.4500463e-10, 3.2033371e+2
-0.139, -3.9374348e-10, 2.3965258e-10, 3.2066705e+2
-0.138, -4.5253606e-10, 2.4548391e-10, 3.2100040e+2
-0.137, -4.9950627e-10, 2.2447515e-10, 3.2133374e+2
-0.136, -5.2714516e-10, 2.2918815e-10, 3.2166708e+2
-0.135, -6.0079569e-10, 2.3557864e-10, 3.2200043e+2
-0.134, -6.2899375e-10, 2.4692176e-10, 3.2233377e+2
-0.133, -6.9952888e-10, 2.4580343e-10, 3.2266711e+2
-0.132, -7.0759687e-10, 2.4244845e-10, 3.2300046e+2
-0.131, -7.4290440e-10, 2.4085081e-10, 3.2333380e+2
-0.130, -7.7877105e-10, 2.5179453e-10, 3.2366714e+2
-0.129, -7.8260537e-10, 2.4827976e-10, 3.2400049e+2
-0.128, -7.9362894e-10, 2.4164962e-10, 3.2433383e+2
-0.127, -8.2182711e-10, 2.4827976e-10, 3.2466718e+2
-0.126, -8.3061402e-10, 2.5754598e-10, 3.2500052e+2
-0.125, -8.4635060e-10, 2.6761102e-10, 3.2533386e+2
-0.124, -8.9643615e-10, 2.5538918e-10, 3.2566721e+2
-0.123, -9.1744484e-10, 2.4524427e-10, 3.2600055e+2
-0.122, -9.4971697e-10, 2.5834479e-10, 3.2633389e+2
-0.121, -1.0039563e-9, 2.4843952e-10, 3.2666724e+2
-0.120, -1.0244059e-9, 2.5714658e-10, 3.2700058e+2
-0.119, -1.0776068e-9, 2.6505484e-10, 3.2733392e+2
-0.118, -1.1028493e-9, 2.6241875e-10, 3.2766727e+2
-0.117, -1.1565294e-9, 2.5978267e-10, 3.2800061e+2
-0.116, -1.1782572e-9, 2.5858443e-10, 3.2833395e+2
-0.115, -1.2151622e-9, 2.5475014e-10, 3.2866730e+2
-0.114, -1.2430408e-9, 2.6561400e-10, 3.2900064e+2
-0.113, -1.2569401e-9, 2.6122052e-10, 3.2933398e+2
-0.112, -1.2713987e-9, 2.6649266e-10, 3.2966733e+2
-0.111, -1.2838601e-9, 2.6401636e-10, 3.3000067e+2
-0.110, -1.2912891e-9, 2.5562885e-10, 3.3033401e+2
-0.109, -1.3070257e-9, 2.5954300e-10, 3.3066736e+2
-0.108, -1.3184487e-9, 2.5650751e-10, 3.3100070e+2
-0.107, -1.3452089e-9, 2.5610813e-10, 3.3133405e+2
-0.106, -1.3764425e-9, 2.6473529e-10, 3.3166739e+2
-0.105, -1.3840312e-9, 2.5890395e-10, 3.3200073e+2
-0.104, -1.3955341e-9, 2.6832994e-10, 3.3233408e+2
-0.103, -1.4837230e-9, 2.6577374e-10, 3.3266742e+2
-0.102, -1.4640723e-9, 2.5738622e-10, 3.3300076e+2
-0.101, -1.4829242e-9, 2.7320271e-10, 3.3333411e+2
-0.100, -1.4960247e-9, 2.7336244e-10, 3.3366745e+2
-0.099, -1.5175128e-9, 2.6729149e-10, 3.3400079e+2
-0.098, -1.6426867e-9, 2.7751629e-10, 3.3433414e+2
-0.097, -1.6470002e-9, 2.7200450e-10, 3.3466748e+2
-0.096, -1.6397310e-9, 2.7416128e-10, 3.3500082e+2
-0.095, -1.7327129e-9, 2.7631808e-10, 3.3533417e+2
-0.094, -1.7200116e-9, 2.6665245e-10, 3.3566751e+2
-0.093, -1.7399021e-9, 2.7887428e-10, 3.3600085e+2
-0.092, -1.7759286e-9, 2.8182989e-10, 3.3633420e+2
-0.091, -1.7607512e-9, 2.6465541e-10, 3.3666754e+2
-0.090, -1.7968574e-9, 2.7000746e-10, 3.3700089e+2
-0.089, -1.8129137e-9, 2.8206953e-10, 3.3733423e+2
-0.088, -1.8016503e-9, 2.8007249e-10, 3.3766757e+2
-0.087, -1.8233780e-9, 2.8182989e-10, 3.3800092e+2
-0.086, -1.8334430e-9, 2.7759617e-10, 3.3833426e+2
-0.085, -1.8625997e-9, 2.7304295e-10, 3.3866760e+2
-0.084, -1.8629192e-9, 2.7951333e-10, 3.3900095e+2
-0.083, -1.8784161e-9, 2.7743641e-10, 3.3933429e+2
-0.082, -1.9167592e-9, 2.8095118e-10, 3.3966763e+2
-0.081, -1.9085313e-9, 2.8366715e-10, 3.4000098e+2
-0.080, -1.9248272e-9, 2.7943345e-10, 3.4033432e+2
-0.079, -1.9698003e-9, 2.8526478e-10, 3.4066766e+2
-0.078, -1.9783477e-9, 2.8310798e-10, 3.4100101e+2
-0.077, -2.0231610e-9, 2.8454586e-10, 3.4133435e+2
-0.076, -2.0967317e-9, 2.8710204e-10, 3.4166769e+2
-0.075, -2.0603856e-9, 2.8031213e-10, 3.4200104e+2
-0.074, -2.1070363e-9, 2.8526478e-10, 3.4233438e+2
-0.073, -2.1675863e-9, 2.8438607e-10, 3.4266772e+2
-0.072, -2.1615953e-9, 2.8846001e-10, 3.4300107e+2
-0.071, -2.1717401e-9, 2.8542452e-10, 3.4333441e+2
-0.070, -2.2073672e-9, 2.8782096e-10, 3.4366776e+2
-0.069, -2.2250208e-9, 2.8981800e-10, 3.4400110e+2
-0.068, -2.2354056e-9, 2.8997776e-10, 3.4433444e+2
-0.067, -2.2446716e-9, 2.9724695e-10, 3.4466779e+2
-0.066, -2.2605680e-9, 2.8830027e-10, 3.4500113e+2
-0.065, -2.2582514e-9, 2.9125585e-10, 3.4533447e+2
-0.064, -2.2693551e-9, 2.9309313e-10, 3.4566782e+2
-0.063, -2.2986715e-9, 2.8830027e-10, 3.4600116e+2
-0.062, -2.2884465e-9, 2.7320271e-10, 3.4633450e+2
-0.061, -2.3091360e-9, 2.6657257e-10, 3.4666785e+2
-0.060, -2.3459612e-9, 2.5842467e-10, 3.4700119e+2
-0.059, -2.3372539e-9, 2.6225896e-10, 3.4733453e+2
-0.058, -2.3825466e-9, 2.6281813e-10, 3.4766788e+2
-0.057, -2.3736000e-9, 2.7567904e-10, 3.4800122e+2
-0.056, -2.3854225e-9, 2.6489505e-10, 3.4833456e+2
-0.055, -2.4064313e-9, 2.7232400e-10, 3.4866791e+2
-0.054, -2.4271203e-9, 2.7631808e-10, 3.4900125e+2
-0.053, -2.4674605e-9, 2.7679736e-10, 3.4933459e+2
-0.052, -2.5033271e-9, 2.6649266e-10, 3.4966794e+2
-0.051, -2.4887887e-9, 2.7096603e-10, 3.5000128e+2
-0.050, -2.5836078e-9, 2.7663760e-10, 3.5033463e+2
-0.049, -2.5327234e-9, 2.8055178e-10, 3.5066797e+2
-0.048, -2.5673119e-9, 2.8798072e-10, 3.5100131e+2
-0.047, -2.6431193e-9, 2.8933872e-10, 3.5133466e+2
-0.046, -2.6315365e-9, 2.9061681e-10, 3.5166800e+2
-0.045, -2.6381666e-9, 2.8662275e-10, 3.5200134e+2
-0.044, -2.6832196e-9, 2.8182989e-10, 3.5233469e+2
-0.043, -2.6922462e-9, 2.9509017e-10, 3.5266803e+2
-0.042, -2.7059859e-9, 2.9301325e-10, 3.5300137e+2
-0.041, -2.7190066e-9, 2.8071154e-10, 3.5333472e+2
-0.040, -2.7277134e-9, 2.8374703e-10, 3.5366806e+2
-0.039, -2.7377787e-9, 2.9117597e-10, 3.5400140e+2
-0.038, -2.7396956e-9, 2.8965824e-10, 3.5433475e+2
-0.037, -2.7451277e-9, 2.7903402e-10, 3.5466809e+2
-0.036, -2.7515981e-9, 2.7863462e-10, 3.5500143e+2
-0.035, -2.7609441e-9, 2.8774111e-10, 3.5533478e+2
-0.034, -2.7867457e-9, 2.7823524e-10, 3.5566812e+2
-0.033, -2.7711691e-9, 2.8422631e-10, 3.5600146e+2
-0.032, -2.7882636e-9, 2.7919381e-10, 3.5633481e+2
-0.031, -2.8208551e-9, 2.8901920e-10, 3.5666815e+2
-0.030, -2.8176599e-9, 2.8646299e-10, 3.5700150e+2
-0.029, -2.8210947e-9, 2.9365230e-10, 3.5733484e+2
-0.028, -2.8564819e-9, 2.8997776e-10, 3.5766818e+2
-0.027, -2.8409852e-9, 2.9213457e-10, 3.5800153e+2
-0.026, -2.8682248e-9, 2.9924399e-10, 3.5833487e+2
-0.025, -2.8734168e-9, 2.8750144e-10, 3.5866821e+2
-0.024, -2.8860381e-9, 2.8286834e-10, 3.5900156e+2
-0.023, -2.9072067e-9, 2.7631808e-10, 3.5933490e+2
-0.022, -2.9126386e-9, 2.8214939e-10, 3.5966824e+2
-0.021, -2.9518603e-9, 2.9005764e-10, 3.6000159e+2
-0.020, -2.9772624e-9, 2.9301325e-10, 3.6033493e+2
-0.019, -2.9818157e-9, 2.9596886e-10, 3.6066827e+2
-0.018, -3.0308629e-9, 2.9876471e-10, 3.6100162e+2
-0.017, -3.0388509e-9, 3.0267888e-10, 3.6133496e+2
-0.016, -3.0317415e-9, 3.0539485e-10, 3.6166830e+2
-0.015, -3.1397409e-9, 3.1378236e-10, 3.6200165e+2
-0.014, -3.1215281e-9, 3.1705749e-10, 3.6233499e+2
-0.013, -3.1226464e-9, 3.3007813e-10, 3.6266833e+2
-0.012, -3.1661815e-9, 3.2600420e-10, 3.6300168e+2
-0.011, -3.1763268e-9, 3.2424682e-10, 3.6333502e+2
-0.010, -3.1575547e-9, 3.2744205e-10, 3.6366837e+2
-0.009, -3.2196221e-9, 3.2057226e-10, 3.6400171e+2
-0.008, -3.2177050e-9, 3.1434153e-10, 3.6433505e+2
-0.007, -3.2246550e-9, 3.1793621e-10, 3.6466840e+2
-0.006, -3.2425482e-9, 3.1010783e-10, 3.6500174e+2
-0.005, -3.2630776e-9, 3.0827058e-10, 3.6533508e+2
-0.004, -3.2759384e-9, 3.1474096e-10, 3.6566843e+2
-0.003, -3.2620393e-9, 3.1601904e-10, 3.6600177e+2
-0.002, -3.3167578e-9, 3.0739186e-10, 3.6633511e+2
-0.001, -3.2971870e-9, 3.1498060e-10, 3.6666846e+2
-0.000, -3.3201129e-9, 3.1210487e-10, 3.6700180e+2
0.001, -3.3371275e-9, 3.1098654e-10, 3.6733514e+2
0.002, -3.3380863e-9, 3.1945394e-10, 3.6766849e+2
0.003, -3.3383258e-9, 3.1681785e-10, 3.6800183e+2
0.004, -3.3602932e-9, 3.1050723e-10, 3.6833517e+2
0.005, -3.3555001e-9, 3.0531497e-10, 3.6866852e+2
0.006, -3.3597338e-9, 3.0803091e-10, 3.6900186e+2
0.007, -3.3874528e-9, 2.9820554e-10, 3.6933521e+2
0.008, -3.3733136e-9, 2.9828542e-10, 3.6966855e+2
0.009, -3.3890504e-9, 3.0203984e-10, 3.7000189e+2
0.010, -3.3884913e-9, 3.0347772e-10, 3.7033524e+2
0.011, -3.4297098e-9, 3.0587413e-10, 3.7066858e+2
0.012, -3.4249970e-9, 3.0355757e-10, 3.7100192e+2
0.013, -3.4416923e-9, 3.0339781e-10, 3.7133527e+2
0.014, -3.5052776e-9, 3.0898950e-10, 3.7166861e+2
0.015, -3.4809937e-9, 3.0994807e-10, 3.7200195e+2
0.016, -3.5083130e-9, 3.0291852e-10, 3.7233530e+2
0.017, -3.6216643e-9, 3.0739186e-10, 3.7266864e+2
0.018, -3.6131174e-9, 2.9708719e-10, 3.7300198e+2
0.019, -3.6112000e-9, 3.1330308e-10, 3.7333533e+2
0.020, -3.6760637e-9, 2.9556946e-10, 3.7366867e+2
0.021, -3.6592085e-9, 3.0531497e-10, 3.7400201e+2
0.022, -3.6825341e-9, 3.0651318e-10, 3.7433536e+2
0.023, -3.7022647e-9, 2.9916411e-10, 3.7466870e+2
0.024, -3.7026640e-9, 2.9117597e-10, 3.7500204e+2
0.025, -3.7342969e-9, 2.7663760e-10, 3.7533539e+2
0.026, -3.7339771e-9, 2.6313768e-10, 3.7566873e+2
0.027, -3.7660102e-9, 2.2791005e-10, 3.7600208e+2
0.028, -3.7743173e-9, 1.8653157e-10, 3.7633542e+2
0.029, -3.8076280e-9, 1.9683624e-10, 3.7666876e+2
0.030, -3.8117016e-9, 2.1680654e-10, 3.7700211e+2
0.031, -3.8161749e-9, 2.2950766e-10, 3.7733545e+2
0.032, -3.8175334e-9, 2.7056662e-10, 3.7766879e+2
0.033, -3.8495656e-9, 2.7104591e-10, 3.7800214e+2
0.034, -3.8121017e-9, 2.8606359e-10, 3.7833548e+2
0.035, -3.8350274e-9, 2.8965824e-10, 3.7866882e+2
0.036, -3.8739296e-9, 2.9740671e-10, 3.7900217e+2
0.037, -3.8386219e-9, 3.0411676e-10, 3.7933551e+2
0.038, -3.9066008e-9, 3.0866998e-10, 3.7966885e+2
0.039, -3.8854324e-9, 2.9980315e-10, 3.8000220e+2
0.040, -3.8875094e-9, 3.0787117e-10, 3.8033554e+2
0.041, -3.9246539e-9, 3.0946878e-10, 3.8066888e+2
0.042, -3.9174646e-9, 3.0188008e-10, 3.8100223e+2
0.043, -3.9681094e-9, 3.0922914e-10, 3.8133557e+2
0.044, -3.9907957e-9, 3.2432668e-10, 3.8166891e+2
0.045, -3.9588435e-9, 3.2520539e-10, 3.8200226e+2
0.046, -4.0583754e-9, 3.3239472e-10, 3.8233560e+2
0.047, -3.9927928e-9, 3.5044787e-10, 3.8266895e+2
0.048, -4.0530233e-9, 3.6442710e-10, 3.8300229e+2
0.049, -4.1186854e-9, 3.4629405e-10, 3.8333563e+2
0.050, -4.0669224e-9, 3.5627920e-10, 3.8366898e+2
0.051, -4.1497592e-9, 3.3790651e-10, 3.8400232e+2
0.052, -4.2012029e-9, 3.4749226e-10, 3.8433566e+2
0.053, -4.1466444e-9, 3.4277925e-10, 3.8466901e+2
0.054, -4.2173389e-9, 3.3734734e-10, 3.8500235e+2
0.055, -4.2138240e-9, 3.3926451e-10, 3.8533569e+2
0.056, -4.2278829e-9, 3.4078224e-10, 3.8566904e+2
0.057, -4.2283625e-9, 3.4038283e-10, 3.8600238e+2
0.058, -4.2513686e-9, 3.3998343e-10, 3.8633572e+2
0.059, -4.2627115e-9, 3.4070236e-10, 3.8666907e+2
0.060, -4.2941051e-9, 3.3702782e-10, 3.8700241e+2
0.061, -4.2830015e-9, 3.2983852e-10, 3.8733575e+2
0.062, -4.3304507e-9, 3.3399233e-10, 3.8766910e+2
0.063, -4.3282142e-9, 3.3910472e-10, 3.8800244e+2
0.064, -4.3459476e-9, 3.3471126e-10, 3.8833578e+2
0.065, -4.4165627e-9, 3.3391245e-10, 3.8866913e+2
0.066, -4.4123287e-9, 3.3239472e-10, 3.8900247e+2
0.067, -4.4352553e-9, 3.3367281e-10, 3.8933582e+2
0.068, -4.5394999e-9, 3.2983852e-10, 3.8966916e+2
0.069, -4.5442929e-9, 3.3431186e-10, 3.9000250e+2
0.070, -4.5531596e-9, 3.3175565e-10, 3.9033585e+2
0.071, -4.6168251e-9, 3.3958400e-10, 3.9066919e+2
0.072, -4.6114730e-9, 3.3511066e-10, 3.9100253e+2
0.073, -4.6732209e-9, 3.3415209e-10, 3.9133588e+2
0.074, -4.6582835e-9, 3.3902484e-10, 3.9166922e+2
0.075, -4.6866409e-9, 3.3942424e-10, 3.9200256e+2
0.076, -4.6931916e-9, 3.3127637e-10, 3.9233591e+2
0.077, -4.6990229e-9, 3.3335329e-10, 3.9266925e+2
0.078, -4.7518243e-9, 3.4597450e-10, 3.9300259e+2
0.079, -4.7296176e-9, 3.3910472e-10, 3.9333594e+2
0.080, -4.7327324e-9, 3.4685321e-10, 3.9366928e+2
0.081, -4.7985549e-9, 3.4429701e-10, 3.9400262e+2
0.082, -4.7801820e-9, 3.4829106e-10, 3.9433597e+2
0.083, -4.7887294e-9, 3.5284431e-10, 3.9466931e+2
0.084, -4.8214006e-9, 3.6195077e-10, 3.9500266e+2
0.085, -4.7670814e-9, 4.2361906e-10, 3.9533600e+2
0.086, -4.8448858e-9, 3.9262515e-10, 3.9566934e+2
0.087, -4.7397624e-9, 3.3191541e-10, 3.9600269e+2
0.088, -4.8962496e-9, 6.4457062e-10, 3.9633603e+2
0.089, -5.2653006e-9, -6.8609118e-11, 3.9666937e+2
0.090, -5.1832627e-9, 3.1426164e-10, 3.9700272e+2
0.091, -5.1792690e-9, 3.2784148e-10, 3.9733606e+2
0.092, -5.1446802e-9, 3.4733250e-10, 3.9766940e+2
0.093, -5.1316595e-9, 3.4405737e-10, 3.9800275e+2
0.094, -5.2288751e-9, 3.4397749e-10, 3.9833609e+2
0.095, -5.2352656e-9, 3.4845082e-10, 3.9866943e+2
0.096, -5.2541975e-9, 3.5060763e-10, 3.9900278e+2
0.097, -5.3018065e-9, 3.4158104e-10, 3.9933612e+2
0.098, -5.2982920e-9, 3.6243006e-10, 3.9966946e+2
0.099, -4.8648561e-9, 3.0299840e-10, 4.0000281e+2
