Dec. 9, 2005   03:14:08
Cyclic Voltammetry
File: d:\ida_biofilms\11_28_18_blankidapyo\100um_pyo_soak_gc.txt
Data Source:  Experiment
Instrument Model:  CHI760B
Header: 
Note: 

Init E (V) = 0.1
High E (V) = 0.1
Low E (V) = -0.5
Init P/N = N
Scan Rate (V/s) = 0.003
Segment = 2
Sample Interval (V) = 0.001
Quiet Time (sec) = 2
Sensitivity (A/V) = 1e-5
2nd E (V) = 0.1
Sens 2 (A/V) = 1e-5

Potential/V, i1/A, i2/A, Time/s

0.100, -3.8598145e-8, -2.1663347e-8, 3.3333334e-1
0.099, -3.4520205e-8, -1.9214989e-8, 6.6666669e-1
0.098, -3.0366383e-8, -1.7154052e-8, 1.0000000e+0
0.097, -2.7247019e-8, -1.5256873e-8, 1.3333334e+0
0.096, -2.4778691e-8, -1.4270340e-8, 1.6666667e+0
0.095, -2.3352811e-8, -1.2960287e-8, 2.0000000e+0
0.094, -2.1367761e-8, -1.2297273e-8, 2.3333333e+0
0.093, -2.0624867e-8, -1.1630266e-8, 2.6666665e+0
0.092, -1.9678273e-8, -1.1111037e-8, 2.9999998e+0
0.091, -1.9023247e-8, -1.0795506e-8, 3.3333330e+0
0.090, -1.8500025e-8, -1.0308231e-8, 3.6666663e+0
0.089, -1.7852987e-8, -9.8449187e-9, 3.9999995e+0
0.088, -1.7281836e-8, -9.7171089e-9, 4.3333330e+0
0.087, -1.7050180e-8, -9.1579402e-9, 4.6666665e+0
0.086, -1.6654768e-8, -8.9742134e-9, 5.0000000e+0
0.085, -1.6163499e-8, -8.8503977e-9, 5.3333335e+0
0.084, -1.6051665e-8, -8.6107539e-9, 5.6666670e+0
0.083, -1.5440573e-8, -8.4909324e-9, 6.0000005e+0
0.082, -1.4965281e-8, -8.1234788e-9, 6.3333340e+0
0.081, -1.4414100e-8, -8.1075022e-9, 6.6666675e+0
0.080, -1.4525933e-8, -7.8478886e-9, 7.0000010e+0
0.079, -1.3695169e-8, -7.7999598e-9, 7.3333344e+0
0.078, -1.3207893e-8, -7.7640125e-9, 7.6666679e+0
0.077, -1.2944285e-8, -7.5363511e-9, 8.0000010e+0
0.076, -1.2113520e-8, -7.2687492e-9, 8.3333340e+0
0.075, -1.1961746e-8, -7.0810282e-9, 8.6666670e+0
0.074, -1.1829942e-8, -7.1009985e-9, 9.0000000e+0
0.073, -1.1326690e-8, -7.0570638e-9, 9.3333330e+0
0.072, -1.1194886e-8, -6.9492243e-9, 9.6666660e+0
0.071, -1.0635717e-8, -6.9012955e-9, 9.9999990e+0
0.070, -1.0571813e-8, -6.7774799e-9, 1.0333332e+1
0.069, -1.0000662e-8, -6.7175683e-9, 1.0666665e+1
0.068, -9.6691553e-9, -6.4140200e-9, 1.0999998e+1
0.067, -9.7889767e-9, -6.5418302e-9, 1.1333331e+1
0.066, -8.5987448e-9, -6.4339902e-9, 1.1666664e+1
0.065, -8.7145740e-9, -6.3381327e-9, 1.1999997e+1
0.064, -8.1554052e-9, -6.3461210e-9, 1.2333330e+1
0.063, -8.0875049e-9, -6.2981922e-9, 1.2666663e+1
0.062, -7.3925381e-9, -6.0745244e-9, 1.2999996e+1
0.061, -7.5722717e-9, -6.0186078e-9, 1.3333329e+1
0.060, -6.4778978e-9, -6.0026317e-9, 1.3666662e+1
0.059, -6.7335177e-9, -6.0305898e-9, 1.3999995e+1
0.058, -7.2287838e-9, -6.0026317e-9, 1.4333328e+1
0.057, -6.3660646e-9, -5.7310352e-9, 1.4666661e+1
0.056, -6.4778978e-9, -5.7589937e-9, 1.4999994e+1
0.055, -5.6231695e-9, -5.7589937e-9, 1.5333327e+1
0.054, -5.7110396e-9, -5.7709761e-9, 1.5666660e+1
0.053, -6.0345582e-9, -5.6431664e-9, 1.5999993e+1
0.052, -5.2237628e-9, -5.6591425e-9, 1.6333326e+1
0.051, -4.9202145e-9, -5.5872489e-9, 1.6666660e+1
0.050, -4.3610457e-9, -5.5313323e-9, 1.6999994e+1
0.049, -4.8882631e-9, -5.4754152e-9, 1.7333328e+1
0.048, -4.4169624e-9, -5.4554454e-9, 1.7666662e+1
0.047, -4.1573496e-9, -5.5632849e-9, 1.7999996e+1
0.046, -3.8897476e-9, -5.5193503e-9, 1.8333330e+1
0.045, -4.0814627e-9, -5.3995284e-9, 1.8666664e+1
0.044, -3.8617896e-9, -5.4394693e-9, 1.8999998e+1
0.043, -4.0574974e-9, -5.2876943e-9, 1.9333332e+1
0.042, -3.7898960e-9, -5.3156528e-9, 1.9666666e+1
0.041, -3.1987739e-9, -5.2717182e-9, 2.0000000e+1
0.040, -3.0469987e-9, -5.4035225e-9, 2.0333334e+1
0.039, -2.8992186e-9, -5.2996771e-9, 2.0666668e+1
0.038, -2.5916773e-9, -5.3555937e-9, 2.1000002e+1
0.037, -2.5956703e-9, -5.3476050e-9, 2.1333336e+1
0.036, -2.5477422e-9, -5.3875460e-9, 2.1666670e+1
0.035, -2.5677120e-9, -5.3755640e-9, 2.2000004e+1
0.034, -2.1163840e-9, -5.2277835e-9, 2.2333338e+1
0.033, -1.2896116e-9, -5.3555937e-9, 2.2666672e+1
0.032, -1.7449352e-9, -5.1479021e-9, 2.3000006e+1
0.031, -2.0285136e-9, -5.0800031e-9, 2.3333340e+1
0.030, -2.4319138e-9, -5.1958309e-9, 2.3666674e+1
0.029, -1.7768890e-9, -5.1439080e-9, 2.4000008e+1
0.028, -1.6610603e-9, -5.0800031e-9, 2.4333342e+1
0.027, -1.5652040e-9, -5.1598845e-9, 2.4666676e+1
0.026, -1.3175699e-9, -5.2237894e-9, 2.5000010e+1
0.025, -1.4893151e-9, -5.1558908e-9, 2.5333344e+1
0.024, -1.5532202e-9, -4.9881397e-9, 2.5666677e+1
0.023, -1.4853221e-9, -5.0200923e-9, 2.6000011e+1
0.022, -1.4054402e-9, -4.9561870e-9, 2.6333345e+1
0.021, -1.1977483e-9, -5.1279319e-9, 2.6666679e+1
0.020, -9.2215835e-10, -5.0560391e-9, 2.7000013e+1
0.019, -1.3615051e-9, -5.0720153e-9, 2.7333347e+1
0.018, -8.8221858e-10, -5.0200923e-9, 2.7666681e+1
0.017, -4.5086024e-10, -4.8882884e-9, 2.8000015e+1
0.016, -9.6210040e-10, -4.9761577e-9, 2.8333349e+1
0.015, -6.0263322e-10, -4.9641757e-9, 2.8666683e+1
0.014, -5.1875831e-10, -4.9601816e-9, 2.9000017e+1
0.013, -4.8281157e-10, -4.9521938e-9, 2.9333351e+1
0.012, -2.6313821e-10, -4.9282289e-9, 2.9666685e+1
0.011, 9.6326690e-11, -4.7245319e-9, 3.0000019e+1
0.010, -5.2674670e-10, -4.9242348e-9, 3.0333353e+1
0.009, 4.8398504e-11, -4.8044129e-9, 3.0666687e+1
0.008, -9.5388385e-11, -4.9162470e-9, 3.1000021e+1
0.007, -6.7430082e-11, -4.7165436e-9, 3.1333355e+1
0.006, -1.7527024e-10, -4.8323714e-9, 3.1666689e+1
0.005, 4.8398504e-11, -4.7405080e-9, 3.2000023e+1
0.004, 4.7176840e-10, -4.8124011e-9, 3.2333355e+1
0.003, 9.6326690e-11, -4.6686148e-9, 3.2666687e+1
0.002, -1.1535826e-10, -4.9601816e-9, 3.3000019e+1
0.001, 5.9558541e-10, -4.6845909e-9, 3.3333351e+1
-0.000, 6.3552519e-10, -4.7365143e-9, 3.3666683e+1
-0.001, 1.2828037e-10, -4.7285260e-9, 3.4000015e+1
-0.002, 1.0309368e-9, -4.6047099e-9, 3.4333347e+1
-0.003, 6.3951822e-10, -4.6606266e-9, 3.4666679e+1
-0.004, 7.4336537e-10, -4.7205377e-9, 3.5000011e+1
-0.005, 6.6747652e-10, -4.7045616e-9, 3.5333344e+1
-0.006, 8.7117541e-10, -4.6686148e-9, 3.5666676e+1
-0.007, 1.0469137e-9, -4.7205377e-9, 3.6000008e+1
-0.008, 1.1068256e-9, -4.5008646e-9, 3.6333340e+1
-0.009, 1.4143670e-9, -4.5847397e-9, 3.6666672e+1
-0.010, 1.3744272e-9, -4.5967217e-9, 3.7000004e+1
-0.011, 1.1188070e-9, -4.7245319e-9, 3.7333336e+1
-0.012, 1.2146635e-9, -4.5887334e-9, 3.7666668e+1
-0.013, 1.2825638e-9, -4.6486446e-9, 3.8000000e+1
-0.014, 8.0727036e-10, -4.6366622e-9, 3.8333332e+1
-0.015, 1.1148117e-9, -4.6526387e-9, 3.8666664e+1
-0.016, 1.5222071e-9, -4.4928763e-9, 3.8999996e+1
-0.017, 1.2785685e-9, -4.5447992e-9, 3.9333328e+1
-0.018, 1.6699870e-9, -4.5647690e-9, 3.9666660e+1
-0.019, 1.3225037e-9, -4.5607753e-9, 3.9999992e+1
-0.020, 1.4183623e-9, -4.5927280e-9, 4.0333324e+1
-0.021, 1.7738319e-9, -4.4848880e-9, 4.0666656e+1
-0.022, 1.6819686e-9, -4.4808939e-9, 4.0999989e+1
-0.023, 1.8337438e-9, -4.6007158e-9, 4.1333321e+1
-0.024, 1.9216142e-9, -4.3970187e-9, 4.1666653e+1
-0.025, 1.9096302e-9, -4.5208348e-9, 4.1999985e+1
-0.026, 1.8537137e-9, -4.5687636e-9, 4.2333317e+1
-0.027, 1.9096302e-9, -4.5368109e-9, 4.2666649e+1
-0.028, 1.9495725e-9, -4.5727573e-9, 4.2999981e+1
-0.029, 1.7099269e-9, -4.5567812e-9, 4.3333313e+1
-0.030, 2.4088891e-9, -4.5447992e-9, 4.3666645e+1
-0.031, 1.7059338e-9, -4.5088524e-9, 4.3999977e+1
-0.032, 2.3090374e-9, -4.4649178e-9, 4.4333309e+1
-0.033, 2.4767872e-9, -4.4928763e-9, 4.4666641e+1
-0.034, 2.1452806e-9, -4.4649178e-9, 4.4999973e+1
-0.035, 2.4048936e-9, -4.3291197e-9, 4.5333305e+1
-0.036, 2.2730906e-9, -4.4968704e-9, 4.5666637e+1
-0.037, 2.6205740e-9, -4.4529358e-9, 4.5999969e+1
-0.038, 2.6884721e-9, -4.3610719e-9, 4.6333302e+1
-0.039, 2.6764906e-9, -4.3530841e-9, 4.6666634e+1
-0.040, 2.4687987e-9, -4.3650661e-9, 4.6999966e+1
-0.041, 2.9241223e-9, -4.3011612e-9, 4.7333298e+1
-0.042, 2.6245670e-9, -4.4249773e-9, 4.7666630e+1
-0.043, 2.8801872e-9, -4.5088524e-9, 4.7999962e+1
-0.044, 2.9720506e-9, -4.4729060e-9, 4.8333294e+1
-0.045, 3.2196821e-9, -4.5168407e-9, 4.8666626e+1
-0.046, 3.0918721e-9, -4.4409534e-9, 4.8999958e+1
-0.047, 3.3195340e-9, -4.4209831e-9, 4.9333290e+1
-0.048, 3.2596243e-9, -4.4449475e-9, 4.9666622e+1
-0.049, 3.1917238e-9, -4.4409534e-9, 4.9999954e+1
-0.050, 3.1278189e-9, -4.4689119e-9, 5.0333286e+1
-0.051, 3.1637655e-9, -4.4050070e-9, 5.0666618e+1
-0.052, 3.2676126e-9, -4.4010129e-9, 5.0999950e+1
-0.053, 3.5711609e-9, -4.3371076e-9, 5.1333282e+1
-0.054, 3.2835872e-9, -4.4529358e-9, 5.1666615e+1
-0.055, 3.3754506e-9, -4.2851851e-9, 5.1999947e+1
-0.056, 3.4872860e-9, -4.3011612e-9, 5.2333279e+1
-0.057, 3.6270775e-9, -4.4369592e-9, 5.2666611e+1
-0.058, 3.7548875e-9, -4.2692090e-9, 5.2999943e+1
-0.059, 3.7788528e-9, -4.5128465e-9, 5.3333275e+1
-0.060, 3.7628762e-9, -4.4609236e-9, 5.3666607e+1
-0.061, 3.7668690e-9, -4.4209831e-9, 5.3999939e+1
-0.062, 3.6710128e-9, -4.5487929e-9, 5.4333271e+1
-0.063, 3.8866905e-9, -4.3650661e-9, 5.4666603e+1
-0.064, 4.0105079e-9, -4.4409534e-9, 5.4999935e+1
-0.065, 4.0744128e-9, -4.4050070e-9, 5.5333267e+1
-0.066, 3.8906860e-9, -4.3051553e-9, 5.5666599e+1
-0.067, 4.1622807e-9, -4.3570783e-9, 5.5999931e+1
-0.068, 4.1463064e-9, -4.4329651e-9, 5.6333263e+1
-0.069, 4.2142041e-9, -4.5048583e-9, 5.6666595e+1
-0.070, 4.4059192e-9, -4.4928763e-9, 5.6999928e+1
-0.071, 4.2621324e-9, -4.4409534e-9, 5.7333260e+1
-0.072, 4.4498547e-9, -4.2532324e-9, 5.7666592e+1
-0.073, 4.3060675e-9, -4.3011612e-9, 5.7999924e+1
-0.074, 4.3659796e-9, -4.3890305e-9, 5.8333256e+1
-0.075, 4.5417177e-9, -4.3850363e-9, 5.8666588e+1
-0.076, 4.4298845e-9, -4.3650661e-9, 5.8999920e+1
-0.077, 4.6096158e-9, -4.4409534e-9, 5.9333252e+1
-0.078, 4.5816577e-9, -4.4289714e-9, 5.9666584e+1
-0.079, 4.7534026e-9, -4.4569295e-9, 5.9999916e+1
-0.080, 4.7613913e-9, -4.5607753e-9, 6.0333248e+1
-0.081, 4.8812128e-9, -4.4888822e-9, 6.0666580e+1
-0.082, 4.9930460e-9, -4.4449475e-9, 6.0999912e+1
-0.083, 4.8931943e-9, -4.5767514e-9, 6.1333244e+1
-0.084, 5.1488143e-9, -4.4489417e-9, 6.1666576e+1
-0.085, 5.2526614e-9, -4.5847397e-9, 6.1999908e+1
-0.086, 5.1727795e-9, -4.5967217e-9, 6.2333241e+1
-0.087, 5.2486659e-9, -4.6366622e-9, 6.2666573e+1
-0.088, 5.4962976e-9, -4.6246802e-9, 6.2999905e+1
-0.089, 5.4403810e-9, -4.5607753e-9, 6.3333237e+1
-0.090, 5.3684879e-9, -4.6007158e-9, 6.3666569e+1
-0.091, 5.5482214e-9, -4.5328168e-9, 6.3999901e+1
-0.092, 5.4284000e-9, -4.4609236e-9, 6.4333237e+1
-0.093, 5.6201150e-9, -4.7884368e-9, 6.4666573e+1
-0.094, 5.5362399e-9, -4.6007158e-9, 6.4999908e+1
-0.095, 5.9236633e-9, -4.6606266e-9, 6.5333244e+1
-0.096, 5.8557652e-9, -4.4609236e-9, 6.5666580e+1
-0.097, 5.7838716e-9, -4.5607753e-9, 6.5999916e+1
-0.098, 5.8996981e-9, -4.6566329e-9, 6.6333252e+1
-0.099, 5.8757350e-9, -4.6686148e-9, 6.6666588e+1
-0.100, 6.1313550e-9, -4.7245319e-9, 6.6999924e+1
-0.101, 6.2072414e-9, -4.6845909e-9, 6.7333260e+1
-0.102, 6.1193712e-9, -4.6726090e-9, 6.7666595e+1
-0.103, 6.2152301e-9, -4.7604787e-9, 6.7999931e+1
-0.104, 6.5467365e-9, -4.9521938e-9, 6.8333267e+1
-0.105, 6.3190746e-9, -4.8643241e-9, 6.8666603e+1
-0.106, 6.5267667e-9, -4.9641757e-9, 6.8999939e+1
-0.107, 6.5746950e-9, -4.8403597e-9, 6.9333275e+1
-0.108, 6.6306116e-9, -4.9721636e-9, 6.9666611e+1
-0.109, 6.7424448e-9, -4.9402109e-9, 6.9999947e+1
-0.110, 6.6425954e-9, -4.9162470e-9, 7.0333282e+1
-0.111, 6.7863799e-9, -4.8163953e-9, 7.0666618e+1
-0.112, 6.8862316e-9, -5.0160986e-9, 7.0999954e+1
-0.113, 6.9101969e-9, -4.8403597e-9, 7.1333290e+1
-0.114, 7.0260229e-9, -5.1678728e-9, 7.1666626e+1
-0.115, 7.1857866e-9, -5.0320748e-9, 7.1999962e+1
-0.116, 7.1897799e-9, -4.9761577e-9, 7.2333298e+1
-0.117, 7.2736572e-9, -5.0360685e-9, 7.2666634e+1
-0.118, 7.2576802e-9, -4.8683182e-9, 7.2999969e+1
-0.119, 7.2456965e-9, -5.0919855e-9, 7.3333305e+1
-0.120, 7.4094531e-9, -5.0041158e-9, 7.3666641e+1
-0.121, 7.6171451e-9, -4.9601816e-9, 7.3999977e+1
-0.122, 7.4414070e-9, -5.0600333e-9, 7.4333313e+1
-0.123, 7.7449549e-9, -5.0400626e-9, 7.4666649e+1
-0.124, 7.8328251e-9, -5.1838489e-9, 7.4999985e+1
-0.125, 7.9206934e-9, -5.0760094e-9, 7.5333321e+1
-0.126, 7.9167002e-9, -5.0999733e-9, 7.5666656e+1
-0.127, 8.2282368e-9, -5.2397655e-9, 7.5999992e+1
-0.128, 8.0964320e-9, -5.1758606e-9, 7.6333328e+1
-0.129, 8.4079685e-9, -5.2477542e-9, 7.6666664e+1
-0.130, 8.2561957e-9, -5.1638787e-9, 7.7000000e+1
-0.131, 8.5597440e-9, -5.3795577e-9, 7.7333336e+1
-0.132, 8.5956904e-9, -5.4075167e-9, 7.7666672e+1
-0.133, 8.6116669e-9, -5.4474572e-9, 7.8000008e+1
-0.134, 9.0310444e-9, -5.3236411e-9, 7.8333344e+1
-0.135, 8.9471666e-9, -5.4474572e-9, 7.8666679e+1
-0.136, 9.2427292e-9, -5.4155045e-9, 7.9000015e+1
-0.137, 9.2147712e-9, -5.5273381e-9, 7.9333351e+1
-0.138, 9.2986454e-9, -5.6871006e-9, 7.9666687e+1
-0.139, 9.2706873e-9, -5.4993801e-9, 8.0000023e+1
-0.140, 9.4624024e-9, -5.6311835e-9, 8.0333359e+1
-0.141, 9.8777839e-9, -5.6311835e-9, 8.0666695e+1
-0.142, 1.0113435e-8, -5.5353269e-9, 8.1000031e+1
-0.143, 1.0512841e-8, -5.6591425e-9, 8.1333366e+1
-0.144, 1.0736508e-8, -5.6591425e-9, 8.1666702e+1
-0.145, 1.0261214e-8, -5.7749698e-9, 8.2000038e+1
-0.146, 1.0544793e-8, -5.9027800e-9, 8.2333374e+1
-0.147, 1.0800413e-8, -6.0425722e-9, 8.2666710e+1
-0.148, 1.1239757e-8, -6.0066259e-9, 8.3000046e+1
-0.149, 1.1139910e-8, -6.1304419e-9, 8.3333382e+1
-0.150, 1.1687095e-8, -5.9467147e-9, 8.3666718e+1
-0.151, 1.1607215e-8, -6.1184591e-9, 8.4000053e+1
-0.152, 1.2429992e-8, -6.1544059e-9, 8.4333389e+1
-0.153, 1.2677622e-8, -6.1743761e-9, 8.4666725e+1
-0.154, 1.3304690e-8, -6.3141683e-9, 8.5000061e+1
-0.155, 1.3696106e-8, -6.3780736e-9, 8.5333397e+1
-0.156, 1.4255277e-8, -6.3820678e-9, 8.5666733e+1
-0.157, 1.4303203e-8, -6.4699366e-9, 8.6000069e+1
-0.158, 1.4718586e-8, -6.5418302e-9, 8.6333405e+1
-0.159, 1.5197873e-8, -6.8174204e-9, 8.6666740e+1
-0.160, 1.5669174e-8, -6.6217107e-9, 8.7000076e+1
-0.161, 1.6380117e-8, -6.7095804e-9, 8.7333412e+1
-0.162, 1.6947274e-8, -6.8413848e-9, 8.7666748e+1
-0.163, 1.7506441e-8, -6.7934560e-9, 8.8000084e+1
-0.164, 1.8708656e-8, -6.9652009e-9, 8.8333420e+1
-0.165, 1.9271818e-8, -7.1409390e-9, 8.8666756e+1
-0.166, 1.9463531e-8, -7.3166779e-9, 8.9000092e+1
-0.167, 2.0849473e-8, -7.4444877e-9, 8.9333427e+1
-0.168, 2.1264853e-8, -7.5243687e-9, 8.9666763e+1
-0.169, 2.2239407e-8, -7.7480369e-9, 9.0000099e+1
-0.170, 2.3102125e-8, -7.8958164e-9, 9.0333435e+1
-0.171, 2.3277860e-8, -8.0755500e-9, 9.0666771e+1
-0.172, 2.4164544e-8, -8.2073539e-9, 9.1000107e+1
-0.173, 2.4951373e-8, -8.3751042e-9, 9.1333443e+1
-0.174, 2.5778144e-8, -8.4869383e-9, 9.1666779e+1
-0.175, 2.6708760e-8, -8.7864924e-9, 9.2000114e+1
-0.176, 2.7076213e-8, -8.9023207e-9, 9.2333450e+1
-0.177, 2.8154609e-8, -9.0940349e-9, 9.2666786e+1
-0.178, 2.8613929e-8, -9.5733226e-9, 9.3000122e+1
-0.179, 2.9380789e-8, -9.7730268e-9, 9.3333458e+1
-0.180, 3.0319395e-8, -1.0060598e-8, 9.3666794e+1
-0.181, 3.1082259e-8, -1.0452016e-8, 9.4000130e+1
-0.182, 3.1673380e-8, -1.0995209e-8, 9.4333466e+1
-0.183, 3.2791714e-8, -1.1450531e-8, 9.4666801e+1
-0.184, 3.3286980e-8, -1.1881891e-8, 9.5000137e+1
-0.185, 3.4676912e-8, -1.2357184e-8, 9.5333473e+1
-0.186, 3.6286522e-8, -1.3068127e-8, 9.5666809e+1
-0.187, 3.7812253e-8, -1.3918863e-8, 9.6000145e+1
-0.188, 3.9773340e-8, -1.4765603e-8, 9.6333481e+1
-0.189, 4.1858236e-8, -1.5855981e-8, 9.6666817e+1
-0.190, 4.4414438e-8, -1.7022248e-8, 9.7000153e+1
-0.191, 4.6786909e-8, -1.8723718e-8, 9.7333488e+1
-0.192, 4.8919738e-8, -2.0564981e-8, 9.7666824e+1
-0.193, 5.0856851e-8, -2.2322368e-8, 9.8000160e+1
-0.194, 5.2586280e-8, -2.3947951e-8, 9.8333496e+1
-0.195, 5.4319706e-8, -2.5725308e-8, 9.8666832e+1
-0.196, 5.5769551e-8, -2.7123230e-8, 9.9000168e+1
-0.197, 5.7147506e-8, -2.8812719e-8, 9.9333504e+1
-0.198, 5.9168496e-8, -3.0026911e-8, 9.9666840e+1
-0.199, 6.2180021e-8, -3.1628531e-8, 1.0000018e+2
-0.200, 6.6765203e-8, -3.3118315e-8, 1.0033351e+2
-0.201, 7.1426271e-8, -3.4851741e-8, 1.0066685e+2
-0.202, 7.5300512e-8, -3.6900694e-8, 1.0100018e+2
-0.203, 7.8375940e-8, -3.9636628e-8, 1.0133352e+2
-0.204, 8.0536729e-8, -4.3990156e-8, 1.0166685e+2
-0.205, 8.4243219e-8, -4.8303743e-8, 1.0200019e+2
-0.206, 8.9918785e-8, -5.1850467e-8, 1.0233353e+2
-0.207, 9.7024213e-8, -5.4462582e-8, 1.0266686e+2
-0.208, 1.0221650e-7, -5.7398218e-8, 1.0300020e+2
-0.209, 1.0625050e-7, -6.1252486e-8, 1.0333353e+2
-0.210, 1.1124708e-7, -6.6173172e-8, 1.0366687e+2
-0.211, 1.1909540e-7, -7.2216189e-8, 1.0400021e+2
-0.212, 1.2631267e-7, -7.7060989e-8, 1.0433354e+2
-0.213, 1.3047847e-7, -8.1051056e-8, 1.0466688e+2
-0.214, 1.3849856e-7, -8.5172921e-8, 1.0500021e+2
-0.215, 1.4862749e-7, -9.1866973e-8, 1.0533355e+2
-0.216, 1.5440691e-7, -1.0061397e-7, 1.0566689e+2
-0.217, 1.6328171e-7, -1.0589012e-7, 1.0600022e+2
-0.218, 1.7546759e-7, -1.1231657e-7, 1.0633356e+2
-0.219, 1.8279270e-7, -1.2330024e-7, 1.0666689e+2
-0.220, 1.9739498e-7, -1.3055745e-7, 1.0700023e+2
-0.221, 2.0532320e-7, -1.3811821e-7, 1.0733356e+2
-0.222, 2.2139132e-7, -1.5071947e-7, 1.0766690e+2
-0.223, 2.3073343e-7, -1.5778897e-7, 1.0800024e+2
-0.224, 2.4795582e-7, -1.7087750e-7, 1.0833357e+2
-0.225, 2.6047320e-7, -1.8048722e-7, 1.0866691e+2
-0.226, 2.7643350e-7, -1.9406701e-7, 1.0900024e+2
-0.227, 2.9475822e-7, -2.0532229e-7, 1.0933358e+2
-0.228, 3.0973200e-7, -2.2169795e-7, 1.0966692e+2
-0.229, 3.2683454e-7, -2.3308901e-7, 1.1000025e+2
-0.230, 3.4707645e-7, -2.5051111e-7, 1.1033359e+2
-0.231, 3.6788950e-7, -2.6693468e-7, 1.1066692e+2
-0.232, 3.8869061e-7, -2.8195635e-7, 1.1100026e+2
-0.233, 4.0989505e-7, -3.0151529e-7, 1.1133360e+2
-0.234, 4.3251740e-7, -3.2235229e-7, 1.1166693e+2
-0.235, 4.5574691e-7, -3.4224271e-7, 1.1200027e+2
-0.236, 4.8282664e-7, -3.6099883e-7, 1.1233360e+2
-0.237, 5.0974660e-7, -3.8142846e-7, 1.1266694e+2
-0.238, 5.3733356e-7, -4.0464593e-7, 1.1300027e+2
-0.239, 5.6599498e-7, -4.2823089e-7, 1.1333361e+2
-0.240, 5.9506374e-7, -4.5286623e-7, 1.1366695e+2
-0.241, 6.2571422e-7, -4.7856406e-7, 1.1400028e+2
-0.242, 6.5762674e-7, -5.0622691e-7, 1.1433362e+2
-0.243, 6.9136462e-7, -5.3530772e-7, 1.1466695e+2
-0.244, 7.2573749e-7, -5.6370146e-7, 1.1500029e+2
-0.245, 7.6107301e-7, -5.9328147e-7, 1.1533363e+2
-0.246, 7.9462711e-7, -6.2346061e-7, 1.1566696e+2
-0.247, 8.3294611e-7, -6.5560482e-7, 1.1600030e+2
-0.248, 8.6903248e-7, -6.8818036e-7, 1.1633363e+2
-0.249, 9.0868946e-7, -7.2013285e-7, 1.1666697e+2
-0.250, 9.4594611e-7, -7.5487321e-7, 1.1700031e+2
-0.251, 9.8699309e-7, -7.8883875e-7, 1.1733364e+2
-0.252, 1.0277046e-6, -8.2167793e-7, 1.1766698e+2
-0.253, 1.0664710e-6, -8.5871886e-7, 1.1800031e+2
-0.254, 1.1084844e-6, -8.9273226e-7, 1.1833365e+2
-0.255, 1.1496593e-6, -9.3011272e-7, 1.1866698e+2
-0.256, 1.1890168e-6, -9.6499286e-7, 1.1900032e+2
-0.257, 1.2305270e-6, -1.0025210e-6, 1.1933366e+2
-0.258, 1.2731875e-6, -1.0379124e-6, 1.1966699e+2
-0.259, 1.3122415e-6, -1.0745979e-6, 1.2000033e+2
-0.260, 1.3544267e-6, -1.1107401e-6, 1.2033366e+2
-0.261, 1.3985372e-6, -1.1463034e-6, 1.2066700e+2
-0.262, 1.4419367e-6, -1.1819063e-6, 1.2100034e+2
-0.263, 1.4813619e-6, -1.2158439e-6, 1.2133367e+2
-0.264, 1.5210190e-6, -1.2518464e-6, 1.2166701e+2
-0.265, 1.5568977e-6, -1.2844379e-6, 1.2200034e+2
-0.266, 1.5946456e-6, -1.3193300e-6, 1.2233368e+2
-0.267, 1.6296575e-6, -1.3515462e-6, 1.2266702e+2
-0.268, 1.6673096e-6, -1.3831351e-6, 1.2300035e+2
-0.269, 1.6992821e-6, -1.4192694e-6, 1.2333369e+2
-0.270, 1.7348732e-6, -1.4524882e-6, 1.2366702e+2
-0.271, 1.7667816e-6, -1.4802988e-6, 1.2400036e+2
-0.272, 1.7969409e-6, -1.5103061e-6, 1.2433369e+2
-0.273, 1.8305309e-6, -1.5394708e-6, 1.2466703e+2
-0.274, 1.8605543e-6, -1.5654401e-6, 1.2500037e+2
-0.275, 1.8878976e-6, -1.5924121e-6, 1.2533370e+2
-0.276, 1.9144620e-6, -1.6175147e-6, 1.2566704e+2
-0.277, 1.9394370e-6, -1.6413434e-6, 1.2600037e+2
-0.278, 1.9638487e-6, -1.6652477e-6, 1.2633371e+2
-0.279, 1.9872859e-6, -1.6879980e-6, 1.2666705e+2
-0.280, 2.0095806e-6, -1.7098015e-6, 1.2700038e+2
-0.281, 2.0286843e-6, -1.7287454e-6, 1.2733372e+2
-0.282, 2.0481273e-6, -1.7488394e-6, 1.2766705e+2
-0.283, 2.0664561e-6, -1.7694329e-6, 1.2800038e+2
-0.284, 2.0853520e-6, -1.7894232e-6, 1.2833371e+2
-0.285, 2.1033372e-6, -1.8046325e-6, 1.2866704e+2
-0.286, 2.1190301e-6, -1.8204930e-6, 1.2900037e+2
-0.287, 2.1362682e-6, -1.8381747e-6, 1.2933369e+2
-0.288, 2.1543096e-6, -1.8496816e-6, 1.2966702e+2
-0.289, 2.1662559e-6, -1.8662170e-6, 1.3000035e+2
-0.290, 2.1819963e-6, -1.8776440e-6, 1.3033368e+2
-0.291, 2.1914423e-6, -1.8913715e-6, 1.3066701e+2
-0.292, 2.2062084e-6, -1.9023153e-6, 1.3100034e+2
-0.293, 2.2135894e-6, -1.9146648e-6, 1.3133366e+2
-0.294, 2.2271772e-6, -1.9237114e-6, 1.3166699e+2
-0.295, 2.2351494e-6, -1.9355577e-6, 1.3200032e+2
-0.296, 2.2470995e-6, -1.9421880e-6, 1.3233365e+2
-0.297, 2.2576080e-6, -1.9498925e-6, 1.3266698e+2
-0.298, 2.2641302e-6, -1.9608804e-6, 1.3300031e+2
-0.299, 2.2754934e-6, -1.9673785e-6, 1.3333363e+2
-0.300, 2.2821355e-6, -1.9759857e-6, 1.3366696e+2
-0.301, 2.2865768e-6, -1.9860070e-6, 1.3400029e+2
-0.302, 2.2948645e-6, -1.9910913e-6, 1.3433362e+2
-0.303, 2.3024054e-6, -1.9969186e-6, 1.3466695e+2
-0.304, 2.3065193e-6, -2.0058214e-6, 1.3500027e+2
-0.305, 2.3094788e-6, -2.0113173e-6, 1.3533360e+2
-0.306, 2.3138402e-6, -2.0153511e-6, 1.3566693e+2
-0.307, 2.3204864e-6, -2.0198645e-6, 1.3600026e+2
-0.308, 2.3266293e-6, -2.0277289e-6, 1.3633359e+2
-0.309, 2.3302998e-6, -2.0338318e-6, 1.3666692e+2
-0.310, 2.3334430e-6, -2.0376381e-6, 1.3700024e+2
-0.311, 2.3377568e-6, -2.0404418e-6, 1.3733357e+2
-0.312, 2.3434284e-6, -2.0437810e-6, 1.3766690e+2
-0.313, 2.3492437e-6, -2.0482903e-6, 1.3800023e+2
-0.314, 2.3531500e-6, -2.0544292e-6, 1.3833356e+2
-0.315, 2.3559817e-6, -2.0593977e-6, 1.3866689e+2
-0.316, 2.3581704e-6, -2.0609875e-6, 1.3900021e+2
-0.317, 2.3604750e-6, -2.0625409e-6, 1.3933354e+2
-0.318, 2.3631869e-6, -2.0643186e-6, 1.3966687e+2
-0.319, 2.3680877e-6, -2.0670066e-6, 1.4000020e+2
-0.320, 2.3723014e-6, -2.0701536e-6, 1.4033353e+2
-0.321, 2.3755686e-6, -2.0742236e-6, 1.4066685e+2
-0.322, 2.3784921e-6, -2.0785374e-6, 1.4100018e+2
-0.323, 2.3801779e-6, -2.0821240e-6, 1.4133351e+2
-0.324, 2.3823704e-6, -2.0842767e-6, 1.4166684e+2
-0.325, 2.3849027e-6, -2.0864015e-6, 1.4200017e+2
-0.326, 2.3895718e-6, -2.0874400e-6, 1.4233350e+2
-0.327, 2.3932384e-6, -2.0882746e-6, 1.4266682e+2
-0.328, 2.3990538e-6, -2.0893212e-6, 1.4300015e+2
-0.329, 2.4025564e-6, -2.0905075e-6, 1.4333348e+2
-0.330, 2.4050728e-6, -2.0919454e-6, 1.4366681e+2
-0.331, 2.4067263e-6, -2.0940940e-6, 1.4400014e+2
-0.332, 2.4096100e-6, -2.0966304e-6, 1.4433347e+2
-0.333, 2.4129729e-6, -2.1000014e-6, 1.4466679e+2
-0.334, 2.4168630e-6, -2.1046665e-6, 1.4500012e+2
-0.335, 2.4203739e-6, -2.1046906e-6, 1.4533345e+2
-0.336, 2.4229741e-6, -2.1065398e-6, 1.4566678e+2
-0.337, 2.4249712e-6, -2.1074902e-6, 1.4600011e+2
-0.338, 2.4262890e-6, -2.1084447e-6, 1.4633344e+2
-0.339, 2.4272276e-6, -2.1092756e-6, 1.4666676e+2
-0.340, 2.4283022e-6, -2.1102862e-6, 1.4700009e+2
-0.341, 2.4289411e-6, -2.1110050e-6, 1.4733342e+2
-0.342, 2.4295643e-6, -2.1117680e-6, 1.4766675e+2
-0.343, 2.4298199e-6, -2.1126345e-6, 1.4800008e+2
-0.344, 2.4301794e-6, -2.1137409e-6, 1.4833340e+2
-0.345, 2.4303790e-6, -2.1149472e-6, 1.4866673e+2
-0.346, 2.4306985e-6, -2.1164251e-6, 1.4900006e+2
-0.347, 2.4309822e-6, -2.1177470e-6, 1.4933339e+2
-0.348, 2.4312737e-6, -2.1197279e-6, 1.4966672e+2
-0.349, 2.4319968e-6, -2.1208584e-6, 1.5000005e+2
-0.350, 2.4319406e-6, -2.1226397e-6, 1.5033337e+2
-0.351, 2.4313017e-6, -2.1250801e-6, 1.5066670e+2
-0.352, 2.4307146e-6, -2.1274725e-6, 1.5100003e+2
-0.353, 2.4307744e-6, -2.1307876e-6, 1.5133336e+2
-0.354, 2.4302592e-6, -2.1318619e-6, 1.5166669e+2
-0.355, 2.4301276e-6, -2.1333797e-6, 1.5200002e+2
-0.356, 2.4299597e-6, -2.1343144e-6, 1.5233334e+2
-0.357, 2.4296123e-6, -2.1354965e-6, 1.5266667e+2
-0.358, 2.4296162e-6, -2.1367825e-6, 1.5300000e+2
-0.359, 2.4290330e-6, -2.1378492e-6, 1.5333333e+2
-0.360, 2.4284220e-6, -2.1390592e-6, 1.5366666e+2
-0.361, 2.4282103e-6, -2.1401138e-6, 1.5399998e+2
-0.362, 2.4279545e-6, -2.1413557e-6, 1.5433331e+2
-0.363, 2.4275193e-6, -2.1422707e-6, 1.5466664e+2
-0.364, 2.4276032e-6, -2.1441956e-6, 1.5499997e+2
-0.365, 2.4277631e-6, -2.1455378e-6, 1.5533330e+2
-0.366, 2.4275953e-6, -2.1475107e-6, 1.5566663e+2
-0.367, 2.4276233e-6, -2.1489645e-6, 1.5599995e+2
-0.368, 2.4280505e-6, -2.1508217e-6, 1.5633328e+2
-0.369, 2.4283581e-6, -2.1520759e-6, 1.5666661e+2
-0.370, 2.4282144e-6, -2.1539292e-6, 1.5699994e+2
-0.371, 2.4288893e-6, -2.1552473e-6, 1.5733327e+2
-0.372, 2.4293606e-6, -2.1560659e-6, 1.5766660e+2
-0.373, 2.4293447e-6, -2.1573362e-6, 1.5799992e+2
-0.374, 2.4295564e-6, -2.1582148e-6, 1.5833325e+2
-0.375, 2.4296762e-6, -2.1589178e-6, 1.5866658e+2
-0.376, 2.4300555e-6, -2.1594890e-6, 1.5899991e+2
-0.377, 2.4303031e-6, -2.1602837e-6, 1.5933324e+2
-0.378, 2.4307624e-6, -2.1607470e-6, 1.5966656e+2
-0.379, 2.4314174e-6, -2.1612543e-6, 1.5999989e+2
-0.380, 2.4318169e-6, -2.1618255e-6, 1.6033322e+2
-0.381, 2.4331589e-6, -2.1622250e-6, 1.6066655e+2
-0.382, 2.4348485e-6, -2.1625324e-6, 1.6099988e+2
-0.383, 2.4367337e-6, -2.1628759e-6, 1.6133321e+2
-0.384, 2.4387587e-6, -2.1626083e-6, 1.6166653e+2
-0.385, 2.4410151e-6, -2.1628800e-6, 1.6199986e+2
-0.386, 2.4435394e-6, -2.1629758e-6, 1.6233319e+2
-0.387, 2.4458761e-6, -2.1626840e-6, 1.6266652e+2
-0.388, 2.4480248e-6, -2.1629160e-6, 1.6299985e+2
-0.389, 2.4495826e-6, -2.1630317e-6, 1.6333318e+2
-0.390, 2.4502535e-6, -2.1632675e-6, 1.6366650e+2
-0.391, 2.4512281e-6, -2.1636188e-6, 1.6399983e+2
-0.392, 2.4519111e-6, -2.1640822e-6, 1.6433316e+2
-0.393, 2.4523742e-6, -2.1647811e-6, 1.6466649e+2
-0.394, 2.4526898e-6, -2.1653402e-6, 1.6499982e+2
-0.395, 2.4524982e-6, -2.1662229e-6, 1.6533315e+2
-0.396, 2.4522826e-6, -2.1673852e-6, 1.6566647e+2
-0.397, 2.4524102e-6, -2.1688431e-6, 1.6599980e+2
-0.398, 2.4521546e-6, -2.1703968e-6, 1.6633313e+2
-0.399, 2.4519111e-6, -2.1722658e-6, 1.6666646e+2
-0.400, 2.4511960e-6, -2.1745864e-6, 1.6699979e+2
-0.401, 2.4507647e-6, -2.1767632e-6, 1.6733311e+2
-0.402, 2.4504252e-6, -2.1783569e-6, 1.6766644e+2
-0.403, 2.4504093e-6, -2.1802180e-6, 1.6799977e+2
-0.404, 2.4502135e-6, -2.1812925e-6, 1.6833310e+2
-0.405, 2.4496624e-6, -2.1824949e-6, 1.6866643e+2
-0.406, 2.4492988e-6, -2.1837329e-6, 1.6899976e+2
-0.407, 2.4491073e-6, -2.1844198e-6, 1.6933308e+2
-0.408, 2.4488756e-6, -2.1852265e-6, 1.6966641e+2
-0.409, 2.4481647e-6, -2.1861613e-6, 1.6999974e+2
-0.410, 2.4474896e-6, -2.1868163e-6, 1.7033307e+2
-0.411, 2.4470344e-6, -2.1879787e-6, 1.7066640e+2
-0.412, 2.4465990e-6, -2.1883741e-6, 1.7099973e+2
-0.413, 2.4468145e-6, -2.1888532e-6, 1.7133305e+2
-0.414, 2.4459719e-6, -2.1893525e-6, 1.7166638e+2
-0.415, 2.4460637e-6, -2.1900873e-6, 1.7199971e+2
-0.416, 2.4461317e-6, -2.1908422e-6, 1.7233304e+2
-0.417, 2.4465990e-6, -2.1909741e-6, 1.7266637e+2
-0.418, 2.4463634e-6, -2.1913856e-6, 1.7299969e+2
-0.419, 2.4473218e-6, -2.1917967e-6, 1.7333302e+2
-0.420, 2.4475814e-6, -2.1922563e-6, 1.7366635e+2
-0.421, 2.4476933e-6, -2.1927476e-6, 1.7399968e+2
-0.422, 2.4482765e-6, -2.1933386e-6, 1.7433301e+2
-0.423, 2.4490553e-6, -2.1944290e-6, 1.7466634e+2
-0.424, 2.4492431e-6, -2.1951519e-6, 1.7499966e+2
-0.425, 2.4494068e-6, -2.1961544e-6, 1.7533299e+2
-0.426, 2.4495905e-6, -2.1968253e-6, 1.7566632e+2
-0.427, 2.4499179e-6, -2.1979477e-6, 1.7599965e+2
-0.428, 2.4508886e-6, -2.1991300e-6, 1.7633298e+2
-0.429, 2.4506410e-6, -2.2005161e-6, 1.7666631e+2
-0.430, 2.4514038e-6, -2.2014347e-6, 1.7699963e+2
-0.431, 2.4514636e-6, -2.2020815e-6, 1.7733296e+2
-0.432, 2.4517553e-6, -2.2027366e-6, 1.7766629e+2
-0.433, 2.4519709e-6, -2.2041704e-6, 1.7799962e+2
-0.434, 2.4519791e-6, -2.2059958e-6, 1.7833295e+2
-0.435, 2.4515916e-6, -2.2071820e-6, 1.7866628e+2
-0.436, 2.4516753e-6, -2.2080767e-6, 1.7899960e+2
-0.437, 2.4513158e-6, -2.2092511e-6, 1.7933293e+2
-0.438, 2.4508006e-6, -2.2102693e-6, 1.7966626e+2
-0.439, 2.4505609e-6, -2.2114357e-6, 1.7999959e+2
-0.440, 2.4498502e-6, -2.2125621e-6, 1.8033292e+2
-0.441, 2.4492790e-6, -2.2135007e-6, 1.8066624e+2
-0.442, 2.4488756e-6, -2.2145591e-6, 1.8099957e+2
-0.443, 2.4490953e-6, -2.2161566e-6, 1.8133290e+2
-0.444, 2.4489475e-6, -2.2176305e-6, 1.8166623e+2
-0.445, 2.4486080e-6, -2.2192162e-6, 1.8199956e+2
-0.446, 2.4493229e-6, -2.2195397e-6, 1.8233289e+2
-0.447, 2.4496862e-6, -2.2194677e-6, 1.8266621e+2
-0.448, 2.4500018e-6, -2.2193319e-6, 1.8299954e+2
-0.449, 2.4504172e-6, -2.2199829e-6, 1.8333287e+2
-0.450, 2.4507688e-6, -2.2204542e-6, 1.8366620e+2
-0.451, 2.4506489e-6, -2.2212732e-6, 1.8399953e+2
-0.452, 2.4499980e-6, -2.2221279e-6, 1.8433286e+2
-0.453, 2.4503813e-6, -2.2232862e-6, 1.8466618e+2
-0.454, 2.4526180e-6, -2.2251234e-6, 1.8499951e+2
-0.455, 2.4513199e-6, -2.2243605e-6, 1.8533284e+2
-0.456, 2.4502056e-6, -2.2247280e-6, 1.8566617e+2
-0.457, 2.4499459e-6, -2.2250995e-6, 1.8599950e+2
-0.458, 2.4503572e-6, -2.2260140e-6, 1.8633282e+2
-0.459, 2.4511362e-6, -2.2257943e-6, 1.8666615e+2
-0.460, 2.4513240e-6, -2.2270644e-6, 1.8699948e+2
-0.461, 2.4510603e-6, -2.2279312e-6, 1.8733281e+2
-0.462, 2.4515118e-6, -2.2289857e-6, 1.8766614e+2
-0.463, 2.4511801e-6, -2.2294769e-6, 1.8799947e+2
-0.464, 2.4514877e-6, -2.2300560e-6, 1.8833279e+2
-0.465, 2.4520627e-6, -2.2306272e-6, 1.8866612e+2
-0.466, 2.4524463e-6, -2.2310664e-6, 1.8899945e+2
-0.467, 2.4530175e-6, -2.2310387e-6, 1.8933278e+2
-0.468, 2.4533770e-6, -2.2309746e-6, 1.8966611e+2
-0.469, 2.4542037e-6, -2.2314819e-6, 1.8999944e+2
-0.470, 2.4544831e-6, -2.2314380e-6, 1.9033276e+2
-0.471, 2.4546191e-6, -2.2314259e-6, 1.9066609e+2
-0.472, 2.4552021e-6, -2.2315817e-6, 1.9099942e+2
-0.473, 2.4556693e-6, -2.2318095e-6, 1.9133275e+2
-0.474, 2.4561607e-6, -2.2320210e-6, 1.9166608e+2
-0.475, 2.4570472e-6, -2.2318814e-6, 1.9199940e+2
-0.476, 2.4583535e-6, -2.2318852e-6, 1.9233273e+2
-0.477, 2.4602466e-6, -2.2314259e-6, 1.9266606e+2
-0.478, 2.4619483e-6, -2.2312024e-6, 1.9299939e+2
-0.479, 2.4646522e-6, -2.2311226e-6, 1.9333272e+2
-0.480, 2.4660501e-6, -2.2306831e-6, 1.9366605e+2
-0.481, 2.4677395e-6, -2.2304753e-6, 1.9399937e+2
-0.482, 2.4698325e-6, -2.2307190e-6, 1.9433270e+2
-0.483, 2.4709109e-6, -2.2311983e-6, 1.9466603e+2
-0.484, 2.4716376e-6, -2.2316776e-6, 1.9499936e+2
-0.485, 2.4714500e-6, -2.2322488e-6, 1.9533269e+2
-0.486, 2.4718213e-6, -2.2329596e-6, 1.9566602e+2
-0.487, 2.4713340e-6, -2.2336228e-6, 1.9599934e+2
-0.488, 2.4719131e-6, -2.2339702e-6, 1.9633267e+2
-0.489, 2.4719732e-6, -2.2344216e-6, 1.9666600e+2
-0.490, 2.4720730e-6, -2.2352363e-6, 1.9699933e+2
-0.491, 2.4724845e-6, -2.2359711e-6, 1.9733266e+2
-0.492, 2.4721010e-6, -2.2370616e-6, 1.9766599e+2
-0.493, 2.4728838e-6, -2.2375930e-6, 1.9799931e+2
-0.494, 2.4728799e-6, -2.2381998e-6, 1.9833264e+2
-0.495, 2.4733392e-6, -2.2389029e-6, 1.9866597e+2
-0.496, 2.4744215e-6, -2.2395100e-6, 1.9899930e+2
-0.497, 2.4751605e-6, -2.2399295e-6, 1.9933263e+2
-0.498, 2.4761948e-6, -2.2398335e-6, 1.9966595e+2
-0.499, 2.4773415e-6, -2.2401889e-6, 1.9999928e+2
-0.500, 2.4761869e-6, -2.2396619e-6, 2.0033261e+2
-0.499, 2.4759272e-6, -2.2389229e-6, 2.0066594e+2
-0.498, 2.4761791e-6, -2.2378244e-6, 2.0099927e+2
-0.497, 2.4766782e-6, -2.2366023e-6, 2.0133260e+2
-0.496, 2.4772612e-6, -2.2354000e-6, 2.0166592e+2
-0.495, 2.4778963e-6, -2.2342458e-6, 2.0199925e+2
-0.494, 2.4786355e-6, -2.2333311e-6, 2.0233258e+2
-0.493, 2.4791145e-6, -2.2317695e-6, 2.0266591e+2
-0.492, 2.4796018e-6, -2.2306392e-6, 2.0299924e+2
-0.491, 2.4806363e-6, -2.2289537e-6, 2.0333257e+2
-0.490, 2.4814351e-6, -2.2271684e-6, 2.0366589e+2
-0.489, 2.4826893e-6, -2.2248360e-6, 2.0399922e+2
-0.488, 2.4840913e-6, -2.2226511e-6, 2.0433255e+2
-0.487, 2.4852975e-6, -2.2211534e-6, 2.0466588e+2
-0.486, 2.4874662e-6, -2.2192003e-6, 2.0499921e+2
-0.485, 2.4889321e-6, -2.2172510e-6, 2.0533253e+2
-0.484, 2.4898068e-6, -2.2159688e-6, 2.0566586e+2
-0.483, 2.4895030e-6, -2.2154177e-6, 2.0599919e+2
-0.482, 2.4883009e-6, -2.2147628e-6, 2.0633252e+2
-0.481, 2.4875060e-6, -2.2144154e-6, 2.0666585e+2
-0.480, 2.4865556e-6, -2.2141835e-6, 2.0699918e+2
-0.479, 2.4847423e-6, -2.2136483e-6, 2.0733250e+2
-0.478, 2.4828091e-6, -2.2132649e-6, 2.0766583e+2
-0.477, 2.4815072e-6, -2.2132849e-6, 2.0799916e+2
-0.476, 2.4808721e-6, -2.2128336e-6, 2.0833249e+2
-0.475, 2.4801730e-6, -2.2126499e-6, 2.0866582e+2
-0.474, 2.4795820e-6, -2.2122024e-6, 2.0899915e+2
-0.473, 2.4794103e-6, -2.2118511e-6, 2.0933247e+2
-0.472, 2.4787391e-6, -2.2118311e-6, 2.0966580e+2
-0.471, 2.4780441e-6, -2.2115555e-6, 2.0999913e+2
-0.470, 2.4772974e-6, -2.2114116e-6, 2.1033246e+2
-0.469, 2.4759634e-6, -2.2109964e-6, 2.1066579e+2
-0.468, 2.4737467e-6, -2.2109643e-6, 2.1099911e+2
-0.467, 2.4710546e-6, -2.2109125e-6, 2.1133244e+2
-0.466, 2.4668409e-6, -2.2109805e-6, 2.1166577e+2
-0.465, 2.4632582e-6, -2.2111080e-6, 2.1199910e+2
-0.464, 2.4594399e-6, -2.2112119e-6, 2.1233243e+2
-0.463, 2.4565561e-6, -2.2114716e-6, 2.1266576e+2
-0.462, 2.4544952e-6, -2.2113918e-6, 2.1299908e+2
-0.461, 2.4529136e-6, -2.2115155e-6, 2.1333241e+2
-0.460, 2.4509604e-6, -2.2115396e-6, 2.1366574e+2
-0.459, 2.4488038e-6, -2.2114477e-6, 2.1399907e+2
-0.458, 2.4457961e-6, -2.2111080e-6, 2.1433240e+2
-0.457, 2.4435594e-6, -2.2111760e-6, 2.1466573e+2
-0.456, 2.4410272e-6, -2.2104412e-6, 2.1499905e+2
-0.455, 2.4381195e-6, -2.2098741e-6, 2.1533238e+2
-0.454, 2.4358069e-6, -2.2095705e-6, 2.1566571e+2
-0.453, 2.4335463e-6, -2.2095385e-6, 2.1599904e+2
-0.452, 2.4320884e-6, -2.2092511e-6, 2.1633237e+2
-0.451, 2.4310541e-6, -2.2090992e-6, 2.1666570e+2
-0.450, 2.4301673e-6, -2.2091231e-6, 2.1699902e+2
-0.449, 2.4293286e-6, -2.2088195e-6, 2.1733235e+2
-0.448, 2.4286655e-6, -2.2087436e-6, 2.1766568e+2
-0.447, 2.4275594e-6, -2.2081886e-6, 2.1799901e+2
-0.446, 2.4270159e-6, -2.2079009e-6, 2.1833234e+2
-0.445, 2.4273475e-6, -2.2076772e-6, 2.1866566e+2
-0.444, 2.4263570e-6, -2.2068266e-6, 2.1899899e+2
-0.443, 2.4259737e-6, -2.2060119e-6, 2.1933232e+2
-0.442, 2.4262451e-6, -2.2053807e-6, 2.1966565e+2
-0.441, 2.4257779e-6, -2.2045379e-6, 2.1999898e+2
-0.440, 2.4256981e-6, -2.2040426e-6, 2.2033231e+2
-0.439, 2.4250628e-6, -2.2033078e-6, 2.2066563e+2
-0.438, 2.4255662e-6, -2.2027168e-6, 2.2099896e+2
-0.437, 2.4256062e-6, -2.2019299e-6, 2.2133229e+2
-0.436, 2.4256180e-6, -2.2053287e-6, 2.2166562e+2
-0.435, 2.4276151e-6, -2.2040226e-6, 2.2199895e+2
-0.434, 2.4265448e-6, -2.2011191e-6, 2.2233228e+2
-0.433, 2.4266367e-6, -2.1994974e-6, 2.2266560e+2
-0.432, 2.4271958e-6, -2.1962264e-6, 2.2299893e+2
-0.431, 2.4273595e-6, -2.1940416e-6, 2.2333226e+2
-0.430, 2.4274673e-6, -2.1930312e-6, 2.2366559e+2
-0.429, 2.4277390e-6, -2.1917128e-6, 2.2399892e+2
-0.428, 2.4274195e-6, -2.1910539e-6, 2.2433224e+2
-0.427, 2.4270480e-6, -2.1904748e-6, 2.2466557e+2
-0.426, 2.4266326e-6, -2.1899516e-6, 2.2499890e+2
-0.425, 2.4264409e-6, -2.1895162e-6, 2.2533223e+2
-0.424, 2.4262890e-6, -2.1888413e-6, 2.2566556e+2
-0.423, 2.4264609e-6, -2.1883341e-6, 2.2599889e+2
-0.422, 2.4262692e-6, -2.1874753e-6, 2.2633221e+2
-0.421, 2.4266965e-6, -2.1869400e-6, 2.2666554e+2
-0.420, 2.4270439e-6, -2.1857779e-6, 2.2699887e+2
-0.419, 2.4273795e-6, -2.1847475e-6, 2.2733220e+2
-0.418, 2.4279307e-6, -2.1835610e-6, 2.2766553e+2
-0.417, 2.4278629e-6, -2.1822350e-6, 2.2799886e+2
-0.416, 2.4281223e-6, -2.1812566e-6, 2.2833218e+2
-0.415, 2.4284700e-6, -2.1805536e-6, 2.2866551e+2
-0.414, 2.4285098e-6, -2.1775340e-6, 2.2899884e+2
-0.413, 2.4284659e-6, -2.1754493e-6, 2.2933217e+2
-0.412, 2.4290850e-6, -2.1730368e-6, 2.2966550e+2
-0.411, 2.4295202e-6, -2.1702010e-6, 2.2999883e+2
-0.410, 2.4303231e-6, -2.1681760e-6, 2.3033215e+2
-0.409, 2.4311498e-6, -2.1660032e-6, 2.3066548e+2
-0.408, 2.4322082e-6, -2.1643059e-6, 2.3099881e+2
-0.407, 2.4328235e-6, -2.1625963e-6, 2.3133214e+2
-0.406, 2.4341496e-6, -2.1608389e-6, 2.3166547e+2
-0.405, 2.4344770e-6, -2.1598923e-6, 2.3199879e+2
-0.404, 2.4342773e-6, -2.1590895e-6, 2.3233212e+2
-0.403, 2.4341455e-6, -2.1590138e-6, 2.3266545e+2
-0.402, 2.4328515e-6, -2.1588060e-6, 2.3299878e+2
-0.401, 2.4317169e-6, -2.1586902e-6, 2.3333211e+2
-0.400, 2.4306307e-6, -2.1586782e-6, 2.3366544e+2
-0.399, 2.4296480e-6, -2.1588619e-6, 2.3399876e+2
-0.398, 2.4286217e-6, -2.1589337e-6, 2.3433209e+2
-0.397, 2.4276471e-6, -2.1588819e-6, 2.3466542e+2
-0.396, 2.4259737e-6, -2.1591454e-6, 2.3499875e+2
-0.395, 2.4245596e-6, -2.1596247e-6, 2.3533208e+2
-0.394, 2.4221392e-6, -2.1594690e-6, 2.3566541e+2
-0.393, 2.4194273e-6, -2.1597125e-6, 2.3599873e+2
-0.392, 2.4161682e-6, -2.1601879e-6, 2.3633206e+2
-0.391, 2.4134163e-6, -2.1601359e-6, 2.3666539e+2
-0.390, 2.4111198e-6, -2.1605115e-6, 2.3699872e+2
-0.389, 2.4087472e-6, -2.1603835e-6, 2.3733205e+2
-0.388, 2.4074850e-6, -2.1603278e-6, 2.3766537e+2
-0.387, 2.4062349e-6, -2.1602798e-6, 2.3799870e+2
-0.386, 2.4050369e-6, -2.1602718e-6, 2.3833203e+2
-0.385, 2.4039184e-6, -2.1599203e-6, 2.3866536e+2
-0.384, 2.4026683e-6, -2.1596127e-6, 2.3899869e+2
-0.383, 2.4017975e-6, -2.1592773e-6, 2.3933202e+2
-0.382, 2.4013023e-6, -2.1580629e-6, 2.3966534e+2
-0.381, 2.4007950e-6, -2.1573601e-6, 2.3999867e+2
-0.380, 2.4007550e-6, -2.1564015e-6, 2.4033200e+2
-0.379, 2.4004596e-6, -2.1550477e-6, 2.4066533e+2
-0.378, 2.4005994e-6, -2.1532621e-6, 2.4099866e+2
-0.377, 2.4010228e-6, -2.1510175e-6, 2.4133199e+2
-0.376, 2.4016738e-6, -2.1480819e-6, 2.4166531e+2
-0.375, 2.4022249e-6, -2.1457495e-6, 2.4199864e+2
-0.374, 2.4027681e-6, -2.1438882e-6, 2.4233197e+2
-0.373, 2.4034232e-6, -2.1427697e-6, 2.4266530e+2
-0.372, 2.4035230e-6, -2.1413598e-6, 2.4299863e+2
-0.371, 2.4031635e-6, -2.1405649e-6, 2.4333195e+2
-0.370, 2.4032713e-6, -2.1399101e-6, 2.4366528e+2
-0.369, 2.4028520e-6, -2.1396065e-6, 2.4399861e+2
-0.368, 2.4024566e-6, -2.1392630e-6, 2.4433194e+2
-0.367, 2.4021251e-6, -2.1387318e-6, 2.4466527e+2
-0.366, 2.4012104e-6, -2.1387477e-6, 2.4499860e+2
-0.365, 2.4005874e-6, -2.1389276e-6, 2.4533192e+2
-0.364, 2.3995569e-6, -2.1394708e-6, 2.4566525e+2
-0.363, 2.3989219e-6, -2.1405172e-6, 2.4599858e+2
-0.362, 2.3979032e-6, -2.1400976e-6, 2.4633191e+2
-0.361, 2.3969246e-6, -2.1391952e-6, 2.4666524e+2
-0.360, 2.3969446e-6, -2.1384362e-6, 2.4699857e+2
-0.359, 2.3969847e-6, -2.1377891e-6, 2.4733189e+2
-0.358, 2.3974521e-6, -2.1366509e-6, 2.4766522e+2
-0.357, 2.3983787e-6, -2.1358042e-6, 2.4799855e+2
-0.356, 2.3985665e-6, -2.1350172e-6, 2.4833188e+2
-0.355, 2.3993850e-6, -2.1343903e-6, 2.4866521e+2
-0.354, 2.3991613e-6, -2.1337232e-6, 2.4899854e+2
-0.353, 2.3990337e-6, -2.1331641e-6, 2.4933186e+2
-0.352, 2.3994012e-6, -2.1323533e-6, 2.4966519e+2
-0.351, 2.3985465e-6, -2.1317862e-6, 2.4999852e+2
-0.350, 2.3976277e-6, -2.1314904e-6, 2.5033185e+2
-0.349, 2.3959542e-6, -2.1314827e-6, 2.5066518e+2
-0.348, 2.3937614e-6, -2.1315545e-6, 2.5099850e+2
-0.347, 2.3913251e-6, -2.1307876e-6, 2.5133183e+2
-0.346, 2.3895559e-6, -2.1297012e-6, 2.5166516e+2
-0.345, 2.3887089e-6, -2.1294536e-6, 2.5199849e+2
-0.344, 2.3883138e-6, -2.1283672e-6, 2.5233182e+2
-0.343, 2.3885093e-6, -2.1248843e-6, 2.5266515e+2
-0.342, 2.3881857e-6, -2.1221724e-6, 2.5299847e+2
-0.341, 2.3888329e-6, -2.1191770e-6, 2.5333180e+2
-0.340, 2.3887569e-6, -2.1166247e-6, 2.5366513e+2
-0.339, 2.3890686e-6, -2.1147473e-6, 2.5399846e+2
-0.338, 2.3869916e-6, -2.1133415e-6, 2.5433179e+2
-0.337, 2.3852260e-6, -2.1124429e-6, 2.5466512e+2
-0.336, 2.3834330e-6, -2.1121073e-6, 2.5499844e+2
-0.335, 2.3812840e-6, -2.1118037e-6, 2.5533177e+2
-0.334, 2.3789755e-6, -2.1117680e-6, 2.5566510e+2
-0.333, 2.3761756e-6, -2.1116559e-6, 2.5599843e+2
-0.332, 2.3721896e-6, -2.1114283e-6, 2.5633176e+2
-0.331, 2.3670691e-6, -2.1112407e-6, 2.5666510e+2
-0.330, 2.3618929e-6, -2.1111130e-6, 2.5699844e+2
-0.329, 2.3586776e-6, -2.1108094e-6, 2.5733179e+2
-0.328, 2.3565169e-6, -2.1106334e-6, 2.5766513e+2
-0.327, 2.3544640e-6, -2.1101503e-6, 2.5799847e+2
-0.326, 2.3514804e-6, -2.1097469e-6, 2.5833182e+2
-0.325, 2.3474622e-6, -2.1091278e-6, 2.5866516e+2
-0.324, 2.3420544e-6, -2.1083249e-6, 2.5899850e+2
-0.323, 2.3380883e-6, -2.1069150e-6, 2.5933185e+2
-0.322, 2.3345654e-6, -2.1047663e-6, 2.5966519e+2
-0.321, 2.3320852e-6, -2.1023818e-6, 2.5999854e+2
-0.320, 2.3298526e-6, -2.0996458e-6, 2.6033188e+2
-0.319, 2.3270845e-6, -2.0967022e-6, 2.6066522e+2
-0.318, 2.3225155e-6, -2.0948250e-6, 2.6099857e+2
-0.317, 2.3166999e-6, -2.0920133e-6, 2.6133191e+2
-0.316, 2.3119630e-6, -2.0898603e-6, 2.6166525e+2
-0.315, 2.3087957e-6, -2.0879593e-6, 2.6199860e+2
-0.314, 2.3065234e-6, -2.0857467e-6, 2.6233194e+2
-0.313, 2.3037474e-6, -2.0838893e-6, 2.6266528e+2
-0.312, 2.2996176e-6, -2.0801510e-6, 2.6299863e+2
-0.311, 2.2929714e-6, -2.0745672e-6, 2.6333197e+2
-0.310, 2.2876873e-6, -2.0694827e-6, 2.6366531e+2
-0.309, 2.2834256e-6, -2.0652290e-6, 2.6399866e+2
-0.308, 2.2801864e-6, -2.0616344e-6, 2.6433200e+2
-0.307, 2.2749741e-6, -2.0577681e-6, 2.6466534e+2
-0.306, 2.2669819e-6, -2.0510620e-6, 2.6499869e+2
-0.305, 2.2610147e-6, -2.0436291e-6, 2.6533203e+2
-0.304, 2.2577356e-6, -2.0393716e-6, 2.6566537e+2
-0.303, 2.2522120e-6, -2.0341552e-6, 2.6599872e+2
-0.302, 2.2422787e-6, -2.0263310e-6, 2.6633206e+2
-0.301, 2.2348338e-6, -2.0181230e-6, 2.6666541e+2
-0.300, 2.2288386e-6, -2.0129387e-6, 2.6699875e+2
-0.299, 2.2168724e-6, -2.0076068e-6, 2.6733209e+2
-0.298, 2.2088204e-6, -1.9974618e-6, 2.6766544e+2
-0.297, 2.1995063e-6, -1.9903084e-6, 2.6799878e+2
-0.296, 2.1861063e-6, -1.9839817e-6, 2.6833212e+2
-0.295, 2.1768519e-6, -1.9729503e-6, 2.6866547e+2
-0.294, 2.1630326e-6, -1.9644590e-6, 2.6899881e+2
-0.293, 2.1510064e-6, -1.9542422e-6, 2.6933215e+2
-0.292, 2.1357091e-6, -1.9420881e-6, 2.6966550e+2
-0.291, 2.1205917e-6, -1.9333570e-6, 2.6999884e+2
-0.290, 2.1080025e-6, -1.9191464e-6, 2.7033218e+2
-0.289, 2.0905602e-6, -1.9095246e-6, 2.7066553e+2
-0.288, 2.0784223e-6, -1.8929412e-6, 2.7099887e+2
-0.287, 2.0608763e-6, -1.8781353e-6, 2.7133221e+2
-0.286, 2.0424877e-6, -1.8630058e-6, 2.7166556e+2
-0.285, 2.0264076e-6, -1.8437863e-6, 2.7199890e+2
-0.284, 2.0095806e-6, -1.8245909e-6, 2.7233224e+2
-0.283, 1.9883003e-6, -1.8066015e-6, 2.7266559e+2
-0.282, 1.9664888e-6, -1.7878455e-6, 2.7299893e+2
-0.281, 1.9439183e-6, -1.7666649e-6, 2.7333228e+2
-0.280, 1.9193110e-6, -1.7447136e-6, 2.7366562e+2
-0.279, 1.8958539e-6, -1.7228261e-6, 2.7399896e+2
-0.278, 1.8717056e-6, -1.6997924e-6, 2.7433231e+2
-0.277, 1.8434797e-6, -1.6751131e-6, 2.7466565e+2
-0.276, 1.8166037e-6, -1.6504816e-6, 2.7499899e+2
-0.275, 1.7883056e-6, -1.6250555e-6, 2.7533234e+2
-0.274, 1.7560576e-6, -1.5985270e-6, 2.7566568e+2
-0.273, 1.7244726e-6, -1.5714912e-6, 2.7599902e+2
-0.272, 1.6935705e-6, -1.5438643e-6, 2.7633237e+2
-0.271, 1.6586985e-6, -1.5135532e-6, 2.7666571e+2
-0.270, 1.6226679e-6, -1.4807900e-6, 2.7699905e+2
-0.269, 1.5871207e-6, -1.4509943e-6, 2.7733240e+2
-0.268, 1.5487858e-6, -1.4145285e-6, 2.7766574e+2
-0.267, 1.5123200e-6, -1.3787057e-6, 2.7799908e+2
-0.266, 1.4743325e-6, -1.3461621e-6, 2.7833243e+2
-0.265, 1.4335171e-6, -1.3113819e-6, 2.7866577e+2
-0.264, 1.3897821e-6, -1.2773645e-6, 2.7899911e+2
-0.263, 1.3450966e-6, -1.2414458e-6, 2.7933246e+2
-0.262, 1.3037941e-6, -1.2060544e-6, 2.7966580e+2
-0.261, 1.2613891e-6, -1.1699522e-6, 2.7999915e+2
-0.260, 1.2193996e-6, -1.1337819e-6, 2.8033249e+2
-0.259, 1.1786881e-6, -1.0974120e-6, 2.8066583e+2
-0.258, 1.1355282e-6, -1.0592967e-6, 2.8099918e+2
-0.257, 1.0959071e-6, -1.0214450e-6, 2.8133252e+2
-0.256, 1.0548802e-6, -9.8470753e-7, 2.8166586e+2
-0.255, 1.0119479e-6, -9.4713141e-7, 2.8199921e+2
-0.254, 9.7239479e-7, -9.1127669e-7, 2.8233255e+2
-0.253, 9.3201083e-7, -8.7422779e-7, 2.8266589e+2
-0.252, 8.9089195e-7, -8.3897226e-7, 2.8299924e+2
-0.251, 8.5113913e-7, -8.0431573e-7, 2.8333258e+2
-0.250, 8.1274015e-7, -7.6900420e-7, 2.8366592e+2
-0.249, 7.7450505e-7, -7.3704780e-7, 2.8399927e+2
-0.248, 7.3799930e-7, -7.0243925e-7, 2.8433261e+2
-0.247, 7.0056296e-7, -6.6991157e-7, 2.8466595e+2
-0.246, 6.6579065e-7, -6.3996413e-7, 2.8499930e+2
-0.245, 6.3208876e-7, -6.0809947e-7, 2.8533264e+2
-0.244, 5.9860247e-7, -5.7615893e-7, 2.8566599e+2
-0.243, 5.6740885e-7, -5.4744964e-7, 2.8599933e+2
-0.242, 5.3725370e-7, -5.2041781e-7, 2.8633267e+2
-0.241, 5.0916344e-7, -4.9311842e-7, 2.8666602e+2
-0.240, 4.7967131e-7, -4.6729281e-7, 2.8699936e+2
-0.239, 4.5217621e-7, -4.4218615e-7, 2.8733270e+2
-0.238, 4.2643848e-7, -4.1816185e-7, 2.8766605e+2
-0.237, 4.0214655e-7, -3.9480457e-7, 2.8799939e+2
-0.236, 3.7891311e-7, -3.7227406e-7, 2.8833273e+2
-0.235, 3.5553185e-7, -3.5077005e-7, 2.8866608e+2
-0.234, 3.3580523e-7, -3.3134694e-7, 2.8899942e+2
-0.233, 3.1709703e-7, -3.1352144e-7, 2.8933276e+2
-0.232, 2.9679123e-7, -2.9623911e-7, 2.8966611e+2
-0.231, 2.7638555e-7, -2.7785046e-7, 2.8999945e+2
-0.230, 2.5804883e-7, -2.6185424e-7, 2.9033279e+2
-0.229, 2.4358232e-7, -2.4802679e-7, 2.9066614e+2
-0.228, 2.2653967e-7, -2.3163517e-7, 2.9099948e+2
-0.227, 2.1120647e-7, -2.1981275e-7, 2.9133282e+2
-0.226, 1.9923625e-7, -2.0496682e-7, 2.9166617e+2
-0.225, 1.8333191e-7, -1.9464217e-7, 2.9199951e+2
-0.224, 1.7369024e-7, -1.8114224e-7, 2.9233286e+2
-0.223, 1.5866857e-7, -1.7269080e-7, 2.9266620e+2
-0.222, 1.5100795e-7, -1.6000965e-7, 2.9299954e+2
-0.221, 1.4051955e-7, -1.5196163e-7, 2.9333289e+2
-0.220, 1.2999520e-7, -1.4296700e-7, 2.9366623e+2
-0.219, 1.2392822e-7, -1.3259043e-7, 2.9399957e+2
-0.218, 1.1468995e-7, -1.2627982e-7, 2.9433292e+2
-0.217, 1.0638230e-7, -1.1802009e-7, 2.9466626e+2
-0.216, 1.0129387e-7, -1.0868996e-7, 2.9499960e+2
-0.215, 9.4156476e-8, -1.0337786e-7, 2.9533295e+2
-0.214, 8.5153864e-8, -9.8225520e-8, 2.9566629e+2
-0.213, 8.0165286e-8, -9.0265353e-8, 2.9599963e+2
-0.212, 7.6542669e-8, -8.4290242e-8, 2.9633298e+2
-0.211, 7.1354386e-8, -8.0284195e-8, 2.9666632e+2
-0.210, 6.3933413e-8, -7.6745451e-8, 2.9699966e+2
-0.209, 5.9152523e-8, -7.2743404e-8, 2.9733301e+2
-0.208, 5.6368659e-8, -6.7834705e-8, 2.9766635e+2
-0.207, 5.3864380e-8, -6.3133690e-8, 2.9799969e+2
-0.206, 5.1036587e-8, -5.9407231e-8, 2.9833304e+2
-0.205, 4.7981132e-8, -5.6180031e-8, 2.9866638e+2
-0.204, 4.3875239e-8, -5.4019242e-8, 2.9899973e+2
-0.203, 3.9717424e-8, -5.1986266e-8, 2.9933307e+2
-0.202, 3.6414331e-8, -4.9533913e-8, 2.9966641e+2
-0.201, 3.3402809e-8, -4.6166917e-8, 2.9999976e+2
-0.200, 3.1433736e-8, -4.2755989e-8, 3.0033310e+2
-0.199, 2.9744246e-8, -3.9688548e-8, 3.0066644e+2
-0.198, 2.8090707e-8, -3.7443886e-8, 3.0099979e+2
-0.197, 2.6233469e-8, -3.5630581e-8, 3.0133313e+2
-0.196, 2.4883475e-8, -3.4172750e-8, 3.0166647e+2
-0.195, 2.2175501e-8, -3.3345977e-8, 3.0199982e+2
-0.194, 2.0310274e-8, -3.2135777e-8, 3.0233316e+2
-0.193, 1.8536911e-8, -3.1129275e-8, 3.0266650e+2
-0.192, 1.5617253e-8, -3.0050877e-8, 3.0299985e+2
-0.191, 1.3720074e-8, -2.9140233e-8, 3.0333319e+2
-0.190, 1.2238274e-8, -2.8273520e-8, 3.0366653e+2
-0.189, 1.1227775e-8, -2.7278999e-8, 3.0399988e+2
-0.188, 9.9856239e-9, -2.6276490e-8, 3.0433322e+2
-0.187, 9.4903605e-9, -2.5361850e-8, 3.0466656e+2
-0.186, 8.4758689e-9, -2.4183601e-8, 3.0499991e+2
-0.185, 7.9167002e-9, -2.3272955e-8, 3.0533325e+2
-0.184, 7.0739534e-9, -2.2593964e-8, 3.0566660e+2
-0.183, 6.8782433e-9, -2.1543526e-8, 3.0599994e+2
-0.182, 6.4229218e-9, -2.0433177e-8, 3.0633328e+2
-0.181, 5.8357927e-9, -1.9606407e-8, 3.0666663e+2
-0.180, 5.3205595e-9, -1.8967356e-8, 3.0699997e+2
-0.179, 5.1528097e-9, -1.7884966e-8, 3.0733331e+2
-0.178, 4.5576947e-9, -1.7449613e-8, 3.0766666e+2
-0.177, 4.1982275e-9, -1.6630830e-8, 3.0800000e+2
-0.176, 3.8507442e-9, -1.6451096e-8, 3.0833334e+2
-0.175, 3.5951240e-9, -1.5572404e-8, 3.0866669e+2
-0.174, 3.1917238e-9, -1.4861461e-8, 3.0900003e+2
-0.173, 2.7284142e-9, -1.4362203e-8, 3.0933337e+2
-0.172, 2.2890674e-9, -1.4094600e-8, 3.0966672e+2
-0.171, 1.9256072e-9, -1.3707178e-8, 3.1000006e+2
-0.170, 1.7219106e-9, -1.3355700e-8, 3.1033340e+2
-0.169, 1.2945454e-9, -1.3056145e-8, 3.1066675e+2
-0.168, 1.2785685e-9, -1.2672714e-8, 3.1100009e+2
-0.167, 7.5934220e-10, -1.2349196e-8, 3.1133344e+2
-0.166, 5.3168042e-10, -1.2325231e-8, 3.1166678e+2
-0.165, 1.6422476e-10, -1.1997718e-8, 3.1200012e+2
-0.164, 2.4810201e-10, -1.1702157e-8, 3.1233347e+2
-0.163, 1.4026183e-10, -1.1570354e-8, 3.1266681e+2
-0.162, -1.9923317e-10, -1.1642246e-8, 3.1300015e+2
-0.161, -5.0677684e-10, -1.1047131e-8, 3.1333350e+2
-0.160, -5.1076987e-10, -1.1091067e-8, 3.1366684e+2
-0.159, -1.3255583e-9, -1.0675684e-8, 3.1400018e+2
-0.158, -1.6091368e-9, -1.0727606e-8, 3.1433353e+2
-0.157, -1.4094356e-9, -1.0647725e-8, 3.1466687e+2
-0.156, -1.6850256e-9, -1.0320212e-8, 3.1500021e+2
-0.155, -2.1723006e-9, -1.0124503e-8, 3.1533356e+2
-0.154, -1.7489307e-9, -1.0100539e-8, 3.1566690e+2
-0.153, -1.9606157e-9, -9.8569011e-9, 3.1600024e+2
-0.152, -2.2601685e-9, -9.6651860e-9, 3.1633359e+2
-0.151, -2.6675639e-9, -9.6931450e-9, 3.1666693e+2
-0.150, -2.3720039e-9, -9.4854533e-9, 3.1700027e+2
-0.149, -2.9990705e-9, -9.4734709e-9, 3.1733362e+2
-0.148, -3.2267322e-9, -9.3296846e-9, 3.1766696e+2
-0.147, -3.2706675e-9, -9.2897450e-9, 3.1800031e+2
-0.146, -3.1668226e-9, -9.2937391e-9, 3.1833365e+2
-0.145, -3.0949292e-9, -9.1419636e-9, 3.1866699e+2
-0.144, -3.0190404e-9, -8.9182963e-9, 3.1900034e+2
-0.143, -3.2946328e-9, -9.0940349e-9, 3.1933368e+2
-0.142, -3.8218473e-9, -8.9742134e-9, 3.1966702e+2
-0.141, -3.5262875e-9, -8.7625285e-9, 3.2000037e+2
-0.140, -4.0055741e-9, -8.8384153e-9, 3.2033371e+2
-0.139, -3.6940373e-9, -8.4350154e-9, 3.2066705e+2
-0.138, -3.8018775e-9, -8.5827958e-9, 3.2100040e+2
-0.137, -3.7539492e-9, -8.2952232e-9, 3.2133374e+2
-0.136, -4.5727311e-9, -8.1354603e-9, 3.2166708e+2
-0.135, -3.9416692e-9, -8.2712592e-9, 3.2200043e+2
-0.134, -4.5008375e-9, -8.0356095e-9, 3.2233377e+2
-0.133, -4.4009858e-9, -8.1354603e-9, 3.2266711e+2
-0.132, -4.5887076e-9, -7.8718525e-9, 3.2300046e+2
-0.131, -4.3330877e-9, -7.8598701e-9, 3.2333380e+2
-0.130, -4.8962514e-9, -7.9197813e-9, 3.2366714e+2
-0.129, -5.3036446e-9, -7.6761433e-9, 3.2400049e+2
-0.128, -5.0879665e-9, -7.6921198e-9, 3.2433383e+2
-0.127, -5.0360427e-9, -7.4205238e-9, 3.2466718e+2
-0.126, -5.1518714e-9, -7.4205238e-9, 3.2500052e+2
-0.125, -5.1558646e-9, -7.4564701e-9, 3.2533386e+2
-0.124, -4.8842677e-9, -7.4964106e-9, 3.2566721e+2
-0.123, -5.2756861e-9, -7.4205238e-9, 3.2600055e+2
-0.122, -5.7549725e-9, -7.3166779e-9, 3.2633389e+2
-0.121, -6.2063030e-9, -7.1049926e-9, 3.2666724e+2
-0.120, -6.0505347e-9, -7.0530697e-9, 3.2700058e+2
-0.119, -6.3141434e-9, -7.0370936e-9, 3.2733392e+2
-0.118, -6.2941710e-9, -6.8533668e-9, 3.2766727e+2
-0.117, -6.8173951e-9, -6.9612063e-9, 3.2800061e+2
-0.116, -6.0824861e-9, -6.8693433e-9, 3.2833395e+2
-0.115, -6.6935781e-9, -6.9052892e-9, 3.2866730e+2
-0.114, -6.7015664e-9, -6.8294024e-9, 3.2900064e+2
-0.113, -6.8693162e-9, -6.6736341e-9, 3.2933398e+2
-0.112, -7.1968298e-9, -6.6776282e-9, 3.2966733e+2
-0.111, -7.3246400e-9, -6.5378361e-9, 3.3000067e+2
-0.110, -7.3925381e-9, -6.4379844e-9, 3.3033401e+2
-0.109, -7.4883966e-9, -6.5218599e-9, 3.3066736e+2
-0.108, -6.8613280e-9, -6.4379844e-9, 3.3100070e+2
-0.107, -7.9117664e-9, -6.4020376e-9, 3.3133405e+2
-0.106, -8.2512619e-9, -6.2023346e-9, 3.3166739e+2
-0.105, -7.6042257e-9, -6.3141683e-9, 3.3200073e+2
-0.104, -7.5083664e-9, -6.1943468e-9, 3.3233408e+2
-0.103, -7.9916482e-9, -6.1823640e-9, 3.3266742e+2
-0.102, -8.3071781e-9, -6.1544059e-9, 3.3300076e+2
-0.101, -8.3630969e-9, -6.2382814e-9, 3.3333411e+2
-0.100, -8.5428287e-9, -5.9906498e-9, 3.3366745e+2
-0.099, -8.2872083e-9, -6.0106196e-9, 3.3400079e+2
-0.098, -8.5548102e-9, -5.9666849e-9, 3.3433414e+2
-0.097, -9.3656052e-9, -5.9826610e-9, 3.3466748e+2
-0.096, -8.6426803e-9, -5.8109166e-9, 3.3500082e+2
-0.095, -9.3296588e-9, -5.7869527e-9, 3.3533417e+2
-0.094, -8.8623535e-9, -5.7310352e-9, 3.3566751e+2
-0.093, -8.9302530e-9, -5.7390239e-9, 3.3600085e+2
-0.092, -9.1099857e-9, -5.7030771e-9, 3.3633420e+2
-0.091, -9.3256647e-9, -5.6231957e-9, 3.3666754e+2
-0.090, -8.8543652e-9, -5.6311835e-9, 3.3700089e+2
-0.089, -9.4454871e-9, -5.5273381e-9, 3.3733423e+2
-0.088, -9.2617594e-9, -5.4993801e-9, 3.3766757e+2
-0.087, -9.4494812e-9, -5.4354747e-9, 3.3800092e+2
-0.086, -9.4614627e-9, -5.4274865e-9, 3.3833426e+2
-0.085, -9.3216714e-9, -5.4674274e-9, 3.3866760e+2
-0.084, -9.6092432e-9, -5.2916884e-9, 3.3900095e+2
-0.083, -9.6292139e-9, -5.3396172e-9, 3.3933429e+2
-0.082, -9.7330588e-9, -5.2477542e-9, 3.3966763e+2
-0.081, -9.7170831e-9, -5.2996771e-9, 3.4000098e+2
-0.080, -9.7809885e-9, -5.2197957e-9, 3.4033432e+2
-0.079, -9.2018491e-9, -5.2158016e-9, 3.4066766e+2
-0.078, -9.3935641e-9, -5.2597362e-9, 3.4100101e+2
-0.077, -9.9966675e-9, -5.1199440e-9, 3.4133435e+2
-0.076, -9.9167865e-9, -5.1279319e-9, 3.4166769e+2
-0.075, -9.7370529e-9, -5.0400626e-9, 3.4200104e+2
-0.074, -9.7290656e-9, -5.0200923e-9, 3.4233438e+2
-0.073, -9.9487387e-9, -4.9841460e-9, 3.4266772e+2
-0.072, -1.0308204e-8, -5.0200923e-9, 3.4300107e+2
-0.071, -9.8169348e-9, -4.9282289e-9, 3.4333441e+2
-0.070, -9.8728510e-9, -4.9681699e-9, 3.4366776e+2
-0.069, -1.0188383e-8, -4.8563358e-9, 3.4400110e+2
-0.068, -9.7650110e-9, -4.8363655e-9, 3.4433444e+2
-0.067, -9.7969641e-9, -4.8962763e-9, 3.4466779e+2
-0.066, -9.5932675e-9, -4.7964250e-9, 3.4500113e+2
-0.065, -9.5173798e-9, -4.8363655e-9, 3.4533447e+2
-0.064, -9.2817309e-9, -4.9322231e-9, 3.4566782e+2
-0.063, -9.4454871e-9, -4.7884368e-9, 3.4600116e+2
-0.062, -9.9048041e-9, -4.7484963e-9, 3.4633450e+2
-0.061, -9.9846842e-9, -4.6286743e-9, 3.4666785e+2
-0.060, -9.7729993e-9, -4.5687636e-9, 3.4700119e+2
-0.059, -9.5133856e-9, -4.7085553e-9, 3.4733453e+2
-0.058, -9.2577661e-9, -4.6965734e-9, 3.4766788e+2
-0.057, -9.9367563e-9, -4.5088524e-9, 3.4800122e+2
-0.056, -9.6372021e-9, -4.7405080e-9, 3.4833456e+2
-0.055, -9.3056949e-9, -4.7764548e-9, 3.4866791e+2
-0.054, -9.5133856e-9, -4.5527870e-9, 3.4900125e+2
-0.053, -9.8049524e-9, -4.4689119e-9, 3.4933459e+2
-0.052, -9.7969641e-9, -4.5607753e-9, 3.4966794e+2
-0.051, -9.7170831e-9, -4.6047099e-9, 3.5000128e+2
-0.050, -9.6851309e-9, -4.5967217e-9, 3.5033463e+2
-0.049, -9.3017007e-9, -4.5128465e-9, 3.5066797e+2
-0.048, -8.9901633e-9, -4.5607753e-9, 3.5100131e+2
-0.047, -9.6092432e-9, -4.5807456e-9, 3.5133466e+2
-0.046, -9.4454871e-9, -4.4529358e-9, 3.5166800e+2
-0.045, -9.2737418e-9, -4.5288227e-9, 3.5200134e+2
-0.044, -9.4414929e-9, -4.3450958e-9, 3.5233469e+2
-0.043, -9.1858734e-9, -4.4329651e-9, 3.5266803e+2
-0.042, -8.8863175e-9, -4.4409534e-9, 3.5300137e+2
-0.041, -8.8863175e-9, -4.3850363e-9, 3.5333472e+2
-0.040, -9.2737418e-9, -4.3490900e-9, 3.5366806e+2
-0.039, -9.3017007e-9, -4.2053037e-9, 3.5400140e+2
-0.038, -9.1059915e-9, -4.2891788e-9, 3.5433475e+2
-0.037, -8.3870599e-9, -4.2692090e-9, 3.5466809e+2
-0.036, -8.7265555e-9, -4.3530841e-9, 3.5500143e+2
-0.035, -8.4869116e-9, -4.2652148e-9, 3.5533478e+2
-0.034, -9.2417896e-9, -4.3331139e-9, 3.5566812e+2
-0.033, -9.0500745e-9, -4.1533812e-9, 3.5600146e+2
-0.032, -9.2018491e-9, -4.1413988e-9, 3.5633481e+2
-0.031, -9.0660510e-9, -4.1973158e-9, 3.5666815e+2
-0.030, -8.6267038e-9, -4.1014583e-9, 3.5700150e+2
-0.029, -8.6866150e-9, -3.9976129e-9, 3.5733484e+2
-0.028, -8.7345438e-9, -4.0295651e-9, 3.5766818e+2
-0.027, -8.9582111e-9, -4.0455412e-9, 3.5800153e+2
-0.026, -8.7025906e-9, -4.1573749e-9, 3.5833487e+2
-0.025, -8.3311438e-9, -3.9097432e-9, 3.5866821e+2
-0.024, -8.7545144e-9, -3.9936183e-9, 3.5900156e+2
-0.023, -9.0261105e-9, -4.1014583e-9, 3.5933490e+2
-0.022, -8.6706384e-9, -3.8977608e-9, 3.5966824e+2
-0.021, -8.4709351e-9, -3.9656602e-9, 3.6000159e+2
-0.020, -8.1194589e-9, -3.8937671e-9, 3.6033493e+2
-0.019, -8.2312921e-9, -3.9856305e-9, 3.6066827e+2
-0.018, -8.4948999e-9, -3.9337076e-9, 3.6100162e+2
-0.017, -8.1554052e-9, -3.9377017e-9, 3.6133496e+2
-0.016, -7.7200513e-9, -3.9736485e-9, 3.6166830e+2
-0.015, -8.3551086e-9, -3.9496841e-9, 3.6200165e+2
-0.014, -8.0635418e-9, -3.9456896e-9, 3.6233499e+2
-0.013, -8.0235996e-9, -4.0295651e-9, 3.6266833e+2
-0.012, -8.8503720e-9, -3.9097432e-9, 3.6300168e+2
-0.011, -8.2991924e-9, -3.8658086e-9, 3.6333502e+2
-0.010, -8.0914999e-9, -3.6820818e-9, 3.6366837e+2
-0.009, -8.0036298e-9, -3.7220225e-9, 3.6400171e+2
-0.008, -8.3231555e-9, -3.7260164e-9, 3.6433505e+2
-0.007, -7.9117664e-9, -3.7340047e-9, 3.6466840e+2
-0.006, -8.0196072e-9, -3.7819334e-9, 3.6500174e+2
-0.005, -8.1474170e-9, -3.6661054e-9, 3.6533508e+2
-0.004, -8.1753750e-9, -3.7539745e-9, 3.6566843e+2
-0.003, -8.0156140e-9, -3.7539745e-9, 3.6600177e+2
-0.002, -8.3031848e-9, -3.8857788e-9, 3.6633511e+2
-0.001, -8.1673868e-9, -3.6780876e-9, 3.6666846e+2
-0.000, -7.9397253e-9, -3.9656602e-9, 3.6700180e+2
0.001, -7.7919449e-9, -3.7260164e-9, 3.6733514e+2
0.002, -7.9517086e-9, -3.7300105e-9, 3.6766849e+2
0.003, -8.1074774e-9, -3.5862242e-9, 3.6800183e+2
0.004, -8.5907566e-9, -3.7060461e-9, 3.6833517e+2
0.005, -8.1114706e-9, -3.7539745e-9, 3.6866852e+2
0.006, -7.8838083e-9, -3.7340047e-9, 3.6900186e+2
0.007, -8.2033331e-9, -3.5942125e-9, 3.6933521e+2
0.008, -7.9517086e-9, -3.6700996e-9, 3.6966855e+2
0.009, -7.9796667e-9, -3.7140342e-9, 3.7000189e+2
0.010, -8.0914999e-9, -3.6061945e-9, 3.7033524e+2
0.011, -8.4150189e-9, -3.5382954e-9, 3.7066858e+2
0.012, -8.6626510e-9, -3.6061945e-9, 3.7100192e+2
0.013, -8.0275955e-9, -3.5902181e-9, 3.7133527e+2
0.014, -8.2153147e-9, -3.5103369e-9, 3.7166861e+2
0.015, -8.6107290e-9, -3.6700996e-9, 3.7200195e+2
0.016, -8.2392804e-9, -3.4783847e-9, 3.7233530e+2
0.017, -8.5827709e-9, -3.5143310e-9, 3.7266864e+2
0.018, -8.5428287e-9, -3.5622598e-9, 3.7300198e+2
0.019, -8.3151663e-9, -3.4544203e-9, 3.7333533e+2
0.020, -8.2272988e-9, -3.5862242e-9, 3.7366867e+2
0.021, -8.1034814e-9, -3.4224679e-9, 3.7400201e+2
0.022, -8.1554052e-9, -3.5343013e-9, 3.7433536e+2
0.023, -8.4150189e-9, -3.3106340e-9, 3.7466870e+2
0.024, -7.9237479e-9, -3.4823786e-9, 3.7500204e+2
0.025, -8.4030374e-9, -3.3345984e-9, 3.7533539e+2
0.026, -8.4948999e-9, -3.3825271e-9, 3.7566873e+2
0.027, -8.7465262e-9, -3.2786815e-9, 3.7600208e+2
0.028, -8.6027407e-9, -3.2587111e-9, 3.7633542e+2
0.029, -8.0954932e-9, -3.1948062e-9, 3.7666876e+2
0.030, -8.4509653e-9, -3.4024974e-9, 3.7700211e+2
0.031, -8.2392804e-9, -3.2946577e-9, 3.7733545e+2
0.032, -8.5308471e-9, -3.2666991e-9, 3.7766879e+2
0.033, -8.9422354e-9, -3.1748357e-9, 3.7800214e+2
0.034, -8.5548102e-9, -3.1388894e-9, 3.7833548e+2
0.035, -8.5627985e-9, -3.0270555e-9, 3.7866882e+2
0.036, -8.3351370e-9, -3.2627052e-9, 3.7900217e+2
0.037, -8.4909049e-9, -3.3705447e-9, 3.7933551e+2
0.038, -8.5747818e-9, -3.2227645e-9, 3.7966885e+2
0.039, -8.7465262e-9, -3.0230614e-9, 3.8000220e+2
0.040, -8.7585077e-9, -3.1348952e-9, 3.8033554e+2
0.041, -8.4230072e-9, -3.4464323e-9, 3.8066888e+2
0.042, -8.2991924e-9, -3.3066399e-9, 3.8100223e+2
0.043, -8.4789233e-9, -3.1229130e-9, 3.8133557e+2
0.044, -8.8543652e-9, -3.1548657e-9, 3.8166891e+2
0.045, -8.7225622e-9, -3.0869665e-9, 3.8200226e+2
0.046, -9.2977066e-9, -3.1109308e-9, 3.8233560e+2
0.047, -8.7944541e-9, -3.0709901e-9, 3.8266895e+2
0.048, -8.5627985e-9, -3.0789782e-9, 3.8300229e+2
0.049, -8.6826208e-9, -3.0789782e-9, 3.8333563e+2
0.050, -8.6187146e-9, -3.1388894e-9, 3.8366898e+2
0.051, -8.6067331e-9, -3.2467289e-9, 3.8400232e+2
0.052, -8.7425320e-9, -3.1828240e-9, 3.8433566e+2
0.053, -8.8264072e-9, -2.9591567e-9, 3.8466901e+2
0.054, -8.6187146e-9, -3.1348952e-9, 3.8500235e+2
0.055, -9.0500745e-9, -3.1069369e-9, 3.8533569e+2
0.056, -9.1299563e-9, -3.0909606e-9, 3.8566904e+2
0.057, -9.1459320e-9, -3.0709901e-9, 3.8600238e+2
0.058, -9.5493320e-9, -2.9631506e-9, 3.8633572e+2
0.059, -9.3576169e-9, -2.9591567e-9, 3.8666907e+2
0.060, -9.2377954e-9, -2.6915545e-9, 3.8700241e+2
0.061, -9.4295105e-9, -2.9990970e-9, 3.8733575e+2
0.062, -8.8543652e-9, -3.0550138e-9, 3.8766910e+2
0.063, -9.6292139e-9, -3.0550138e-9, 3.8800244e+2
0.064, -9.2697476e-9, -2.8233584e-9, 3.8833578e+2
0.065, -9.1459320e-9, -2.8113760e-9, 3.8866913e+2
0.066, -9.8968158e-9, -2.8992455e-9, 3.8900247e+2
0.067, -9.7290656e-9, -2.8632992e-9, 3.8933582e+2
0.068, -9.7410471e-9, -2.6675901e-9, 3.8966916e+2
0.069, -1.0168413e-8, -2.7874116e-9, 3.9000250e+2
0.070, -1.0136460e-8, -2.7953999e-9, 3.9033585e+2
0.071, -9.8408988e-9, -2.6316433e-9, 3.9066919e+2
0.072, -1.0491931e-8, -2.8593048e-9, 3.9100253e+2
0.073, -1.0451991e-8, -2.6196614e-9, 3.9133588e+2
0.074, -1.0823438e-8, -2.6036850e-9, 3.9166922e+2
0.075, -1.0619741e-8, -2.5397799e-9, 3.9200256e+2
0.076, -1.0264270e-8, -2.4159641e-9, 3.9233591e+2
0.077, -1.0751545e-8, -2.4878570e-9, 3.9266925e+2
0.078, -1.0591783e-8, -2.4918512e-9, 3.9300259e+2
0.079, -1.1206868e-8, -2.2641897e-9, 3.9333594e+2
0.080, -1.0639711e-8, -2.6036850e-9, 3.9366928e+2
0.081, -1.0963230e-8, -2.3001363e-9, 3.9400262e+2
0.082, -1.0895332e-8, -2.3600473e-9, 3.9433597e+2
0.083, -1.1059087e-8, -2.4519107e-9, 3.9466931e+2
0.084, -1.1035123e-8, -2.3001363e-9, 3.9500266e+2
0.085, -1.0903319e-8, -2.3161126e-9, 3.9533600e+2
0.086, -1.1502428e-8, -2.2202551e-9, 3.9566934e+2
0.087, -1.1414559e-8, -2.1443678e-9, 3.9600269e+2
0.088, -1.1566334e-8, -2.0245461e-9, 3.9633603e+2
0.089, -1.1642221e-8, -2.0285402e-9, 3.9666937e+2
0.090, -1.1590298e-8, -1.9526529e-9, 3.9700272e+2
0.091, -1.1797989e-8, -2.1962907e-9, 3.9733606e+2
0.092, -1.2005680e-8, -1.8488072e-9, 3.9766940e+2
0.093, -1.2133491e-8, -1.7968845e-9, 3.9800275e+2
0.094, -1.2365146e-8, -1.6451102e-9, 3.9833609e+2
0.095, -1.2752571e-8, -2.0325341e-9, 3.9866943e+2
0.096, -1.2345176e-8, -1.7010270e-9, 3.9900278e+2
0.097, -1.2772540e-8, -1.7050211e-9, 3.9933612e+2
0.098, -1.2820468e-8, -1.5372705e-9, 3.9966946e+2
0.099, -1.2429052e-8, -1.6211458e-9, 4.0000281e+2
