Dec. 9, 2005   03:14:50
Square Wave Voltammetry
File: d:\ida_biofilms\11_28_18_blankidapyo\100um_pyo_soak_swvfast.txt
Data Source:  Experiment
Instrument Model:  CHI760B
Header: 
Note: 

Init E (V) = 0.1
Final E (V) = -0.5
Incr E (V) = 0.001
Amplitude (V) = 0.025
Frequency (Hz) = 300
Quiet Time (sec) = 2
Sensitivity (A/V) = 1e-6
Sens 2 (A/V) = 1e-6

Potential/V, i1/A, i2/A

0.099, 3.1055475e-7, 1.6955842e-7
0.098, 4.7089486e-7, 1.5695946e-7
0.097, 4.2627073e-7, 2.0250707e-7
0.096, 4.6657431e-7, 2.1316012e-7
0.095, 4.6509010e-7, 2.5557446e-7
0.094, 4.4043634e-7, 2.1235206e-7
0.093, 4.6838827e-7, 2.0163304e-7
0.092, 4.1497455e-7, 1.9604266e-7
0.091, 4.5291989e-7, 1.6650762e-7
0.090, 4.2295613e-7, 1.9939029e-7
0.089, 4.1426543e-7, 2.0316668e-7
0.088, 4.5458546e-7, 2.5710810e-7
0.087, 3.9457541e-7, 1.7895820e-7
0.086, 4.4526814e-7, 1.9477287e-7
0.085, 3.8581882e-7, 1.5756962e-7
0.084, 4.2285717e-7, 1.6640868e-7
0.083, 4.3202604e-7, 2.0148462e-7
0.082, 3.9617504e-7, 1.7803471e-7
0.081, 4.2086177e-7, 2.6261603e-7
0.080, 3.6482604e-7, 2.1233558e-7
0.079, 4.2556167e-7, 1.9327220e-7
0.078, 3.8497780e-7, 1.8949581e-7
0.077, 4.0539339e-7, 1.4882950e-7
0.076, 4.1903129e-7, 2.1850315e-7
0.075, 3.6240186e-7, 1.6314351e-7
0.074, 4.1416649e-7, 2.0155059e-7
0.073, 3.5339792e-7, 1.7485198e-7
0.072, 4.0288680e-7, 1.8670886e-7
0.071, 3.8547250e-7, 1.5794890e-7
0.070, 3.5362876e-7, 1.2257614e-7
0.069, 3.9883005e-7, 2.0374387e-7
0.068, 3.4020525e-7, 1.7209801e-7
0.067, 3.9724694e-7, 2.2470368e-7
0.066, 3.4610895e-7, 1.8199250e-7
0.065, 3.8171260e-7, 1.6682095e-7
0.064, 3.9507017e-7, 1.5420548e-7
0.063, 3.2917291e-7, 1.2471995e-7
0.062, 3.8567038e-7, 1.5832819e-7
0.061, 3.1616167e-7, 1.9002351e-7
0.060, 3.7877726e-7, 2.3372414e-7
0.059, 3.4495463e-7, 1.5361184e-7
0.058, 3.4947308e-7, 1.4224966e-7
0.057, 3.8105298e-7, 1.6287964e-7
0.056, 3.1764586e-7, 1.4355244e-7
0.055, 3.6482601e-7, 1.7760594e-7
0.054, 3.1851982e-7, 1.9135928e-7
0.053, 3.4253046e-7, 2.1205523e-7
0.052, 3.5003376e-7, 1.8377349e-7
0.051, 3.3431803e-7, 1.5339745e-7
0.050, 3.4978643e-7, 1.2582481e-7
0.049, 3.1400137e-7, 1.4754320e-7
0.048, 3.5798234e-7, 1.6142847e-7
0.047, 3.3116828e-7, 1.9586125e-7
0.046, 3.3654430e-7, 1.8349317e-7
0.045, 3.3134967e-7, 1.7034998e-7
0.044, 2.9688391e-7, 1.5470022e-7
0.043, 3.3923232e-7, 1.1995409e-7
0.042, 2.9759303e-7, 1.7678141e-7
0.041, 3.3613202e-7, 1.6987175e-7
0.040, 3.3121776e-7, 2.0184743e-7
0.039, 3.1904756e-7, 1.6126356e-7
0.038, 3.3849022e-7, 1.3532352e-7
0.037, 2.9861548e-7, 1.5188030e-7
0.036, 3.4477318e-7, 1.3370742e-7
0.035, 3.1372102e-7, 1.7523126e-7
0.034, 3.0359570e-7, 1.8276756e-7
0.033, 3.4107927e-7, 2.2010275e-7
0.032, 2.9615830e-7, 1.8202547e-7
0.031, 3.3964454e-7, 1.4699901e-7
0.030, 2.9742810e-7, 1.3515861e-7
0.029, 3.2844730e-7, 1.4116128e-7
0.028, 3.3344404e-7, 1.8913302e-7
0.027, 3.1113200e-7, 1.4734532e-7
0.026, 3.3619801e-7, 2.1659019e-7
0.025, 2.8136606e-7, 1.7486846e-7
0.024, 3.3853968e-7, 1.5938360e-7
0.023, 3.1899808e-7, 1.4746075e-7
0.022, 3.1853634e-7, 1.1748048e-7
0.021, 3.4233256e-7, 1.9253011e-7
0.020, 3.0379357e-7, 1.3472986e-7
0.019, 3.4203572e-7, 1.8011255e-7
0.018, 2.8313059e-7, 1.8942984e-7
0.017, 3.2684770e-7, 1.5799839e-7
0.016, 3.2569335e-7, 1.6924511e-7
0.015, 2.9417942e-7, 1.0784984e-7
0.014, 3.3979302e-7, 1.8377349e-7
0.013, 2.7638583e-7, 1.4003990e-7
0.012, 3.4302519e-7, 1.8083814e-7
0.011, 2.8256989e-7, 1.7467059e-7
0.010, 3.4286029e-7, 1.5537634e-7
0.009, 3.4983589e-7, 1.8210793e-7
0.008, 2.8510948e-7, 1.1792574e-7
0.007, 3.4899483e-7, 1.5054454e-7
0.006, 2.6799205e-7, 1.6520485e-7
0.005, 3.3289984e-7, 2.1891540e-7
0.004, 3.0811415e-7, 2.2409351e-7
0.003, 3.0275464e-7, 1.3759926e-7
0.002, 3.5799883e-7, 1.7198258e-7
0.001, 2.8477967e-7, 1.0930104e-7
-0.000, 3.4932467e-7, 1.7316992e-7
-0.001, 2.9096373e-7, 1.5156697e-7
-0.002, 3.2851329e-7, 1.9086454e-7
-0.003, 3.3413664e-7, 2.1479269e-7
-0.004, 3.0517879e-7, 1.5092382e-7
-0.005, 3.5189723e-7, 1.6886582e-7
-0.006, 2.8585157e-7, 1.3352603e-7
-0.007, 3.4706542e-7, 1.5529389e-7
-0.008, 3.0545914e-7, 1.8806111e-7
-0.009, 3.2712805e-7, 1.6004324e-7
-0.010, 3.3474680e-7, 2.2833164e-7
-0.011, 2.8819326e-7, 1.4721340e-7
-0.012, 3.4622440e-7, 1.8743447e-7
-0.013, 2.9056793e-7, 1.4681761e-7
-0.014, 3.3995789e-7, 1.6520485e-7
-0.015, 3.3547241e-7, 2.1261592e-7
-0.016, 3.2430813e-7, 1.7920556e-7
-0.017, 3.4549879e-7, 2.1358886e-7
-0.018, 3.0728961e-7, 1.5893835e-7
-0.019, 3.7145531e-7, 1.9112841e-7
-0.020, 3.2999745e-7, 1.4315665e-7
-0.021, 3.3210830e-7, 1.6299509e-7
-0.022, 3.5753709e-7, 2.2255989e-7
-0.023, 3.1876721e-7, 2.0789955e-7
-0.024, 3.6899820e-7, 2.3098667e-7
-0.025, 3.1009304e-7, 1.7173522e-7
-0.026, 3.5038008e-7, 2.0018186e-7
-0.027, 3.5565716e-7, 1.6553467e-7
-0.028, 3.4713139e-7, 1.5793242e-7
-0.029, 3.7699624e-7, 2.2092728e-7
-0.030, 3.2140576e-7, 2.0671223e-7
-0.031, 3.7208196e-7, 2.3044247e-7
-0.032, 3.6342431e-7, 1.6578204e-7
-0.033, 3.6975678e-7, 1.8032694e-7
-0.034, 3.7780427e-7, 1.8411981e-7
-0.035, 3.5257335e-7, 1.4950561e-7
-0.036, 3.9322319e-7, 2.0882305e-7
-0.037, 3.3755026e-7, 2.0199583e-7
-0.038, 3.8130031e-7, 2.5062721e-7
-0.039, 3.8923241e-7, 1.9462445e-7
-0.040, 3.6612880e-7, 1.7889224e-7
-0.041, 3.9863215e-7, 1.8787972e-7
-0.042, 3.5473366e-7, 1.9736194e-7
-0.043, 4.2409397e-7, 2.1320959e-7
-0.044, 3.6795927e-7, 2.3296558e-7
-0.045, 4.2462165e-7, 2.4767536e-7
-0.046, 4.3252078e-7, 2.3321292e-7
-0.047, 3.7505032e-7, 2.0456841e-7
-0.048, 4.3384006e-7, 1.6442979e-7
-0.049, 3.7140586e-7, 1.9785665e-7
-0.050, 4.3238884e-7, 2.5661339e-7
-0.051, 4.1621138e-7, 2.6241813e-7
-0.052, 4.0268890e-7, 2.6050520e-7
-0.053, 4.7503406e-7, 2.3646160e-7
-0.054, 3.9695010e-7, 2.1553480e-7
-0.055, 4.6443046e-7, 1.8840743e-7
-0.056, 4.1538681e-7, 2.1896487e-7
-0.057, 4.5118836e-7, 2.4073273e-7
-0.058, 4.6886646e-7, 2.8497755e-7
-0.059, 4.2501745e-7, 2.7180141e-7
-0.060, 4.8418644e-7, 2.4078221e-7
-0.061, 4.3083870e-7, 2.3990819e-7
-0.062, 4.8311455e-7, 2.0252355e-7
-0.063, 4.6645886e-7, 2.3288311e-7
-0.064, 4.6825630e-7, 2.2422545e-7
-0.065, 5.0130393e-7, 3.0606930e-7
-0.066, 4.4444360e-7, 3.0361215e-7
-0.067, 5.0794972e-7, 2.6955865e-7
-0.068, 4.7686456e-7, 2.6332512e-7
-0.069, 5.1543651e-7, 2.2514894e-7
-0.070, 5.2853022e-7, 2.8675856e-7
-0.071, 5.0595429e-7, 2.6787657e-7
-0.072, 5.2699659e-7, 3.0628368e-7
-0.073, 5.0588835e-7, 3.3459838e-7
-0.074, 5.8130081e-7, 3.0184765e-7
-0.075, 5.4182181e-7, 2.9584498e-7
-0.076, 5.4546626e-7, 2.5133633e-7
-0.077, 5.8636346e-7, 2.7147158e-7
-0.078, 5.2587518e-7, 3.1195651e-7
-0.079, 5.9210225e-7, 3.1810760e-7
-0.080, 5.5263979e-7, 3.3158057e-7
-0.081, 5.9485620e-7, 3.0024805e-7
-0.082, 6.1975732e-7, 3.3252053e-7
-0.083, 5.9243212e-7, 2.5100650e-7
-0.084, 6.3797972e-7, 2.8994128e-7
-0.085, 5.8016292e-7, 3.2528106e-7
-0.086, 6.4254760e-7, 3.5743813e-7
-0.087, 6.3087214e-7, 3.6411691e-7
-0.088, 6.1236943e-7, 3.6706876e-7
-0.089, 6.7348435e-7, 3.7166973e-7
-0.090, 6.2796971e-7, 2.5991153e-7
-0.091, 6.9413090e-7, 3.1047233e-7
-0.092, 6.5316772e-7, 3.4389919e-7
-0.093, 6.7617236e-7, 3.7122447e-7
-0.094, 7.2952014e-7, 4.1096729e-7
-0.095, 6.7668361e-7, 3.2958516e-7
-0.096, 7.2737629e-7, 4.1250092e-7
-0.097, 6.9871533e-7, 3.4068347e-7
-0.098, 7.6291400e-7, 3.4188733e-7
-0.099, 7.2701351e-7, 4.0041317e-7
-0.100, 7.5818116e-7, 3.8944680e-7
-0.101, 8.0224459e-7, 4.6459536e-7
-0.102, 7.4586251e-7, 3.9505366e-7
-0.103, 8.1020960e-7, 3.9609256e-7
-0.104, 7.4950697e-7, 3.6149487e-7
-0.105, 8.1215546e-7, 3.6835507e-7
-0.106, 8.1547017e-7, 4.3196010e-7
-0.107, 7.7693119e-7, 3.9896196e-7
-0.108, 8.5974796e-7, 4.7399513e-7
-0.109, 7.7292390e-7, 4.1113222e-7
-0.110, 8.7157184e-7, 4.3853990e-7
-0.111, 8.2084614e-7, 3.8943031e-7
-0.112, 8.6807586e-7, 3.9335512e-7
-0.113, 9.0661479e-7, 4.8662707e-7
-0.114, 8.2223141e-7, 4.3362564e-7
-0.115, 9.2849814e-7, 4.9546617e-7
-0.116, 8.6274929e-7, 4.8062441e-7
-0.117, 9.1626191e-7, 4.7892587e-7
-0.118, 9.0720857e-7, 4.6174247e-7
-0.119, 8.9945786e-7, 3.9904444e-7
-0.120, 9.5250874e-7, 5.1520567e-7
-0.121, 8.7938849e-7, 4.7401159e-7
-0.122, 9.7130828e-7, 5.1993857e-7
-0.123, 9.3549028e-7, 4.8763303e-7
-0.124, 9.8108728e-7, 4.7196676e-7
-0.125, 9.8765065e-7, 5.0145229e-7
-0.126, 9.5979772e-7, 4.5014946e-7
-0.127, 9.9401609e-7, 5.2064763e-7
-0.128, 9.4846848e-7, 5.0575642e-7
-0.129, 1.0284654e-6, 5.4167339e-7
-0.130, 1.0089072e-6, 5.6245182e-7
-0.131, 1.0063018e-6, 4.8873790e-7
-0.132, 1.0504476e-6, 5.2379738e-7
-0.133, 9.8194482e-7, 4.6865213e-7
-0.134, 1.0599628e-6, 5.3718787e-7
-0.135, 1.0122385e-6, 5.2472086e-7
-0.136, 1.0571264e-6, 5.6983970e-7
-0.137, 1.0875849e-6, 5.8934830e-7
-0.138, 1.0632115e-6, 5.1133031e-7
-0.139, 1.1073408e-6, 5.2267598e-7
-0.140, 1.0544219e-6, 4.9319044e-7
-0.141, 1.1183073e-6, 5.7318732e-7
-0.142, 1.0812689e-6, 5.4650519e-7
-0.143, 1.0759424e-6, 6.2552908e-7
-0.144, 1.1545872e-6, 6.4513665e-7
-0.145, 1.0826707e-6, 5.3865557e-7
-0.146, 1.1494089e-6, 5.6345777e-7
-0.147, 1.0974629e-6, 5.0130393e-7
-0.148, 1.1468198e-6, 6.0475071e-7
-0.149, 1.1783998e-6, 6.0621841e-7
-0.150, 1.1525257e-6, 5.9330608e-7
-0.151, 1.1825060e-6, 6.3288405e-7
-0.152, 1.1596167e-6, 5.9261345e-7
-0.153, 1.2187528e-6, 5.8924934e-7
-0.154, 1.2028391e-6, 5.6195711e-7
-0.155, 1.2001017e-6, 6.1017619e-7
-0.156, 1.2341552e-6, 6.5318420e-7
-0.157, 1.1907514e-6, 6.3009713e-7
-0.158, 1.2562034e-6, 6.4617564e-7
-0.159, 1.2058405e-6, 6.1296316e-7
-0.160, 1.2477271e-6, 5.9930875e-7
-0.161, 1.2834957e-6, 5.9658777e-7
-0.162, 1.2277568e-6, 6.1817423e-7
-0.163, 1.3039772e-6, 6.5864265e-7
-0.164, 1.2341058e-6, 7.0158467e-7
-0.165, 1.3089245e-6, 6.5752130e-7
-0.166, 1.2906528e-6, 6.6268291e-7
-0.167, 1.3294555e-6, 6.2993217e-7
-0.168, 1.3850295e-6, 6.4701663e-7
-0.169, 1.2846665e-6, 6.6824032e-7
-0.170, 1.3858046e-6, 7.0508077e-7
-0.171, 1.3196766e-6, 7.3723777e-7
-0.172, 1.3856561e-6, 7.5597137e-7
-0.173, 1.4052637e-6, 7.2364935e-7
-0.174, 1.3755473e-6, 6.2506740e-7
-0.175, 1.4748548e-6, 6.9114600e-7
-0.176, 1.3940664e-6, 7.4177279e-7
-0.177, 1.4740799e-6, 7.6703674e-7
-0.178, 1.4551649e-6, 8.1278216e-7
-0.179, 1.4765370e-6, 7.5923651e-7
-0.180, 1.5411315e-6, 8.2152229e-7
-0.181, 1.5012072e-6, 7.1515660e-7
-0.182, 1.5704356e-6, 7.6736649e-7
-0.183, 1.5287633e-6, 8.2571097e-7
-0.184, 1.6009766e-6, 8.4300979e-7
-0.185, 1.6283018e-6, 9.0203042e-7
-0.186, 1.6126851e-6, 7.9409807e-7
-0.187, 1.6928138e-6, 8.9601127e-7
-0.188, 1.6331336e-6, 8.0423990e-7
-0.189, 1.7336615e-6, 8.6057253e-7
-0.190, 1.7142024e-6, 9.0048025e-7
-0.191, 1.7538463e-6, 9.3774946e-7
-0.192, 1.8537970e-6, 1.0630796e-6
-0.193, 1.8161979e-6, 9.2188532e-7
-0.194, 1.9154397e-6, 9.7335317e-7
-0.195, 1.8789290e-6, 9.4418090e-7
-0.196, 1.9978938e-6, 1.0331983e-6
-0.197, 2.0048199e-6, 1.0624859e-6
-0.198, 1.9824254e-6, 1.0814339e-6
-0.199, 2.1256481e-6, 1.2056755e-6
-0.200, 2.0747243e-6, 1.0914767e-6
-0.201, 2.2189365e-6, 1.1489967e-6
-0.202, 2.1814858e-6, 1.0897782e-6
-0.203, 2.2797381e-6, 1.2045211e-6
-0.204, 2.3963610e-6, 1.2886737e-6
-0.205, 2.3714269e-6, 1.2401414e-6
-0.206, 2.4880169e-6, 1.4096338e-6
-0.207, 2.4803651e-6, 1.3290927e-6
-0.208, 2.6128027e-6, 1.4064016e-6
-0.209, 2.6798543e-6, 1.3520314e-6
-0.210, 2.6900125e-6, 1.4422196e-6
-0.211, 2.8496106e-6, 1.6004817e-6
-0.212, 2.8341917e-6, 1.5480575e-6
-0.213, 2.9887435e-6, 1.6601950e-6
-0.214, 3.0077081e-6, 1.6306601e-6
-0.215, 3.1240343e-6, 1.7201062e-6
-0.216, 3.3249908e-6, 1.7393345e-6
-0.217, 3.2718413e-6, 1.7853438e-6
-0.218, 3.4467096e-6, 1.9644010e-6
-0.219, 3.4690713e-6, 1.9838435e-6
-0.220, 3.6751403e-6, 2.0996913e-6
-0.221, 3.7767568e-6, 2.1289627e-6
-0.222, 3.8778289e-6, 2.1606083e-6
-0.223, 4.1012954e-6, 2.2810736e-6
-0.224, 4.0242012e-6, 2.3411333e-6
-0.225, 4.2852339e-6, 2.4436072e-6
-0.226, 4.3249106e-6, 2.6173213e-6
-0.227, 4.5027809e-6, 2.7255010e-6
-0.228, 4.7357794e-6, 2.8148315e-6
-0.229, 4.7349049e-6, 2.7314047e-6
-0.230, 5.0622311e-6, 2.9127868e-6
-0.231, 5.0694048e-6, 3.0284039e-6
-0.232, 5.2984783e-6, 3.2346379e-6
-0.233, 5.4866714e-6, 3.3981441e-6
-0.234, 5.5935648e-6, 3.4706707e-6
-0.235, 5.8855012e-6, 3.6816705e-6
-0.236, 5.9004424e-6, 3.5854137e-6
-0.237, 6.2075010e-6, 3.7868490e-6
-0.238, 6.2955451e-6, 3.9874758e-6
-0.239, 6.4956284e-6, 4.1697658e-6
-0.240, 6.7934025e-6, 4.4230146e-6
-0.241, 6.8362624e-6, 4.3277305e-6
-0.242, 7.1598120e-6, 4.6447503e-6
-0.243, 7.2199045e-6, 4.6338660e-6
-0.244, 7.5320750e-6, 4.8947668e-6
-0.245, 7.7314817e-6, 5.0705094e-6
-0.246, 7.8573885e-6, 5.2040687e-6
-0.247, 8.2140032e-6, 5.6153331e-6
-0.248, 8.2385413e-6, 5.5034589e-6
-0.249, 8.5801648e-6, 5.7409102e-6
-0.250, 8.7047520e-6, 5.7877278e-6
-0.251, 8.9605419e-6, 6.0729521e-6
-0.252, 9.2013897e-6, 6.3211060e-6
-0.253, 9.2324753e-6, 6.3442594e-6
-0.254, 9.5973337e-6, 6.7440624e-6
-0.255, 9.6262092e-6, 6.7098931e-6
-0.256, 9.9318822e-6, 6.8535942e-6
-0.257, 1.0103321e-5, 6.9224598e-6
-0.258, 1.0234341e-5, 7.1628128e-6
-0.259, 1.0543872e-5, 7.4848617e-6
-0.260, 1.0544747e-5, 7.4627642e-6
-0.261, 1.0804262e-5, 7.7314817e-6
-0.262, 1.0913399e-5, 7.7632267e-6
-0.263, 1.1100355e-5, 7.8093681e-6
-0.264, 1.1321942e-5, 7.9286956e-6
-0.265, 1.1244072e-5, 8.0959453e-6
-0.266, 1.1542490e-5, 8.4303792e-6
-0.267, 1.1550850e-5, 8.3913283e-6
-0.268, 1.1694436e-5, 8.4801477e-6
-0.269, 1.1832497e-5, 8.5653392e-6
-0.270, 1.1862907e-5, 8.5169722e-6
-0.271, 1.2134031e-5, 8.7768667e-6
-0.272, 1.1964506e-5, 8.6951713e-6
-0.273, 1.2104529e-5, 9.0012900e-6
-0.274, 1.2138864e-5, 8.9874375e-6
-0.275, 1.2164688e-5, 8.9507294e-6
-0.276, 1.2297060e-5, 9.0588592e-6
-0.277, 1.2181476e-5, 8.8344859e-6
-0.278, 1.2373082e-5, 9.1346847e-6
-0.279, 1.2118366e-5, 9.0018675e-6
-0.280, 1.2190974e-5, 9.0455842e-6
-0.281, 1.2131492e-5, 9.1374714e-6
-0.282, 1.2087263e-5, 9.0221838e-6
-0.283, 1.2138104e-5, 9.0249541e-6
-0.284, 1.1922404e-5, 8.7783010e-6
-0.285, 1.1958175e-5, 8.8998549e-6
-0.286, 1.1760729e-5, 8.8600300e-6
-0.287, 1.1683866e-5, 8.8272627e-6
-0.288, 1.1588994e-5, 8.7276749e-6
-0.289, 1.1427599e-5, 8.5345837e-6
-0.290, 1.1412163e-5, 8.4854573e-6
-0.291, 1.1107479e-5, 8.3143495e-6
-0.292, 1.1025305e-5, 8.1787948e-6
-0.293, 1.0844072e-5, 8.2418064e-6
-0.294, 1.0660315e-5, 8.0742102e-6
-0.295, 1.0552003e-5, 7.9420861e-6
-0.296, 1.0282972e-5, 7.6523429e-6
-0.297, 1.0146115e-5, 7.4863792e-6
-0.298, 9.9310910e-6, 7.4409472e-6
-0.299, 9.6904405e-6, 7.2195744e-6
-0.300, 9.5685409e-6, 7.2217181e-6
-0.301, 9.2540613e-6, 6.9520274e-6
-0.302, 9.1841566e-6, 6.8785448e-6
-0.303, 8.9046862e-6, 6.5544509e-6
-0.304, 8.6458804e-6, 6.2295653e-6
-0.305, 8.5174006e-6, 6.3056705e-6
-0.306, 8.2689330e-6, 6.0539387e-6
-0.307, 8.1155031e-6, 6.0969464e-6
-0.308, 7.7900904e-6, 5.7337534e-6
-0.309, 7.6613633e-6, 5.6346598e-6
-0.310, 7.4006930e-6, 5.3564931e-6
-0.311, 7.1924965e-6, 5.0819212e-6
-0.312, 7.0483666e-6, 5.1156117e-6
-0.313, 6.8121199e-6, 4.9311293e-6
-0.314, 6.7038245e-6, 4.9465812e-6
-0.315, 6.4483820e-6, 4.5473885e-6
-0.316, 6.2816434e-6, 4.4311118e-6
-0.317, 6.1006899e-6, 4.2396041e-6
-0.318, 5.9369195e-6, 4.1135645e-6
-0.319, 5.7951811e-6, 4.0360746e-6
-0.320, 5.5113746e-6, 3.8894550e-6
-0.321, 5.4303391e-6, 3.8887292e-6
-0.322, 5.2208725e-6, 3.5899980e-6
-0.323, 5.1075644e-6, 3.4794107e-6
-0.324, 4.9827786e-6, 3.3065214e-6
-0.325, 4.8133024e-6, 3.2558448e-6
-0.326, 4.7568051e-6, 3.2097862e-6
-0.327, 4.5333709e-6, 3.0350168e-6
-0.328, 4.4087997e-6, 3.0640242e-6
-0.329, 4.3062764e-6, 2.8939544e-6
-0.330, 4.2059955e-6, 2.7749568e-6
-0.331, 4.1363883e-6, 2.6135117e-6
-0.332, 4.0005693e-6, 2.5701413e-6
-0.333, 3.9150977e-6, 2.5885611e-6
-0.334, 3.7621292e-6, 2.5098504e-6
-0.335, 3.6942365e-6, 2.3618786e-6
-0.336, 3.6009151e-6, 2.3205694e-6
-0.337, 3.5401465e-6, 2.1920234e-6
-0.338, 3.4921418e-6, 2.1410997e-6
-0.339, 3.3198460e-6, 2.0680457e-6
-0.340, 3.3385300e-6, 2.0907532e-6
-0.341, 3.1964453e-6, 2.1076237e-6
-0.342, 3.1615837e-6, 1.9933916e-6
-0.343, 3.0982260e-6, 1.8978110e-6
-0.344, 3.0499575e-6, 1.7847502e-6
-0.345, 3.0498254e-6, 1.8381967e-6
-0.346, 2.8645350e-6, 1.7693641e-6
-0.347, 2.8936577e-6, 1.7659506e-6
-0.348, 2.7859726e-6, 1.7745094e-6
-0.349, 2.7771664e-6, 1.6818475e-6
-0.350, 2.7651777e-6, 1.6810559e-6
-0.351, 2.6551020e-6, 1.4873054e-6
-0.352, 2.6978787e-6, 1.6250697e-6
-0.353, 2.5708666e-6, 1.5715569e-6
-0.354, 2.5935415e-6, 1.5754323e-6
-0.355, 2.5445968e-6, 1.5702377e-6
-0.356, 2.4906719e-6, 1.4852442e-6
-0.357, 2.5460149e-6, 1.5442317e-6
-0.358, 2.4226638e-6, 1.3784168e-6
-0.359, 2.4344547e-6, 1.4315831e-6
-0.360, 2.3836958e-6, 1.4306102e-6
-0.361, 2.4081685e-6, 1.4263554e-6
-0.362, 2.3737850e-6, 1.4664940e-6
-0.363, 2.3247580e-6, 1.3528065e-6
-0.364, 2.3562884e-6, 1.3792082e-6
-0.365, 2.2392201e-6, 1.2902568e-6
-0.366, 2.3014234e-6, 1.3541917e-6
-0.367, 2.2355262e-6, 1.3464575e-6
-0.368, 2.2369773e-6, 1.3694294e-6
-0.369, 2.2791114e-6, 1.4158509e-6
-0.370, 2.2179304e-6, 1.2772953e-6
-0.371, 2.2482736e-6, 1.2824569e-6
-0.372, 2.1942826e-6, 1.2403227e-6
-0.373, 2.2203546e-6, 1.3220512e-6
-0.374, 2.2038969e-6, 1.2919388e-6
-0.375, 2.1562055e-6, 1.3602933e-6
-0.376, 2.2202064e-6, 1.3547689e-6
-0.377, 2.1601466e-6, 1.2276907e-6
-0.378, 2.2071456e-6, 1.2634263e-6
-0.379, 2.1563374e-6, 1.1806920e-6
-0.380, 2.1607236e-6, 1.2937530e-6
-0.381, 2.1980757e-6, 1.3426976e-6
-0.382, 2.1526928e-6, 1.2901414e-6
-0.383, 2.1903413e-6, 1.3428296e-6
-0.384, 2.1528908e-6, 1.2857714e-6
-0.385, 2.1800345e-6, 1.2355569e-6
-0.386, 2.1964759e-6, 1.2246069e-6
-0.387, 2.1588933e-6, 1.2743433e-6
-0.388, 2.2217071e-6, 1.3617774e-6
-0.389, 2.1608887e-6, 1.3147786e-6
-0.390, 2.1913804e-6, 1.2783670e-6
-0.391, 2.1564033e-6, 1.2964574e-6
-0.392, 2.1969706e-6, 1.2376677e-6
-0.393, 2.2160834e-6, 1.3346502e-6
-0.394, 2.1589760e-6, 1.2757945e-6
-0.395, 2.2473005e-6, 1.3441323e-6
-0.396, 2.1646651e-6, 1.3468203e-6
-0.397, 2.2350973e-6, 1.3014871e-6
-0.398, 2.2124389e-6, 1.3080339e-6
-0.399, 2.2411825e-6, 1.2358867e-6
-0.400, 2.2941674e-6, 1.3677967e-6
-0.401, 2.1780722e-6, 1.3110189e-6
-0.402, 2.2731911e-6, 1.3530373e-6
-0.403, 2.2273136e-6, 1.3885091e-6
-0.404, 2.2765553e-6, 1.3601780e-6
-0.405, 2.2842401e-6, 1.3738488e-6
-0.406, 2.2446950e-6, 1.2502996e-6
-0.407, 2.3465752e-6, 1.3892018e-6
-0.408, 2.2365648e-6, 1.3558903e-6
-0.409, 2.3104274e-6, 1.4436214e-6
-0.410, 2.3002031e-6, 1.4018502e-6
-0.411, 2.3058760e-6, 1.3587268e-6
-0.412, 2.3610376e-6, 1.4401417e-6
-0.413, 2.3143850e-6, 1.3067806e-6
-0.414, 2.3481418e-6, 1.4124702e-6
-0.415, 2.3165785e-6, 1.3884596e-6
-0.416, 2.3579041e-6, 1.4265698e-6
-0.417, 2.3566677e-6, 1.4677969e-6
-0.418, 2.3312386e-6, 1.3788455e-6
-0.419, 2.3997582e-6, 1.4424340e-6
-0.420, 2.3171556e-6, 1.3577701e-6
-0.421, 2.3831517e-6, 1.4339578e-6
-0.422, 2.3379671e-6, 1.4373878e-6
-0.423, 2.3717566e-6, 1.4761906e-6
-0.424, 2.4163971e-6, 1.5104256e-6
-0.425, 2.3728946e-6, 1.3953693e-6
-0.426, 2.4100648e-6, 1.4130638e-6
-0.427, 2.3646492e-6, 1.3828857e-6
-0.428, 2.4127364e-6, 1.4406860e-6
-0.429, 2.4080862e-6, 1.4633939e-6
-0.430, 2.3588443e-6, 1.5143999e-6
-0.431, 2.4421065e-6, 1.5396307e-6
-0.432, 2.3982905e-6, 1.4236016e-6
-0.433, 2.4285509e-6, 1.4262071e-6
-0.434, 2.3947287e-6, 1.4108375e-6
-0.435, 2.4074427e-6, 1.4787469e-6
-0.436, 2.4391547e-6, 1.5140040e-6
-0.437, 2.3954046e-6, 1.4671866e-6
-0.438, 2.4338115e-6, 1.5314018e-6
-0.439, 2.3885609e-6, 1.4546207e-6
-0.440, 2.4340757e-6, 1.3912301e-6
-0.441, 2.4212623e-6, 1.3896305e-6
-0.442, 2.3904245e-6, 1.4310059e-6
-0.443, 2.4411502e-6, 1.5182586e-6
-0.444, 2.3718885e-6, 1.4821110e-6
-0.445, 2.4213939e-6, 1.4505309e-6
-0.446, 2.3688874e-6, 1.4488324e-6
-0.447, 2.3880991e-6, 1.3918897e-6
-0.448, 2.4163478e-6, 1.4451055e-6
-0.449, 2.3438377e-6, 1.4197591e-6
-0.450, 2.3970040e-6, 1.4915271e-6
-0.451, 2.3371094e-6, 1.4551980e-6
-0.452, 2.3850812e-6, 1.4245744e-6
-0.453, 2.3474327e-6, 1.4053792e-6
-0.454, 2.3479110e-6, 1.3479416e-6
-0.455, 2.3949428e-6, 1.4342545e-6
-0.456, 2.2805461e-6, 1.4067808e-6
-0.457, 2.3579209e-6, 1.4061543e-6
-0.458, 2.2789793e-6, 1.4428957e-6
-0.459, 2.3215919e-6, 1.4266358e-6
-0.460, 2.3070631e-6, 1.4309894e-6
-0.461, 2.2697775e-6, 1.3035154e-6
-0.462, 2.3349821e-6, 1.4140039e-6
-0.463, 2.2341903e-6, 1.3794062e-6
-0.464, 2.2655229e-6, 1.4078363e-6
-0.465, 2.2268189e-6, 1.4045382e-6
-0.466, 2.2245763e-6, 1.3517181e-6
-0.467, 2.2532868e-6, 1.3877670e-6
-0.468, 2.1949095e-6, 1.2636408e-6
-0.469, 2.2389563e-6, 1.3423844e-6
-0.470, 2.1623564e-6, 1.3415597e-6
-0.471, 2.1946455e-6, 1.3507615e-6
-0.472, 2.1872577e-6, 1.3595018e-6
-0.473, 2.1327060e-6, 1.2600127e-6
-0.474, 2.1655228e-6, 1.3374865e-6
-0.475, 2.0980424e-6, 1.2123048e-6
-0.476, 2.1508788e-6, 1.2811539e-6
-0.477, 2.0688535e-6, 1.2926646e-6
-0.478, 2.0964922e-6, 1.2775754e-6
-0.479, 2.1170893e-6, 1.3320116e-6
-0.480, 2.0587447e-6, 1.2171201e-6
-0.481, 2.0731413e-6, 1.2018496e-6
-0.482, 2.0061887e-6, 1.1946101e-6
-0.483, 2.0627685e-6, 1.2507778e-6
-0.484, 2.0119107e-6, 1.2421367e-6
-0.485, 1.9807433e-6, 1.2415760e-6
-0.486, 2.0183422e-6, 1.2886902e-6
-0.487, 1.9495426e-6, 1.1819783e-6
-0.488, 1.9752022e-6, 1.2052137e-6
-0.489, 1.9200570e-6, 1.1005137e-6
-0.490, 1.9360862e-6, 1.1728753e-6
-0.491, 1.9380816e-6, 1.1807745e-6
-0.492, 1.8914126e-6, 1.1361833e-6
-0.493, 1.9098163e-6, 1.1995410e-6
-0.494, 1.8527252e-6, 1.1226444e-6
-0.495, 1.8741962e-6, 1.1064174e-6
-0.496, 1.8563201e-6, 1.0450055e-6
-0.497, 1.8099480e-6, 1.1010084e-6
-0.498, 1.8335134e-6, 1.1395144e-6
-0.499, 1.7776920e-6, 1.1048343e-6
-0.500, 1.7798523e-6, 1.1114141e-6
