Dec. 9, 2005   03:07:00
Square Wave Voltammetry
File: d:\ida_biofilms\11_28_18_blankidapyo\100um_pyo_soak_swv.txt
Data Source:  Experiment
Instrument Model:  CHI760B
Header: 
Note: 

Init E (V) = 0.1
Final E (V) = -0.5
Incr E (V) = 0.001
Amplitude (V) = 0.025
Frequency (Hz) = 15
Quiet Time (sec) = 2
Sensitivity (A/V) = 1e-5
Sens 2 (A/V) = 1e-5

Potential/V, i1/A, i2/A

0.099, 7.8417628e-8, 3.2713210e-8
0.098, 9.1602807e-8, 4.3080963e-8
0.097, 1.6136450e-7, 1.0548629e-7
0.096, 8.7733099e-8, 4.1931685e-8
0.095, 8.5866120e-8, 4.0132601e-8
0.094, 8.4474379e-8, 3.9090011e-8
0.093, 1.5464825e-7, 1.0136441e-7
0.092, 8.0919854e-8, 3.7674020e-8
0.091, 7.9149878e-8, 3.6883591e-8
0.090, 7.7699944e-8, 3.6146499e-8
0.089, 1.4786896e-7, 9.7349201e-8
0.088, 7.5459575e-8, 3.4997221e-8
0.087, 1.4556555e-7, 9.6767295e-8
0.086, 1.4483815e-7, 9.5123383e-8
0.085, 1.4400408e-7, 9.4172933e-8
0.084, 7.0057489e-8, 3.1549387e-8
0.083, 1.4231169e-7, 9.3595858e-8
0.082, 1.4045926e-7, 9.2330204e-8
0.081, 1.4055139e-7, 9.1355503e-8
0.080, 1.3971732e-7, 9.1370048e-8
0.079, 6.4398378e-8, 2.9255679e-8
0.078, 1.3755940e-7, 9.0608708e-8
0.077, 1.3777762e-7, 8.9561269e-8
0.076, 1.3585246e-7, 8.9357599e-8
0.075, 6.0606240e-8, 2.6617672e-8
0.074, 1.3321929e-7, 8.8538073e-8
0.073, 1.3302046e-7, 8.7170577e-8
0.072, 1.3221064e-7, 8.6321954e-8
0.071, 5.7672430e-8, 2.4949522e-8
0.070, 1.3034366e-7, 8.5424830e-8
0.069, 1.2894708e-7, 8.4930214e-8
0.068, 1.2837003e-7, 8.6147381e-8
0.067, 5.4079120e-8, 2.3247427e-8
0.066, 1.2653700e-7, 8.5070837e-8
0.065, 1.2630908e-7, 8.3523922e-8
0.064, 1.2531498e-7, 8.2689851e-8
0.063, 5.2255793e-8, 2.1438646e-8
0.062, 1.2375351e-7, 8.1288405e-8
0.061, 1.2321040e-7, 8.0818026e-8
0.060, 1.2239572e-7, 8.2447386e-8
0.059, 1.2199807e-7, 8.0856822e-8
0.058, 4.8517006e-8, 1.8810340e-8
0.057, 1.2094577e-7, 8.0769532e-8
0.056, 1.2031052e-7, 8.0590112e-8
0.055, 1.1952010e-7, 7.9145025e-8
0.054, 1.1906427e-7, 7.9038344e-8
0.053, 4.5524999e-8, 1.7248873e-8
0.052, 1.1854054e-7, 7.8218818e-8
0.051, 1.1839990e-7, 7.8606760e-8
0.050, 1.1714395e-7, 7.9246860e-8
0.049, 4.4123556e-8, 1.5158836e-8
0.048, 1.1669296e-7, 7.7171372e-8
0.047, 1.1657658e-7, 7.8213958e-8
0.046, 1.1595102e-7, 7.6773730e-8
0.045, 4.1965631e-8, 1.4285965e-8
0.044, 1.1581039e-7, 7.5590506e-8
0.043, 1.1529637e-7, 7.6463380e-8
0.042, 1.1536912e-7, 7.6153022e-8
0.041, 4.0404164e-8, 1.3781642e-8
0.040, 1.1501027e-7, 7.3762330e-8
0.039, 4.0142304e-8, 1.3199728e-8
0.038, 3.9856193e-8, 1.2928169e-8
0.037, 1.1391919e-7, 7.4310293e-8
0.036, 3.9201542e-8, 1.3961064e-8
0.035, 3.9182147e-8, 1.3117290e-8
0.034, 3.9007574e-8, 1.2966963e-8
0.033, 3.8493550e-8, 1.2399597e-8
0.032, 1.1159153e-7, 7.3932057e-8
0.031, 3.8600234e-8, 1.2026203e-8
0.030, 3.7644924e-8, 1.1337606e-8
0.029, 3.7126053e-8, 1.2123189e-8
0.028, 1.1124239e-7, 7.3413183e-8
0.027, 3.6679918e-8, 1.1541275e-8
0.026, 3.6524742e-8, 1.1861328e-8
0.025, 3.6587785e-8, 1.1584919e-8
0.024, 1.0992822e-7, 7.2244504e-8
0.023, 3.6476251e-8, 1.1318210e-8
0.022, 1.0944330e-7, 7.2579105e-8
0.021, 1.0998157e-7, 7.1376483e-8
0.020, 1.0913294e-7, 7.2069938e-8
0.019, 3.5176644e-8, 1.1517029e-8
0.018, 1.0931237e-7, 7.2191163e-8
0.017, 1.0819218e-7, 7.2380288e-8
0.016, 1.0809519e-7, 7.1197064e-8
0.015, 1.0823098e-7, 7.1279501e-8
0.014, 3.4788702e-8, 1.0745994e-8
0.013, 1.0769756e-7, 7.0973996e-8
0.012, 1.0778970e-7, 7.0537560e-8
0.011, 1.0756663e-7, 7.1633494e-8
0.010, 3.4066161e-8, 9.4900319e-9
0.009, 1.0782849e-7, 7.1037036e-8
0.008, 1.0713504e-7, 7.0750929e-8
0.007, 1.0765392e-7, 7.1793522e-8
0.006, 3.3275729e-8, 9.6937018e-9
0.005, 1.0747449e-7, 7.0217510e-8
0.004, 1.0657253e-7, 7.0702434e-8
0.003, 1.0679075e-7, 7.1172813e-8
0.002, 3.3396958e-8, 9.9313162e-9
0.001, 1.0682469e-7, 7.1691687e-8
-0.000, 1.0669376e-7, 7.0639395e-8
-0.001, 1.0613609e-7, 7.1400734e-8
-0.002, 3.3877036e-8, 9.0245020e-9
-0.003, 1.0668892e-7, 7.1294046e-8
-0.004, 3.3479399e-8, 1.0973911e-8
-0.005, 3.3115704e-8, 1.0474436e-8
-0.006, 1.0694107e-7, 7.1478325e-8
-0.007, 3.3367861e-8, 1.0081644e-8
-0.008, 3.2955676e-8, 9.9458637e-9
-0.009, 3.4138900e-8, 1.0372601e-8
-0.010, 3.2892636e-8, 1.0144684e-8
-0.011, 3.3620026e-8, 1.0488984e-8
-0.012, 1.0715929e-7, 7.1531666e-8
-0.013, 3.3741259e-8, 1.0134985e-8
-0.014, 3.3877040e-8, 9.2330215e-9
-0.015, 3.3663675e-8, 1.0445340e-8
-0.016, 1.0682954e-7, 7.0901258e-8
-0.017, 3.3944925e-8, 1.0401696e-8
-0.018, 3.3901284e-8, 9.5579225e-9
-0.019, 3.4817798e-8, 1.0993308e-8
-0.020, 1.0749389e-7, 7.0629696e-8
-0.021, 3.3974025e-8, 1.1061197e-8
-0.022, 3.5074809e-8, 1.0406545e-8
-0.023, 3.4919633e-8, 9.7664410e-9
-0.024, 1.0806610e-7, 7.1759573e-8
-0.025, 3.4764454e-8, 1.1308511e-8
-0.026, 3.5166945e-8, 1.0522928e-8
-0.027, 3.5317274e-8, 1.1323058e-8
-0.028, 1.0816309e-7, 7.1221308e-8
-0.029, 3.5448203e-8, 1.0372601e-8
-0.030, 3.5545188e-8, 1.1715850e-8
-0.031, 3.6393814e-8, 1.1308511e-8
-0.032, 3.6388965e-8, 1.2098942e-8
-0.033, 1.0936571e-7, 7.2220260e-8
-0.034, 3.6810849e-8, 1.1769190e-8
-0.035, 3.7344272e-8, 1.1953465e-8
-0.036, 3.7877690e-8, 1.1381250e-8
-0.037, 1.1042285e-7, 7.3073728e-8
-0.038, 3.7746762e-8, 1.2501433e-8
-0.039, 3.9182147e-8, 1.2869977e-8
-0.040, 3.8973628e-8, 1.2176531e-8
-0.041, 1.1198432e-7, 7.3956301e-8
-0.042, 3.9943483e-8, 1.3747696e-8
-0.043, 1.1229952e-7, 7.3883555e-8
-0.044, 1.1227043e-7, 7.4247254e-8
-0.045, 1.1282324e-7, 7.4077533e-8
-0.046, 4.0874546e-8, 1.3902873e-8
-0.047, 1.1368157e-7, 7.4669146e-8
-0.048, 1.1435077e-7, 7.5343195e-8
-0.049, 1.1460777e-7, 7.4935855e-8
-0.050, 1.1502482e-7, 7.4974650e-8
-0.051, 4.3071264e-8, 1.4091994e-8
-0.052, 1.1559217e-7, 7.5983294e-8
-0.053, 1.1677540e-7, 7.5483825e-8
-0.054, 1.1671236e-7, 7.6225760e-8
-0.055, 4.5917790e-8, 1.6778491e-8
-0.056, 1.1776950e-7, 7.7573866e-8
-0.057, 1.1881210e-7, 7.7573858e-8
-0.058, 1.1897212e-7, 7.7370188e-8
-0.059, 4.8274536e-8, 1.7864730e-8
-0.060, 1.2018930e-7, 7.7413830e-8
-0.061, 1.2115430e-7, 7.8383692e-8
-0.062, 1.2141615e-7, 7.8761929e-8
-0.063, 5.1484761e-8, 1.8330262e-8
-0.064, 1.2273031e-7, 7.8698889e-8
-0.065, 1.2300671e-7, 7.9741490e-8
-0.066, 1.2371956e-7, 8.0182772e-8
-0.067, 5.3453565e-8, 1.9353459e-8
-0.068, 1.2531983e-7, 7.9625110e-8
-0.069, 1.2612966e-7, 8.1142929e-8
-0.070, 1.2657578e-7, 8.1880017e-8
-0.071, 1.2736137e-7, 8.1079889e-8
-0.072, 5.6770467e-8, 2.2098149e-8
-0.073, 1.2915075e-7, 8.2932310e-8
-0.074, 1.2949505e-7, 8.3315399e-8
-0.075, 1.2997998e-7, 8.3077794e-8
-0.076, 1.3185665e-7, 8.2568619e-8
-0.077, 6.0999035e-8, 2.2956469e-8
-0.078, 1.3240462e-7, 8.5095088e-8
-0.079, 1.3295258e-7, 8.5090235e-8
-0.080, 1.3526568e-7, 8.5153275e-8
-0.081, 6.4097719e-8, 2.5070754e-8
-0.082, 1.3603673e-7, 8.6806878e-8
-0.083, 1.3728784e-7, 8.7063896e-8
-0.084, 1.3750120e-7, 8.7791278e-8
-0.085, 6.8006244e-8, 2.6564329e-8
-0.086, 1.3925180e-7, 8.8232568e-8
-0.087, 1.4033802e-7, 8.8736890e-8
-0.088, 1.4186556e-7, 8.9546724e-8
-0.089, 7.0925502e-8, 2.9081104e-8
-0.090, 1.4318456e-7, 8.9575821e-8
-0.091, 7.2957349e-8, 2.9042310e-8
-0.092, 7.3864157e-8, 3.0143095e-8
-0.093, 1.4546856e-7, 9.2087738e-8
-0.094, 7.6313043e-8, 3.1753057e-8
-0.095, 7.6468226e-8, 3.1403907e-8
-0.096, 7.7239257e-8, 3.1980971e-8
-0.097, 7.8655248e-8, 3.2664722e-8
-0.098, 1.5090946e-7, 9.4691799e-8
-0.099, 8.1647251e-8, 3.3406657e-8
-0.100, 8.2418282e-8, 3.4783852e-8
-0.101, 8.2709242e-8, 3.4473501e-8
-0.102, 1.5415361e-7, 9.6713947e-8
-0.103, 8.4687741e-8, 3.6112557e-8
-0.104, 8.5623654e-8, 3.7223039e-8
-0.105, 8.5972800e-8, 3.6733262e-8
-0.106, 1.5747052e-7, 9.9497434e-8
-0.107, 8.7752490e-8, 3.8711764e-8
-0.108, 1.5935689e-7, 1.0043334e-7
-0.109, 1.6055466e-7, 1.0106859e-7
-0.110, 1.6199004e-7, 1.0045274e-7
-0.111, 9.1806484e-8, 4.0675722e-8
-0.112, 1.6397340e-7, 1.0251853e-7
-0.113, 1.6454077e-7, 1.0219363e-7
-0.114, 1.6507903e-7, 1.0376965e-7
-0.115, 1.6655321e-7, 1.0402181e-7
-0.116, 9.6054450e-8, 4.3168249e-8
-0.117, 1.6834744e-7, 1.0512744e-7
-0.118, 1.6922517e-7, 1.0682469e-7
-0.119, 1.6956946e-7, 1.0681014e-7
-0.120, 9.9623520e-8, 4.4215692e-8
-0.121, 1.7086421e-7, 1.0769271e-7
-0.122, 1.7245478e-7, 1.0667436e-7
-0.123, 1.7275545e-7, 1.0817278e-7
-0.124, 1.0280948e-7, 4.6266941e-8
-0.125, 1.7360406e-7, 1.0865772e-7
-0.126, 1.7591232e-7, 1.0920569e-7
-0.127, 1.7582988e-7, 1.1041315e-7
-0.128, 1.0554933e-7, 4.7736272e-8
-0.129, 1.7719736e-7, 1.1027252e-7
-0.130, 1.7790538e-7, 1.1136361e-7
-0.131, 1.7890918e-7, 1.1216375e-7
-0.132, 1.0837161e-7, 5.1819359e-8
-0.133, 1.8105254e-7, 1.1299782e-7
-0.134, 1.8157142e-7, 1.1352154e-7
-0.135, 1.8273525e-7, 1.1357003e-7
-0.136, 1.8361781e-7, 1.1416650e-7
-0.137, 1.1192613e-7, 5.3715425e-8
-0.138, 1.8522293e-7, 1.1565523e-7
-0.139, 1.8519383e-7, 1.1635351e-7
-0.140, 1.8606185e-7, 1.1610620e-7
-0.141, 1.8727903e-7, 1.1681905e-7
-0.142, 1.1546126e-7, 5.6702575e-8
-0.143, 1.8840404e-7, 1.1672691e-7
-0.144, 1.8905385e-7, 1.1772586e-7
-0.145, 1.9033891e-7, 1.1802652e-7
-0.146, 1.1843871e-7, 5.8361032e-8
-0.147, 1.9167246e-7, 1.1999532e-7
-0.148, 1.9228833e-7, 1.1903516e-7
-0.149, 1.9458687e-7, 1.1980136e-7
-0.150, 1.2222598e-7, 5.8875052e-8
-0.151, 1.9555188e-7, 1.2198838e-7
-0.152, 1.9711335e-7, 1.2252664e-7
-0.153, 1.9716668e-7, 1.2242481e-7
-0.154, 1.2578535e-7, 6.2526553e-8
-0.155, 2.0031871e-7, 1.2417055e-7
-0.156, 1.2834577e-7, 6.4907553e-8
-0.157, 1.2765717e-7, 6.5343990e-8
-0.158, 2.0317981e-7, 1.2574171e-7
-0.159, 1.3195847e-7, 6.6478719e-8
-0.160, 1.3173056e-7, 6.6813314e-8
-0.161, 1.3442191e-7, 6.8660889e-8
-0.162, 1.3463043e-7, 6.9431927e-8
-0.163, 2.0991058e-7, 1.3150751e-7
-0.164, 1.3882021e-7, 7.0949753e-8
-0.165, 1.4117211e-7, 7.2297844e-8
-0.166, 1.4280630e-7, 7.3631398e-8
-0.167, 2.1753851e-7, 1.3472257e-7
-0.168, 1.4628810e-7, 7.6977400e-8
-0.169, 1.4867393e-7, 7.7118024e-8
-0.170, 1.5168533e-7, 7.8616452e-8
-0.171, 2.2527793e-7, 1.4045440e-7
-0.172, 1.5678677e-7, 8.2146727e-8
-0.173, 2.3030179e-7, 1.4372283e-7
-0.174, 2.3217845e-7, 1.4610382e-7
-0.175, 2.3573298e-7, 1.4756344e-7
-0.176, 1.6685387e-7, 9.0080135e-8
-0.177, 2.4060648e-7, 1.5167564e-7
-0.178, 2.4349183e-7, 1.5413423e-7
-0.179, 2.4665840e-7, 1.5603030e-7
-0.180, 2.5007228e-7, 1.5880408e-7
-0.181, 1.8391846e-7, 1.0170385e-7
-0.182, 2.5724435e-7, 1.6352726e-7
-0.183, 2.6260767e-7, 1.6487536e-7
-0.184, 2.6608942e-7, 1.6894390e-7
-0.185, 1.9995989e-7, 1.1359912e-7
-0.186, 2.7704880e-7, 1.7728951e-7
-0.187, 2.8253334e-7, 1.7959292e-7
-0.188, 2.8894891e-7, 1.8416094e-7
-0.189, 2.2112697e-7, 1.2783660e-7
-0.190, 3.0088299e-7, 1.9188585e-7
-0.191, 3.0709492e-7, 1.9598832e-7
-0.192, 3.1211877e-7, 1.9969316e-7
-0.193, 2.4649353e-7, 1.4629779e-7
-0.194, 3.2461534e-7, 2.0990575e-7
-0.195, 3.3142859e-7, 2.1557454e-7
-0.196, 3.3884314e-7, 2.2005527e-7
-0.197, 2.7934738e-7, 1.6836684e-7
-0.198, 3.5621807e-7, 2.3453521e-7
-0.199, 2.9676113e-7, 1.8011178e-7
-0.200, 3.0774959e-7, 1.8761361e-7
-0.201, 3.1698261e-7, 1.9679814e-7
-0.202, 3.9945908e-7, 2.6451829e-7
-0.203, 3.3973541e-7, 2.1377545e-7
-0.204, 3.5272177e-7, 2.2462814e-7
-0.205, 3.6305073e-7, 2.3292040e-7
-0.206, 3.7526115e-7, 2.4169273e-7
-0.207, 4.6465757e-7, 3.1046034e-7
-0.208, 4.0379433e-7, 2.6282589e-7
-0.209, 4.2333204e-7, 2.7332456e-7
-0.210, 4.3982442e-7, 2.8462821e-7
-0.211, 5.2856615e-7, 3.5808017e-7
-0.212, 4.7658199e-7, 3.1204121e-7
-0.213, 4.9461158e-7, 3.2813591e-7
-0.214, 5.1520647e-7, 3.4283408e-7
-0.215, 6.0490834e-7, 4.1941382e-7
-0.216, 5.5868020e-7, 3.7732696e-7
-0.217, 5.8227675e-7, 3.9484740e-7
-0.218, 6.0700324e-7, 4.1586418e-7
-0.219, 7.0224780e-7, 4.9488312e-7
-0.220, 6.6183395e-7, 4.5760672e-7
-0.221, 6.8883480e-7, 4.8122752e-7
-0.222, 7.2108730e-7, 5.0683656e-7
-0.223, 7.5447940e-7, 5.3162120e-7
-0.224, 8.5459754e-7, 6.1875301e-7
-0.225, 8.2348942e-7, 5.8741216e-7
-0.226, 8.5913643e-7, 6.1523730e-7
-0.227, 9.0107784e-7, 6.4788742e-7
-0.228, 1.0133240e-6, 7.4035347e-7
-0.229, 9.8451437e-7, 7.1644166e-7
-0.230, 1.0318677e-6, 7.5555590e-7
-0.231, 1.0753656e-6, 7.9582912e-7
-0.232, 1.1970969e-6, 8.9522473e-7
-0.233, 1.1762839e-6, 8.7864993e-7
-0.234, 1.2324385e-6, 9.1875341e-7
-0.235, 1.2850095e-6, 9.6233873e-7
-0.236, 1.4162017e-6, 1.0745025e-6
-0.237, 1.4049806e-6, 1.0602262e-6
-0.238, 1.5366045e-6, 1.1708430e-6
-0.239, 1.6019436e-6, 1.2275456e-6
-0.240, 1.6686552e-6, 1.2834917e-6
-0.241, 1.6660122e-6, 1.2816780e-6
-0.242, 1.8045610e-6, 1.3940164e-6
-0.243, 1.8789101e-6, 1.4519215e-6
-0.244, 1.9531913e-6, 1.5128285e-6
-0.245, 1.9567119e-6, 1.5191713e-6
-0.246, 2.1075680e-6, 1.6420811e-6
-0.247, 2.1149147e-6, 1.6499514e-6
-0.248, 2.1973765e-6, 1.7134867e-6
-0.249, 2.2788249e-6, 1.7817839e-6
-0.250, 2.4305150e-6, 1.9046064e-6
-0.251, 2.4412416e-6, 1.9110557e-6
-0.252, 2.5234613e-6, 1.9806041e-6
-0.253, 2.6031105e-6, 2.0520970e-6
-0.254, 2.7567744e-6, 2.1782703e-6
-0.255, 2.7705221e-6, 2.1904370e-6
-0.256, 2.8533525e-6, 2.2552624e-6
-0.257, 2.9310768e-6, 2.3218090e-6
-0.258, 3.0810552e-6, 2.4504311e-6
-0.259, 3.0881979e-6, 2.4534716e-6
-0.260, 3.1673576e-6, 2.5178747e-6
-0.261, 3.2435978e-6, 2.5792667e-6
-0.262, 3.3867823e-6, 2.7001445e-6
-0.263, 3.3806675e-6, 2.7001786e-6
-0.264, 3.4540760e-6, 2.7543690e-6
-0.265, 3.5188427e-6, 2.8119348e-6
-0.266, 3.5803851e-6, 2.8558206e-6
-0.267, 3.7081777e-6, 2.9689836e-6
-0.268, 3.6947213e-6, 2.9528694e-6
-0.269, 3.7491204e-6, 2.9949997e-6
-0.270, 3.7964928e-6, 3.0342594e-6
-0.271, 3.8427261e-6, 3.0727288e-6
-0.272, 3.9539682e-6, 3.1648265e-6
-0.273, 3.9215702e-6, 3.1324089e-6
-0.274, 3.9560778e-6, 3.1617083e-6
-0.275, 3.9823071e-6, 3.1824388e-6
-0.276, 4.0804903e-6, 3.2589073e-6
-0.277, 4.0279633e-6, 3.2154189e-6
-0.278, 4.0449313e-6, 3.2242738e-6
-0.279, 4.0557106e-6, 3.2320663e-6
-0.280, 4.1289059e-6, 3.2960088e-6
-0.281, 4.0639497e-6, 3.2360572e-6
-0.282, 4.0606183e-6, 3.2278087e-6
-0.283, 4.0508958e-6, 3.2197977e-6
-0.284, 4.1106432e-6, 3.2711855e-6
-0.285, 4.0219452e-6, 3.1932818e-6
-0.286, 3.9998035e-6, 3.1746217e-6
-0.287, 3.9743254e-6, 3.1541822e-6
-0.288, 4.0138957e-6, 3.1857510e-6
-0.289, 3.9098741e-6, 3.0934934e-6
-0.290, 3.9425722e-6, 3.1209743e-6
-0.291, 3.8970570e-6, 3.0836493e-6
-0.292, 3.8501162e-6, 3.0435749e-6
-0.293, 3.7272114e-6, 2.9372741e-6
-0.294, 3.7429959e-6, 2.9530925e-6
-0.295, 3.6828355e-6, 2.9014136e-6
-0.296, 3.6224571e-6, 2.8487116e-6
-0.297, 3.4880209e-6, 2.7382066e-6
-0.298, 3.4877833e-6, 2.7442634e-6
-0.299, 3.4193840e-6, 2.6814407e-6
-0.300, 3.3453844e-6, 2.6211351e-6
-0.301, 3.1994696e-6, 2.4950057e-6
-0.302, 3.1930444e-6, 2.4941182e-6
-0.303, 3.0462375e-6, 2.3669750e-6
-0.304, 2.9636881e-6, 2.2986487e-6
-0.305, 2.8839368e-6, 2.2298473e-6
-0.306, 2.8704367e-6, 2.2268650e-6
-0.307, 2.7173739e-6, 2.0973018e-6
-0.308, 2.6390387e-6, 2.0329908e-6
-0.309, 2.5564750e-6, 1.9656150e-6
-0.310, 2.5420920e-6, 1.9583072e-6
-0.311, 2.3893595e-6, 1.8280168e-6
-0.312, 2.3095258e-6, 1.7631480e-6
-0.313, 2.2251531e-6, 1.7006120e-6
-0.314, 2.1462845e-6, 1.6352194e-6
-0.315, 2.1382250e-6, 1.6314564e-6
-0.316, 1.9942354e-6, 1.5096327e-6
-0.317, 1.9170350e-6, 1.4520380e-6
-0.318, 1.8408869e-6, 1.3963974e-6
-0.319, 1.8394369e-6, 1.3967319e-6
-0.320, 1.6956994e-6, 1.2804658e-6
-0.321, 1.6287504e-6, 1.2282196e-6
-0.322, 1.5643616e-6, 1.1751347e-6
-0.323, 1.5706560e-6, 1.1827383e-6
-0.324, 1.4402154e-6, 1.0761852e-6
-0.325, 1.3781496e-6, 1.0323380e-6
-0.326, 1.3239104e-6, 9.8674514e-7
-0.327, 1.3376581e-6, 1.0013317e-6
-0.328, 1.2157716e-6, 9.0393405e-7
-0.329, 1.1678317e-6, 8.6248241e-7
-0.330, 1.1158522e-6, 8.2543880e-7
-0.331, 1.1402295e-6, 8.4867173e-7
-0.332, 1.0272317e-6, 7.5529402e-7
-0.333, 9.8498003e-7, 7.2165955e-7
-0.334, 9.4520630e-7, 6.9058046e-7
-0.335, 9.0718305e-7, 6.6162539e-7
-0.336, 8.6996494e-7, 6.3322807e-7
-0.337, 9.1231846e-7, 6.6534483e-7
-0.338, 8.0440753e-7, 5.8286838e-7
-0.339, 7.7554466e-7, 5.5866565e-7
-0.340, 7.4427163e-7, 5.3365795e-7
-0.341, 7.9191096e-7, 5.7148230e-7
-0.342, 6.9480427e-7, 4.9486852e-7
-0.343, 6.6768223e-7, 4.7571879e-7
-0.344, 6.4726675e-7, 4.5520147e-7
-0.345, 6.9730646e-7, 4.9542621e-7
-0.346, 6.0406938e-7, 4.2319141e-7
-0.347, 5.8455595e-7, 4.1025356e-7
-0.348, 5.6882010e-7, 3.9550690e-7
-0.349, 6.2359743e-7, 4.3632326e-7
-0.350, 5.3340091e-7, 3.6898621e-7
-0.351, 5.1727227e-7, 3.5748863e-7
-0.352, 5.0500842e-7, 3.4543814e-7
-0.353, 5.6405804e-7, 3.9054123e-7
-0.354, 4.7678083e-7, 3.2537184e-7
-0.355, 5.3958377e-7, 3.7057197e-7
-0.356, 5.2779512e-7, 3.6422909e-7
-0.357, 5.1770382e-7, 3.5426382e-7
-0.358, 4.3522735e-7, 2.9104379e-7
-0.359, 5.0157519e-7, 3.3967234e-7
-0.360, 4.9190561e-7, 3.3318403e-7
-0.361, 4.8414199e-7, 3.2727760e-7
-0.362, 4.0320273e-7, 2.6569663e-7
-0.363, 4.7009365e-7, 3.1421368e-7
-0.364, 4.6375567e-7, 3.0971353e-7
-0.365, 4.6082670e-7, 3.0578076e-7
-0.366, 3.7844717e-7, 2.4541697e-7
-0.367, 4.4736024e-7, 2.9775032e-7
-0.368, 3.7131878e-7, 2.3978217e-7
-0.369, 3.6710958e-7, 2.3615968e-7
-0.370, 3.6148924e-7, 2.3212510e-7
-0.371, 4.3376286e-7, 2.8623333e-7
-0.372, 3.5506400e-7, 2.2825540e-7
-0.373, 3.5506881e-7, 2.2520035e-7
-0.374, 3.5231446e-7, 2.2233445e-7
-0.375, 3.5089840e-7, 2.2174279e-7
-0.376, 4.1983094e-7, 2.7603051e-7
-0.377, 3.4554969e-7, 2.2001649e-7
-0.378, 3.4444889e-7, 2.1806221e-7
-0.379, 3.4397365e-7, 2.1789248e-7
-0.380, 4.1520471e-7, 2.7056046e-7
-0.381, 3.4348392e-7, 2.1658801e-7
-0.382, 3.4060830e-7, 2.1430890e-7
-0.383, 3.4104960e-7, 2.1539026e-7
-0.384, 4.1370140e-7, 2.6790309e-7
-0.385, 3.4146660e-7, 2.1619525e-7
-0.386, 3.3982269e-7, 2.1516720e-7
-0.387, 3.4226679e-7, 2.1555516e-7
-0.388, 4.1661099e-7, 2.7206863e-7
-0.389, 3.4275649e-7, 2.1450768e-7
-0.390, 3.4506959e-7, 2.1636015e-7
-0.391, 3.4509389e-7, 2.1596733e-7
-0.392, 4.2138265e-7, 2.7303844e-7
-0.393, 3.4728569e-7, 2.1772760e-7
-0.394, 3.4790159e-7, 2.1765000e-7
-0.395, 3.4873563e-7, 2.1887205e-7
-0.396, 3.5182950e-7, 2.1908544e-7
-0.397, 4.2640647e-7, 2.7749491e-7
-0.398, 3.5471481e-7, 2.2034136e-7
-0.399, 3.5574769e-7, 2.2146644e-7
-0.400, 3.5608230e-7, 2.2388136e-7
-0.401, 3.5827418e-7, 2.2473480e-7
-0.402, 4.3405385e-7, 2.8048208e-7
-0.403, 3.6164931e-7, 2.2720796e-7
-0.404, 3.6399635e-7, 2.2754257e-7
-0.405, 3.6430674e-7, 2.2871123e-7
-0.406, 4.4069247e-7, 2.8647094e-7
-0.407, 3.6768662e-7, 2.3100978e-7
-0.408, 3.6965542e-7, 2.3180023e-7
-0.409, 3.7101807e-7, 2.3155290e-7
-0.410, 4.4540113e-7, 2.8880348e-7
-0.411, 3.7281234e-7, 2.3386603e-7
-0.412, 3.7442709e-7, 2.3706653e-7
-0.413, 3.7579946e-7, 2.3669313e-7
-0.414, 4.5029401e-7, 2.9309504e-7
-0.415, 3.7797196e-7, 2.3667859e-7
-0.416, 3.7837930e-7, 2.3840495e-7
-0.417, 3.8054208e-7, 2.3854071e-7
-0.418, 3.8056146e-7, 2.4085381e-7
-0.419, 4.5341210e-7, 2.9567002e-7
-0.420, 3.8111432e-7, 2.4165880e-7
-0.421, 3.8274362e-7, 2.4061620e-7
-0.422, 3.8314613e-7, 2.4092171e-7
-0.423, 4.5495904e-7, 2.9585428e-7
-0.424, 3.8409178e-7, 2.4197882e-7
-0.425, 3.8371354e-7, 2.4199826e-7
-0.426, 3.8383956e-7, 2.4181398e-7
-0.427, 4.5532755e-7, 2.9656232e-7
-0.428, 3.8401413e-7, 2.4180426e-7
-0.429, 3.8358255e-7, 2.4128539e-7
-0.430, 3.8228779e-7, 2.4128542e-7
-0.431, 4.5452745e-7, 2.9754671e-7
-0.432, 3.8088154e-7, 2.4119811e-7
-0.433, 4.5283019e-7, 2.9592707e-7
-0.434, 4.5126390e-7, 2.9586886e-7
-0.435, 4.5134635e-7, 2.9460318e-7
-0.436, 3.7711848e-7, 2.3868131e-7
-0.437, 4.4780148e-7, 2.9400672e-7
-0.438, 4.4748629e-7, 2.9214462e-7
-0.439, 4.4624494e-7, 2.9033095e-7
-0.440, 4.4458645e-7, 2.9089347e-7
-0.441, 3.7115385e-7, 2.3617426e-7
-0.442, 4.4124528e-7, 2.8878890e-7
-0.443, 4.4014453e-7, 2.8782389e-7
-0.444, 4.3815140e-7, 2.8610725e-7
-0.445, 3.6549960e-7, 2.3000598e-7
-0.446, 4.3388405e-7, 2.8328014e-7
-0.447, 4.3303550e-7, 2.8247030e-7
-0.448, 4.2967008e-7, 2.8071486e-7
-0.449, 3.5661091e-7, 2.2468149e-7
-0.450, 4.2560154e-7, 2.7895942e-7
-0.451, 4.2444742e-7, 2.7741734e-7
-0.452, 4.2284231e-7, 2.7586555e-7
-0.453, 3.4619950e-7, 2.1928909e-7
-0.454, 4.1834704e-7, 2.7287359e-7
-0.455, 4.1599026e-7, 2.7074478e-7
-0.456, 4.1325040e-7, 2.6930934e-7
-0.457, 3.3754355e-7, 2.1311594e-7
-0.458, 4.0910913e-7, 2.6557058e-7
-0.459, 3.3279611e-7, 2.0828122e-7
-0.460, 3.3154012e-7, 2.0654520e-7
-0.461, 4.0210193e-7, 2.5954290e-7
-0.462, 3.2627383e-7, 2.0255911e-7
-0.463, 3.9748545e-7, 2.5685156e-7
-0.464, 3.9351386e-7, 2.5557620e-7
-0.465, 3.9064793e-7, 2.5261335e-7
-0.466, 3.8890704e-7, 2.5118760e-7
-0.467, 3.1079978e-7, 1.9196827e-7
-0.468, 3.8266603e-7, 2.4736153e-7
-0.469, 3.7941703e-7, 2.4472357e-7
-0.470, 3.7626990e-7, 2.4385554e-7
-0.471, 2.9852629e-7, 1.8484469e-7
-0.472, 3.7008704e-7, 2.3946694e-7
-0.473, 3.6746843e-7, 2.3670768e-7
-0.474, 3.6256580e-7, 2.3485528e-7
-0.475, 2.9052984e-7, 1.7626144e-7
-0.476, 3.5773587e-7, 2.3112618e-7
-0.477, 3.5455480e-7, 2.2880820e-7
-0.478, 3.5191192e-7, 2.2705764e-7
-0.479, 2.7838723e-7, 1.7007866e-7
-0.480, 3.4538482e-7, 2.2239747e-7
-0.481, 3.4335784e-7, 2.1864410e-7
-0.482, 3.4095257e-7, 2.1930364e-7
-0.483, 3.3818367e-7, 2.1765972e-7
-0.484, 2.6072618e-7, 1.5988546e-7
-0.485, 3.3122490e-7, 2.1361059e-7
-0.486, 3.2910580e-7, 2.1202489e-7
-0.487, 3.2644840e-7, 2.1016275e-7
-0.488, 2.5046995e-7, 1.5360565e-7
-0.489, 3.2101235e-7, 2.0742775e-7
-0.490, 3.1725898e-7, 2.0455214e-7
-0.491, 3.1522234e-7, 2.0226328e-7
-0.492, 2.3962210e-7, 1.4694761e-7
-0.493, 3.0936923e-7, 1.9952830e-7
-0.494, 3.0709006e-7, 1.9890273e-7
-0.495, 3.0446174e-7, 1.9569735e-7
-0.496, 2.2773655e-7, 1.3840317e-7
-0.497, 2.9915179e-7, 1.9345214e-7
-0.498, 2.2196107e-7, 1.3679808e-7
-0.499, 2.1978373e-7, 1.3433463e-7
-0.500, 2.1739307e-7, 1.3266161e-7
