Dec. 9, 2005   00:58:41
Cyclic Voltammetry
File: d:\ida_biofilms\11_28_18_blankidapyo\10um_pyo_soak_gc.txt
Data Source:  Experiment
Instrument Model:  CHI760B
Header: 
Note: 

Init E (V) = 0.1
High E (V) = 0.1
Low E (V) = -0.5
Init P/N = N
Scan Rate (V/s) = 0.003
Segment = 2
Sample Interval (V) = 0.001
Quiet Time (sec) = 2
Sensitivity (A/V) = 1e-6
2nd E (V) = 0.1
Sens 2 (A/V) = 1e-6

Potential/V, i1/A, i2/A, Time/s

0.100, -1.2455171e-8, -5.6011840e-9, 3.3333334e-1
0.099, -1.0450951e-8, -4.7272830e-9, 6.6666669e-1
0.098, -8.9931183e-9, -3.3916687e-9, 1.0000000e+0
0.097, -8.2534175e-9, -2.4275020e-9, 1.3333334e+0
0.096, -7.8524147e-9, -1.9641910e-9, 1.6666667e+0
0.095, -7.4178605e-9, -1.6758197e-9, 2.0000000e+0
0.094, -6.6845507e-9, -1.4225962e-9, 2.3333333e+0
0.093, -6.0502936e-9, -1.1677750e-9, 2.6666665e+0
0.092, -5.3689067e-9, -9.7685893e-10, 2.9999998e+0
0.091, -4.9407429e-9, -8.4505486e-10, 3.3333330e+0
0.090, -4.4934083e-9, -7.2603179e-10, 3.6666663e+0
0.089, -4.1467234e-9, -6.1819211e-10, 3.9999995e+0
0.088, -3.9070800e-9, -5.1754179e-10, 4.3333330e+0
0.087, -3.6610457e-9, -4.0171397e-10, 4.6666665e+0
0.086, -3.4837093e-9, -2.4434793e-10, 5.0000000e+0
0.085, -3.3471126e-9, -1.0375695e-10, 5.3333335e+0
0.084, -3.2193026e-9, 6.6390095e-11, 5.6666670e+0
0.083, -3.1362259e-9, 2.1576801e-10, 6.0000005e+0
0.082, -3.0483567e-9, 3.8431741e-10, 6.3333340e+0
0.081, -2.9956351e-9, 5.4248223e-10, 6.6666675e+0
0.080, -2.9485050e-9, 6.8387207e-10, 7.0000010e+0
0.079, -2.8686240e-9, 7.9650458e-10, 7.3333344e+0
0.078, -2.8246891e-9, 9.9061603e-10, 7.6666679e+0
0.077, -2.7647782e-9, 1.1192248e-9, 8.0000010e+0
0.076, -2.6896898e-9, 1.2550230e-9, 8.3333340e+0
0.075, -2.6201932e-9, 1.3796376e-9, 8.6666670e+0
0.074, -2.5411109e-9, 1.4858796e-9, 9.0000000e+0
0.073, -2.4061115e-9, 1.5449918e-9, 9.3333330e+0
0.072, -2.3398101e-9, 1.6847840e-9, 9.6666660e+0
0.071, -2.2926800e-9, 1.7039554e-9, 9.9999990e+0
0.070, -2.1337165e-9, 1.8309667e-9, 1.0333332e+1
0.069, -2.0849888e-9, 1.9044573e-9, 1.0666665e+1
0.068, -1.9595754e-9, 1.9771493e-9, 1.0999998e+1
0.067, -1.8014106e-9, 2.0410542e-9, 1.1333331e+1
0.066, -1.7894284e-9, 2.1209356e-9, 1.1666664e+1
0.065, -1.6544291e-9, 2.1584798e-9, 1.1999997e+1
0.064, -1.6041040e-9, 2.1680655e-9, 1.2333330e+1
0.063, -1.3980103e-9, 2.2599289e-9, 1.2666663e+1
0.062, -1.3181292e-9, 2.2934790e-9, 1.2999996e+1
0.061, -1.2526266e-9, 2.3158457e-9, 1.3333329e+1
0.060, -1.0744913e-9, 2.3326208e-9, 1.3666662e+1
0.059, -1.0457341e-9, 2.3773543e-9, 1.3999995e+1
0.058, -9.2511337e-10, 2.3973246e-9, 1.4333328e+1
0.057, -7.6694856e-10, 2.4324722e-9, 1.4666661e+1
0.056, -7.0224476e-10, 2.4348688e-9, 1.4999994e+1
0.055, -6.1517419e-10, 2.4628271e-9, 1.5333327e+1
0.054, -6.1197891e-10, 2.4851941e-9, 1.5666660e+1
0.053, -4.7218679e-10, 2.4804012e-9, 1.5999993e+1
0.052, -3.5955422e-10, 2.5746612e-9, 1.6333326e+1
0.051, -4.1467227e-10, 2.5722646e-9, 1.6666660e+1
0.050, -2.8047181e-10, 2.5658740e-9, 1.6999994e+1
0.049, -2.3174425e-10, 2.5922349e-9, 1.7333328e+1
0.048, -1.5425945e-10, 2.6177969e-9, 1.7666662e+1
0.047, -8.5561586e-11, 2.6305780e-9, 1.7999996e+1
0.046, 2.9467394e-11, 2.6425599e-9, 1.8333330e+1
0.045, 4.0650767e-11, 2.6449565e-9, 1.8666664e+1
0.044, 9.5768823e-11, 2.6681219e-9, 1.8999998e+1
0.043, 1.3251419e-10, 2.6545421e-9, 1.9333332e+1
0.042, 1.8843106e-10, 2.6832994e-9, 1.9666666e+1
0.041, 3.2502798e-10, 2.6529445e-9, 2.0000000e+1
0.040, 2.9866717e-10, 2.7144531e-9, 2.0333334e+1
0.039, 3.4579711e-10, 2.6912876e-9, 2.0666668e+1
0.038, 4.1769019e-10, 2.7088614e-9, 2.1000002e+1
0.037, 5.6387284e-10, 2.7599854e-9, 2.1333336e+1
0.036, 2.5393368e-10, 2.6697198e-9, 2.1666670e+1
0.035, 3.8733533e-10, 2.7368199e-9, 2.2000004e+1
0.034, 3.8254247e-10, 2.6848970e-9, 2.2333338e+1
0.033, 5.0875482e-10, 2.7136544e-9, 2.2666672e+1
0.032, 5.2792631e-10, 2.6936842e-9, 2.3000006e+1
0.031, 5.1993820e-10, 2.7304294e-9, 2.3333340e+1
0.030, 5.6307409e-10, 2.7136544e-9, 2.3666674e+1
0.029, 6.7171257e-10, 2.7008733e-9, 2.4000008e+1
0.028, 6.5014460e-10, 2.7208436e-9, 2.4333342e+1
0.027, 6.6691969e-10, 2.7312281e-9, 2.4666676e+1
0.026, 6.6532208e-10, 2.7344234e-9, 2.5000010e+1
0.025, 7.3162348e-10, 2.7336244e-9, 2.5333344e+1
0.024, 7.3082468e-10, 2.7440092e-9, 2.5666677e+1
0.023, 7.4600215e-10, 2.7448082e-9, 2.6000011e+1
0.022, 7.8194867e-10, 2.7527960e-9, 2.6333345e+1
0.021, 8.2827978e-10, 2.7559914e-9, 2.6666679e+1
0.020, 8.2348689e-10, 2.7232401e-9, 2.7000013e+1
0.019, 8.4904889e-10, 2.7711686e-9, 2.7333347e+1
0.018, 8.7061680e-10, 2.7727665e-9, 2.7666681e+1
0.017, 9.0017294e-10, 2.8039200e-9, 2.8000015e+1
0.016, 8.9138597e-10, 2.7623819e-9, 2.8333349e+1
0.015, 9.9603037e-10, 2.7735652e-9, 2.8666683e+1
0.014, 9.7765773e-10, 2.7567904e-9, 2.9000017e+1
0.013, 9.8404829e-10, 2.7871452e-9, 2.9333351e+1
0.012, 1.0215924e-9, 2.7623819e-9, 2.9666685e+1
0.011, 1.0351722e-9, 2.7895417e-9, 3.0000019e+1
0.010, 1.0687223e-9, 2.7919378e-9, 3.0333353e+1
0.009, 1.0982784e-9, 2.8151035e-9, 3.0666687e+1
0.008, 1.1006749e-9, 2.8047189e-9, 3.1000021e+1
0.007, 1.0982784e-9, 2.8270857e-9, 3.1333355e+1
0.006, 1.1206451e-9, 2.8198965e-9, 3.1666689e+1
0.005, 1.1749643e-9, 2.8382692e-9, 3.2000023e+1
0.004, 1.1661775e-9, 2.8182987e-9, 3.2333355e+1
0.003, 1.1829524e-9, 2.8318785e-9, 3.2666687e+1
0.002, 1.2029228e-9, 2.8318785e-9, 3.3000019e+1
0.001, 1.1957334e-9, 2.8238905e-9, 3.3333351e+1
-0.000, 1.2420647e-9, 2.8286833e-9, 3.3666683e+1
-0.001, 1.2724195e-9, 2.8350737e-9, 3.4000015e+1
-0.002, 1.2684254e-9, 2.8390679e-9, 3.4333347e+1
-0.003, 1.2931886e-9, 2.8478548e-9, 3.4666679e+1
-0.004, 1.2883957e-9, 2.8670262e-9, 3.5000011e+1
-0.005, 1.3107625e-9, 2.8486535e-9, 3.5333344e+1
-0.006, 1.2931886e-9, 2.8494525e-9, 3.5666676e+1
-0.007, 1.3594900e-9, 2.8382692e-9, 3.6000008e+1
-0.008, 1.3443126e-9, 2.8606357e-9, 3.6333340e+1
-0.009, 1.3578924e-9, 2.8534464e-9, 3.6666672e+1
-0.010, 1.3323304e-9, 2.8478548e-9, 3.7000004e+1
-0.011, 1.3762651e-9, 2.8334763e-9, 3.7333336e+1
-0.012, 1.3794603e-9, 2.8550440e-9, 3.7666668e+1
-0.013, 1.4194009e-9, 2.8702216e-9, 3.8000000e+1
-0.014, 1.4042235e-9, 2.8454585e-9, 3.8333332e+1
-0.015, 1.4002294e-9, 2.8678251e-9, 3.8666664e+1
-0.016, 1.4425665e-9, 2.8638312e-9, 3.8999996e+1
-0.017, 1.4944893e-9, 2.8718190e-9, 3.9333328e+1
-0.018, 1.4769155e-9, 2.8869966e-9, 3.9666660e+1
-0.019, 1.4777143e-9, 2.8782097e-9, 3.9999992e+1
-0.020, 1.5232465e-9, 2.8678251e-9, 4.0333324e+1
-0.021, 1.5144596e-9, 2.8702216e-9, 4.0666656e+1
-0.022, 1.5240453e-9, 2.8885943e-9, 4.0999989e+1
-0.023, 1.5472109e-9, 2.9037717e-9, 4.1333321e+1
-0.024, 1.5472109e-9, 2.8869966e-9, 4.1666653e+1
-0.025, 1.5951396e-9, 2.9021741e-9, 4.1999985e+1
-0.026, 1.5448144e-9, 2.8973810e-9, 4.2333317e+1
-0.027, 1.5895479e-9, 2.8925882e-9, 4.2666649e+1
-0.028, 1.6055242e-9, 2.8718190e-9, 4.2999981e+1
-0.029, 1.5863527e-9, 2.8973810e-9, 4.3333313e+1
-0.030, 1.5919444e-9, 2.9085647e-9, 4.3666645e+1
-0.031, 1.6143111e-9, 2.9125586e-9, 4.3999977e+1
-0.032, 1.6047254e-9, 2.9037717e-9, 4.4333309e+1
-0.033, 1.6183053e-9, 2.9069669e-9, 4.4666641e+1
-0.034, 1.6103171e-9, 2.9005764e-9, 4.4999973e+1
-0.035, 1.6254945e-9, 2.8973810e-9, 4.5333305e+1
-0.036, 1.6414708e-9, 2.9157536e-9, 4.5666637e+1
-0.037, 1.6614411e-9, 2.9117597e-9, 4.5999969e+1
-0.038, 1.6318851e-9, 2.9093634e-9, 4.6333302e+1
-0.039, 1.6886007e-9, 2.8973810e-9, 4.6666634e+1
-0.040, 1.6526541e-9, 2.8806062e-9, 4.6999966e+1
-0.041, 1.6822103e-9, 2.9085647e-9, 4.7333298e+1
-0.042, 1.6678315e-9, 2.8917895e-9, 4.7666630e+1
-0.043, 1.6886007e-9, 2.9165526e-9, 4.7999962e+1
-0.044, 1.6750209e-9, 2.9093634e-9, 4.8333294e+1
-0.045, 1.6973877e-9, 2.9101621e-9, 4.8666626e+1
-0.046, 1.7061745e-9, 2.8901919e-9, 4.8999958e+1
-0.047, 1.7293402e-9, 2.9037717e-9, 4.9333290e+1
-0.048, 1.7229497e-9, 2.8917895e-9, 4.9666622e+1
-0.049, 1.7301390e-9, 2.8909906e-9, 4.9999954e+1
-0.050, 1.7564997e-9, 2.8901919e-9, 5.0333286e+1
-0.051, 1.7437187e-9, 2.8885943e-9, 5.0666618e+1
-0.052, 1.7341329e-9, 2.8981799e-9, 5.0999950e+1
-0.053, 1.7485117e-9, 2.9021741e-9, 5.1333282e+1
-0.054, 1.7533045e-9, 2.8933871e-9, 5.1666615e+1
-0.055, 1.7764701e-9, 2.8965825e-9, 5.1999947e+1
-0.056, 1.7525057e-9, 2.8949847e-9, 5.2333279e+1
-0.057, 1.7724761e-9, 2.9205467e-9, 5.2666611e+1
-0.058, 1.7972391e-9, 2.8933871e-9, 5.2999943e+1
-0.059, 1.8156119e-9, 2.9117597e-9, 5.3333275e+1
-0.060, 1.8100201e-9, 2.9213456e-9, 5.3666607e+1
-0.061, 1.8060261e-9, 2.9261384e-9, 5.3999939e+1
-0.062, 1.8172095e-9, 2.9173515e-9, 5.4333271e+1
-0.063, 1.8347833e-9, 2.9301324e-9, 5.4666603e+1
-0.064, 1.8236000e-9, 2.9349252e-9, 5.4999935e+1
-0.065, 1.8451679e-9, 2.9317302e-9, 5.5333267e+1
-0.066, 1.8395763e-9, 2.9381206e-9, 5.5666599e+1
-0.067, 1.8611442e-9, 2.9285347e-9, 5.5999931e+1
-0.068, 1.8715287e-9, 2.9197480e-9, 5.6333263e+1
-0.069, 1.8715287e-9, 2.9445111e-9, 5.6666595e+1
-0.070, 1.8643393e-9, 2.9165526e-9, 5.6999928e+1
-0.071, 1.8867061e-9, 2.9413159e-9, 5.7333260e+1
-0.072, 1.8699311e-9, 2.9293337e-9, 5.7666592e+1
-0.073, 1.9066764e-9, 2.9269374e-9, 5.7999924e+1
-0.074, 1.9146646e-9, 2.9341267e-9, 5.8333256e+1
-0.075, 1.9154636e-9, 2.9293337e-9, 5.8666588e+1
-0.076, 1.9178599e-9, 2.9301324e-9, 5.8999920e+1
-0.077, 1.9282445e-9, 2.9325289e-9, 5.9333252e+1
-0.078, 1.9458184e-9, 2.9165526e-9, 5.9666584e+1
-0.079, 1.9490136e-9, 2.9197480e-9, 5.9999916e+1
-0.080, 1.9617945e-9, 2.9333278e-9, 6.0333248e+1
-0.081, 1.9625932e-9, 2.9317302e-9, 6.0666580e+1
-0.082, 1.9649897e-9, 2.9301324e-9, 6.0999912e+1
-0.083, 1.9801674e-9, 2.9285347e-9, 6.1333244e+1
-0.084, 1.9889541e-9, 2.9429135e-9, 6.1666576e+1
-0.085, 1.9833626e-9, 2.9341267e-9, 6.1999908e+1
-0.086, 1.9945459e-9, 2.9309313e-9, 6.2333241e+1
-0.087, 2.0041317e-9, 2.9093634e-9, 6.2666573e+1
-0.088, 2.0241020e-9, 2.9333278e-9, 6.2999905e+1
-0.089, 2.0209066e-9, 2.9325289e-9, 6.3333237e+1
-0.090, 2.0368831e-9, 2.9373217e-9, 6.3666569e+1
-0.091, 2.0400781e-9, 2.9317302e-9, 6.3999901e+1
-0.092, 2.0488651e-9, 2.9269374e-9, 6.4333237e+1
-0.093, 2.0544568e-9, 2.9197480e-9, 6.4666573e+1
-0.094, 2.0712319e-9, 2.9325289e-9, 6.4999908e+1
-0.095, 2.0712319e-9, 2.9189491e-9, 6.5333244e+1
-0.096, 2.0904034e-9, 2.9333278e-9, 6.5666580e+1
-0.097, 2.1255511e-9, 2.9133576e-9, 6.5999916e+1
-0.098, 2.1119713e-9, 2.9021741e-9, 6.6333252e+1
-0.099, 2.1319415e-9, 2.8965825e-9, 6.6666588e+1
-0.100, 2.1559061e-9, 2.8973810e-9, 6.6999924e+1
-0.101, 2.1495155e-9, 2.9037717e-9, 6.7333260e+1
-0.102, 2.1670894e-9, 2.8909906e-9, 6.7666595e+1
-0.103, 2.1559061e-9, 2.8885943e-9, 6.7999931e+1
-0.104, 2.1902549e-9, 2.8670262e-9, 6.8333267e+1
-0.105, 2.1862610e-9, 2.8678251e-9, 6.8666603e+1
-0.106, 2.2349884e-9, 2.8726179e-9, 6.8999939e+1
-0.107, 2.2230062e-9, 2.8782097e-9, 6.9333275e+1
-0.108, 2.2757278e-9, 2.8662275e-9, 6.9666611e+1
-0.109, 2.2325919e-9, 2.8710205e-9, 6.9999947e+1
-0.110, 2.3084790e-9, 2.8726179e-9, 7.0333282e+1
-0.111, 2.3020885e-9, 2.8590381e-9, 7.0666618e+1
-0.112, 2.3619995e-9, 2.8534464e-9, 7.0999954e+1
-0.113, 2.3436268e-9, 2.8350737e-9, 7.1333290e+1
-0.114, 2.3444258e-9, 2.8542453e-9, 7.1666626e+1
-0.115, 2.3380353e-9, 2.8470559e-9, 7.1999962e+1
-0.116, 2.3739817e-9, 2.8238905e-9, 7.2333298e+1
-0.117, 2.4019400e-9, 2.8254881e-9, 7.2666634e+1
-0.118, 2.4290998e-9, 2.8294820e-9, 7.2999969e+1
-0.119, 2.4354903e-9, 2.8222926e-9, 7.3333305e+1
-0.120, 2.4746321e-9, 2.8119083e-9, 7.3666641e+1
-0.121, 2.5097797e-9, 2.8366713e-9, 7.3999977e+1
-0.122, 2.5441287e-9, 2.8079143e-9, 7.4333313e+1
-0.123, 2.5409335e-9, 2.8159022e-9, 7.4666649e+1
-0.124, 2.5736848e-9, 2.8047189e-9, 7.4999985e+1
-0.125, 2.5968505e-9, 2.8262870e-9, 7.5333321e+1
-0.126, 2.6383886e-9, 2.7991272e-9, 7.5666656e+1
-0.127, 2.6863174e-9, 2.8039200e-9, 7.5999992e+1
-0.128, 2.6967020e-9, 2.8087128e-9, 7.6333328e+1
-0.129, 2.6982994e-9, 2.7823523e-9, 7.6666664e+1
-0.130, 2.7773821e-9, 2.7903402e-9, 7.7000000e+1
-0.131, 2.7885654e-9, 2.7935356e-9, 7.7333336e+1
-0.132, 2.8964051e-9, 2.7815534e-9, 7.7666672e+1
-0.133, 2.8636538e-9, 2.7847487e-9, 7.8000008e+1
-0.134, 2.8972038e-9, 2.7639795e-9, 7.8333344e+1
-0.135, 2.9427363e-9, 2.7719675e-9, 7.8666679e+1
-0.136, 2.9754874e-9, 2.7663758e-9, 7.9000015e+1
-0.137, 3.0306055e-9, 2.7647782e-9, 7.9333351e+1
-0.138, 3.0977059e-9, 2.7559914e-9, 7.9666687e+1
-0.139, 3.0785343e-9, 2.7336244e-9, 8.0000023e+1
-0.140, 3.1256642e-9, 2.7144531e-9, 8.0333359e+1
-0.141, 3.1791847e-9, 2.6984768e-9, 8.0666695e+1
-0.142, 3.3229708e-9, 2.6976781e-9, 8.1000031e+1
-0.143, 3.3533256e-9, 2.6864948e-9, 8.1333366e+1
-0.144, 3.3820831e-9, 2.6713172e-9, 8.1666702e+1
-0.145, 3.4907213e-9, 2.6705183e-9, 8.2000038e+1
-0.146, 3.4228222e-9, 2.6521456e-9, 8.2333374e+1
-0.147, 3.5027037e-9, 2.6561400e-9, 8.2666710e+1
-0.148, 3.5929695e-9, 2.6114064e-9, 8.3000046e+1
-0.149, 3.6512828e-9, 2.6385660e-9, 8.3333382e+1
-0.150, 3.7423473e-9, 2.6034181e-9, 8.3666718e+1
-0.151, 3.8581751e-9, 2.5962288e-9, 8.4000053e+1
-0.152, 3.8398023e-9, 2.5906373e-9, 8.4333389e+1
-0.153, 3.9875827e-9, 2.5986253e-9, 8.4666725e+1
-0.154, 4.0434993e-9, 2.5898383e-9, 8.5000061e+1
-0.155, 4.1377595e-9, 2.5554896e-9, 8.5333397e+1
-0.156, 4.2519894e-9, 2.5403120e-9, 8.5666733e+1
-0.157, 4.3758055e-9, 2.5483002e-9, 8.6000069e+1
-0.158, 4.3790012e-9, 2.5315252e-9, 8.6333405e+1
-0.159, 4.5084083e-9, 2.5235369e-9, 8.6666740e+1
-0.160, 4.5387631e-9, 2.5131524e-9, 8.7000076e+1
-0.161, 4.7288808e-9, 2.5363180e-9, 8.7333412e+1
-0.162, 4.7656261e-9, 2.5059632e-9, 8.7666748e+1
-0.163, 4.7951820e-9, 2.4692177e-9, 8.8000084e+1
-0.164, 4.9573412e-9, 2.5035667e-9, 8.8333420e+1
-0.165, 5.0747664e-9, 2.4292772e-9, 8.8666756e+1
-0.166, 5.1131095e-9, 2.4300759e-9, 8.9000092e+1
-0.167, 5.2041740e-9, 2.4125020e-9, 8.9333427e+1
-0.168, 5.2688778e-9, 2.4125020e-9, 8.9666763e+1
-0.169, 5.4134630e-9, 2.3254314e-9, 9.0000099e+1
-0.170, 5.4326343e-9, 2.3270290e-9, 9.0333435e+1
-0.171, 5.5093201e-9, 2.3102542e-9, 9.0666771e+1
-0.172, 5.6083729e-9, 2.2599289e-9, 9.1000107e+1
-0.173, 5.7289937e-9, 2.2199882e-9, 9.1333443e+1
-0.174, 5.7825145e-9, 2.2072073e-9, 9.1666779e+1
-0.175, 5.8647922e-9, 2.1456987e-9, 9.2000114e+1
-0.176, 5.9111231e-9, 2.0865865e-9, 9.2333450e+1
-0.177, 6.0221579e-9, 2.0266757e-9, 9.2666786e+1
-0.178, 6.0796723e-9, 1.9683624e-9, 9.3000122e+1
-0.179, 6.1635479e-9, 1.8988657e-9, 9.3333458e+1
-0.180, 6.2777779e-9, 1.7966177e-9, 9.3666794e+1
-0.181, 6.3528662e-9, 1.6720030e-9, 9.4000130e+1
-0.182, 6.4183689e-9, 1.5873288e-9, 9.4333466e+1
-0.183, 6.5365930e-9, 1.4762939e-9, 9.4666801e+1
-0.184, 6.5861196e-9, 1.3380994e-9, 9.5000137e+1
-0.185, 6.6604087e-9, 1.2238692e-9, 9.5333473e+1
-0.186, 6.7259114e-9, 1.0808818e-9, 9.5666809e+1
-0.187, 6.8017991e-9, 9.1712526e-10, 9.6000145e+1
-0.188, 6.8601125e-9, 7.2141626e-10, 9.6333481e+1
-0.189, 6.9312063e-9, 5.9120980e-10, 9.6666817e+1
-0.190, 7.0462352e-9, 4.2266041e-10, 9.7000153e+1
-0.191, 7.1261166e-9, 2.2295732e-10, 9.7333488e+1
-0.192, 7.2539268e-9, 5.8401964e-11, 9.7666824e+1
-0.193, 7.4304638e-9, -1.6047262e-10, 9.8000160e+1
-0.194, 7.5566762e-9, -2.6431823e-10, 9.8333496e+1
-0.195, 7.7443971e-9, -4.1369616e-10, 9.8666832e+1
-0.196, 8.1382110e-9, -5.1274890e-10, 9.9000168e+1
-0.197, 8.4449558e-9, -6.1339928e-10, 9.9333504e+1
-0.198, 8.8811065e-9, -7.0765910e-10, 9.9666840e+1
-0.199, 9.3172590e-9, -7.8114981e-10, 1.0000018e+2
-0.200, 9.7685877e-9, -9.0097169e-10, 1.0033351e+2
-0.201, 1.0219119e-8, -1.0615330e-9, 1.0066685e+2
-0.202, 1.0624117e-8, -1.2276860e-9, 1.0100018e+2
-0.203, 1.1007546e-8, -1.4050223e-9, 1.0133352e+2
-0.204, 1.1227219e-8, -1.6238969e-9, 1.0166685e+2
-0.205, 1.1560324e-8, -1.8363810e-9, 1.0200019e+2
-0.206, 1.1785589e-8, -2.0872082e-9, 1.0233353e+2
-0.207, 1.2046002e-8, -2.4402831e-9, 1.0266686e+2
-0.208, 1.2574816e-8, -2.9986531e-9, 1.0300020e+2
-0.209, 1.3353658e-8, -3.7495367e-9, 1.0333353e+2
-0.210, 1.4290666e-8, -4.5076098e-9, 1.0366687e+2
-0.211, 1.5004005e-8, -5.1394702e-9, 1.0400021e+2
-0.212, 1.5723735e-8, -5.5308882e-9, 1.0433354e+2
-0.213, 1.6222993e-8, -5.7984901e-9, 1.0466688e+2
-0.214, 1.6589647e-8, -6.1595538e-9, 1.0500021e+2
-0.215, 1.6940325e-8, -6.5645516e-9, 1.0533355e+2
-0.216, 1.7735942e-8, -6.9751409e-9, 1.0566689e+2
-0.217, 1.9069160e-8, -7.7683620e-9, 1.0600022e+2
-0.218, 2.0382409e-8, -9.0704262e-9, 1.0633356e+2
-0.219, 2.1206784e-8, -1.0089710e-8, 1.0666689e+2
-0.220, 2.1680478e-8, -1.0595359e-8, 1.0700023e+2
-0.221, 2.2888281e-8, -1.1176894e-8, 1.0733356e+2
-0.222, 2.4840579e-8, -1.2073960e-8, 1.0766690e+2
-0.223, 2.6063562e-8, -1.3355255e-8, 1.0800024e+2
-0.224, 2.6859977e-8, -1.4882585e-8, 1.0833357e+2
-0.225, 2.8217958e-8, -1.5602314e-8, 1.0866691e+2
-0.226, 3.0066410e-8, -1.6423494e-8, 1.0900024e+2
-0.227, 3.1247854e-8, -1.7488309e-8, 1.0933358e+2
-0.228, 3.2843879e-8, -1.9741760e-8, 1.0966692e+2
-0.229, 3.5184403e-8, -2.0695543e-8, 1.1000025e+2
-0.230, 3.6341081e-8, -2.1856216e-8, 1.1033359e+2
-0.231, 3.8576161e-8, -2.4412415e-8, 1.1066692e+2
-0.232, 4.0855969e-8, -2.5716078e-8, 1.1100026e+2
-0.233, 4.2565429e-8, -2.7016545e-8, 1.1133360e+2
-0.234, 4.5580947e-8, -2.9787625e-8, 1.1166693e+2
-0.235, 4.7178570e-8, -3.0982648e-8, 1.1200027e+2
-0.236, 5.0412961e-8, -3.3533258e-8, 1.1233360e+2
-0.237, 5.2361266e-8, -3.5412061e-8, 1.1266694e+2
-0.238, 5.5627606e-8, -3.7455425e-8, 1.1300027e+2
-0.239, 5.8402684e-8, -4.0180975e-8, 1.1333361e+2
-0.240, 6.0975658e-8, -4.2563034e-8, 1.1366695e+2
-0.241, 6.5063176e-8, -4.5331717e-8, 1.1400028e+2
-0.242, 6.7549088e-8, -4.7996554e-8, 1.1433362e+2
-0.243, 7.0610135e-8, -5.0578315e-8, 1.1466695e+2
-0.244, 7.4633753e-8, -5.4179363e-8, 1.1500029e+2
-0.245, 7.7777877e-8, -5.6276242e-8, 1.1533363e+2
-0.246, 8.1267089e-8, -5.9901254e-8, 1.1566696e+2
-0.247, 8.5223604e-8, -6.3645288e-8, 1.1600030e+2
-0.248, 8.9399798e-8, -6.6267788e-8, 1.1633363e+2
-0.249, 9.3333952e-8, -6.9696291e-8, 1.1666697e+2
-0.250, 9.6719319e-8, -7.3642425e-8, 1.1700031e+2
-0.251, 1.0085636e-7, -7.6178658e-8, 1.1733364e+2
-0.252, 1.0532572e-7, -7.9996980e-8, 1.1766698e+2
-0.253, 1.0949472e-7, -8.4024592e-8, 1.1800031e+2
-0.254, 1.1402958e-7, -8.7573717e-8, 1.1833365e+2
-0.255, 1.1851890e-7, -9.0642750e-8, 1.1866698e+2
-0.256, 1.2327664e-7, -9.4431520e-8, 1.1900032e+2
-0.257, 1.2727709e-7, -9.8656436e-8, 1.1933366e+2
-0.258, 1.3139656e-7, -1.0283343e-7, 1.1966699e+2
-0.259, 1.3533950e-7, -1.0628669e-7, 1.2000033e+2
-0.260, 1.3969301e-7, -1.0963532e-7, 1.2033366e+2
-0.261, 1.4423348e-7, -1.1368849e-7, 1.2066700e+2
-0.262, 1.4859418e-7, -1.1794216e-7, 1.2100034e+2
-0.263, 1.5305635e-7, -1.2199374e-7, 1.2133367e+2
-0.264, 1.5660707e-7, -1.2506678e-7, 1.2166701e+2
-0.265, 1.6014262e-7, -1.2894181e-7, 1.2200034e+2
-0.266, 1.6385390e-7, -1.3304771e-7, 1.2233368e+2
-0.267, 1.6817468e-7, -1.3674061e-7, 1.2266702e+2
-0.268, 1.7225182e-7, -1.3918738e-7, 1.2300035e+2
-0.269, 1.7468740e-7, -1.4318942e-7, 1.2333369e+2
-0.270, 1.7841865e-7, -1.4659557e-7, 1.2366702e+2
-0.271, 1.8258766e-7, -1.4903515e-7, 1.2400036e+2
-0.272, 1.8521895e-7, -1.5261622e-7, 1.2433369e+2
-0.273, 1.8826800e-7, -1.5503022e-7, 1.2466703e+2
-0.274, 1.9208473e-7, -1.5802496e-7, 1.2500037e+2
-0.275, 1.9428067e-7, -1.6129052e-7, 1.2533370e+2
-0.276, 1.9769161e-7, -1.6342494e-7, 1.2566704e+2
-0.277, 2.0088204e-7, -1.6650196e-7, 1.2600037e+2
-0.278, 2.0287429e-7, -1.6817468e-7, 1.2633371e+2
-0.279, 2.0610149e-7, -1.7116622e-7, 1.2666705e+2
-0.280, 2.0786368e-7, -1.7276226e-7, 1.2700038e+2
-0.281, 2.1111404e-7, -1.7517067e-7, 1.2733372e+2
-0.282, 2.1265096e-7, -1.7717730e-7, 1.2766705e+2
-0.283, 2.1528145e-7, -1.7860317e-7, 1.2800038e+2
-0.284, 2.1725852e-7, -1.8148928e-7, 1.2833371e+2
-0.285, 2.1912133e-7, -1.8293913e-7, 1.2866704e+2
-0.286, 2.2183012e-7, -1.8458229e-7, 1.2900037e+2
-0.287, 2.2280146e-7, -1.8658412e-7, 1.2933369e+2
-0.288, 2.2482804e-7, -1.8743086e-7, 1.2966702e+2
-0.289, 2.2674121e-7, -1.8854520e-7, 1.3000035e+2
-0.290, 2.2749050e-7, -1.9090329e-7, 1.3033368e+2
-0.291, 2.2935014e-7, -1.9189062e-7, 1.3066701e+2
-0.292, 2.3095974e-7, -1.9283321e-7, 1.3100034e+2
-0.293, 2.3192150e-7, -1.9533191e-7, 1.3133366e+2
-0.294, 2.3241039e-7, -1.9635917e-7, 1.3166699e+2
-0.295, 2.3351593e-7, -1.9704935e-7, 1.3200032e+2
-0.296, 2.3488110e-7, -1.9792644e-7, 1.3233365e+2
-0.297, 2.3600663e-7, -1.9940666e-7, 1.3266698e+2
-0.298, 2.3670719e-7, -2.0108736e-7, 1.3300031e+2
-0.299, 2.3697478e-7, -2.0173678e-7, 1.3333363e+2
-0.300, 2.3762104e-7, -2.0242136e-7, 1.3366696e+2
-0.301, 2.3831120e-7, -2.0286072e-7, 1.3400029e+2
-0.302, 2.3962446e-7, -2.0397586e-7, 1.3433362e+2
-0.303, 2.4039372e-7, -2.0554313e-7, 1.3466695e+2
-0.304, 2.4087220e-7, -2.0629480e-7, 1.3500027e+2
-0.305, 2.4131873e-7, -2.0675093e-7, 1.3533360e+2
-0.306, 2.4158552e-7, -2.0725896e-7, 1.3566693e+2
-0.307, 2.4181719e-7, -2.0765039e-7, 1.3600026e+2
-0.308, 2.4203925e-7, -2.0833657e-7, 1.3633359e+2
-0.309, 2.4227492e-7, -2.0962585e-7, 1.3666692e+2
-0.310, 2.4275900e-7, -2.1059560e-7, 1.3700024e+2
-0.311, 2.4334292e-7, -2.1102137e-7, 1.3733357e+2
-0.312, 2.4401072e-7, -2.1125862e-7, 1.3766690e+2
-0.313, 2.4475602e-7, -2.1149268e-7, 1.3800023e+2
-0.314, 2.4534793e-7, -2.1173632e-7, 1.3833356e+2
-0.315, 2.4580726e-7, -2.1201751e-7, 1.3866689e+2
-0.316, 2.4613317e-7, -2.1221160e-7, 1.3900021e+2
-0.317, 2.4641437e-7, -2.1229867e-7, 1.3933354e+2
-0.318, 2.4658848e-7, -2.1244327e-7, 1.3966687e+2
-0.319, 2.4669075e-7, -2.1264697e-7, 1.4000020e+2
-0.320, 2.4679059e-7, -2.1293853e-7, 1.4033353e+2
-0.321, 2.4688165e-7, -2.1342900e-7, 1.4066685e+2
-0.322, 2.4698153e-7, -2.1400655e-7, 1.4100018e+2
-0.323, 2.4699750e-7, -2.1468153e-7, 1.4133351e+2
-0.324, 2.4721078e-7, -2.1536532e-7, 1.4166684e+2
-0.325, 2.4731781e-7, -2.1569124e-7, 1.4200017e+2
-0.326, 2.4747439e-7, -2.1587496e-7, 1.4233350e+2
-0.327, 2.4771003e-7, -2.1604751e-7, 1.4266682e+2
-0.328, 2.4800320e-7, -2.1614736e-7, 1.4300015e+2
-0.329, 2.4836348e-7, -2.1624722e-7, 1.4333348e+2
-0.330, 2.4884196e-7, -2.1631591e-7, 1.4366681e+2
-0.331, 2.4934602e-7, -2.1635026e-7, 1.4400014e+2
-0.332, 2.4989558e-7, -2.1631990e-7, 1.4433347e+2
-0.333, 2.5029897e-7, -2.1625439e-7, 1.4466679e+2
-0.334, 2.5073993e-7, -2.1617691e-7, 1.4500012e+2
-0.335, 2.5111137e-7, -2.1612578e-7, 1.4533345e+2
-0.336, 2.5135981e-7, -2.1611861e-7, 1.4566678e+2
-0.337, 2.5156430e-7, -2.1620647e-7, 1.4600011e+2
-0.338, 2.5167296e-7, -2.1634307e-7, 1.4633344e+2
-0.339, 2.5179835e-7, -2.1650123e-7, 1.4666676e+2
-0.340, 2.5195413e-7, -2.1668416e-7, 1.4700009e+2
-0.341, 2.5206677e-7, -2.1680080e-7, 1.4733342e+2
-0.342, 2.5222812e-7, -2.1691501e-7, 1.4766675e+2
-0.343, 2.5248772e-7, -2.1700528e-7, 1.4800008e+2
-0.344, 2.5264990e-7, -2.1709634e-7, 1.4833340e+2
-0.345, 2.5292150e-7, -2.1719300e-7, 1.4866673e+2
-0.346, 2.5312758e-7, -2.1737513e-7, 1.4900006e+2
-0.347, 2.5332167e-7, -2.1751173e-7, 1.4933339e+2
-0.348, 2.5358452e-7, -2.1770504e-7, 1.4966672e+2
-0.349, 2.5354217e-7, -2.1794230e-7, 1.5000005e+2
-0.350, 2.5371230e-7, -2.1832972e-7, 1.5033337e+2
-0.351, 2.5374905e-7, -2.1863247e-7, 1.5066670e+2
-0.352, 2.5377702e-7, -2.1899113e-7, 1.5100003e+2
-0.353, 2.5395354e-7, -2.1937775e-7, 1.5133336e+2
-0.354, 2.5409093e-7, -2.1969170e-7, 1.5166669e+2
-0.355, 2.5417083e-7, -2.1991696e-7, 1.5200002e+2
-0.356, 2.5438652e-7, -2.2033633e-7, 1.5233334e+2
-0.357, 2.5461497e-7, -2.2037707e-7, 1.5266667e+2
-0.358, 2.5468287e-7, -2.2046015e-7, 1.5300000e+2
-0.359, 2.5488814e-7, -2.2054562e-7, 1.5333333e+2
-0.360, 2.5504312e-7, -2.2067343e-7, 1.5366666e+2
-0.361, 2.5520529e-7, -2.2080285e-7, 1.5399998e+2
-0.362, 2.5537304e-7, -2.2086995e-7, 1.5433331e+2
-0.363, 2.5543054e-7, -2.2094024e-7, 1.5466664e+2
-0.364, 2.5555758e-7, -2.2102570e-7, 1.5499997e+2
-0.365, 2.5570213e-7, -2.2107683e-7, 1.5533330e+2
-0.366, 2.5591461e-7, -2.2113673e-7, 1.5566663e+2
-0.367, 2.5615188e-7, -2.2118387e-7, 1.5599995e+2
-0.368, 2.5625570e-7, -2.2116470e-7, 1.5633328e+2
-0.369, 2.5637954e-7, -2.2123420e-7, 1.5666661e+2
-0.370, 2.5642589e-7, -2.2130050e-7, 1.5699994e+2
-0.371, 2.5644343e-7, -2.2145547e-7, 1.5733327e+2
-0.372, 2.5649459e-7, -2.2165676e-7, 1.5766660e+2
-0.373, 2.5645704e-7, -2.2178058e-7, 1.5799992e+2
-0.374, 2.5645224e-7, -2.2195073e-7, 1.5833325e+2
-0.375, 2.5648660e-7, -2.2211928e-7, 1.5866658e+2
-0.376, 2.5650257e-7, -2.2228384e-7, 1.5899991e+2
-0.377, 2.5652972e-7, -2.2243401e-7, 1.5933324e+2
-0.378, 2.5652412e-7, -2.2258739e-7, 1.5966656e+2
-0.379, 2.5655686e-7, -2.2287017e-7, 1.5999989e+2
-0.380, 2.5658883e-7, -2.2328715e-7, 1.6033322e+2
-0.381, 2.5667751e-7, -2.2400128e-7, 1.6066655e+2
-0.382, 2.5686523e-7, -2.2429845e-7, 1.6099988e+2
-0.383, 2.5689639e-7, -2.2433439e-7, 1.6133321e+2
-0.384, 2.5699782e-7, -2.2441905e-7, 1.6166653e+2
-0.385, 2.5713842e-7, -2.2465071e-7, 1.6199986e+2
-0.386, 2.5741321e-7, -2.2486479e-7, 1.6233319e+2
-0.387, 2.5757299e-7, -2.2508047e-7, 1.6266652e+2
-0.388, 2.5793403e-7, -2.2526660e-7, 1.6299985e+2
-0.389, 2.5846765e-7, -2.2553020e-7, 1.6333318e+2
-0.390, 2.5853154e-7, -2.2559890e-7, 1.6366650e+2
-0.391, 2.5869130e-7, -2.2565882e-7, 1.6399983e+2
-0.392, 2.5884947e-7, -2.2577224e-7, 1.6433316e+2
-0.393, 2.5949890e-7, -2.2586970e-7, 1.6466649e+2
-0.394, 2.5959957e-7, -2.2591604e-7, 1.6499982e+2
-0.395, 2.5975453e-7, -2.2594560e-7, 1.6533315e+2
-0.396, 2.6004048e-7, -2.2601428e-7, 1.6566647e+2
-0.397, 2.6026657e-7, -2.2601988e-7, 1.6599980e+2
-0.398, 2.6059806e-7, -2.2608060e-7, 1.6633313e+2
-0.399, 2.6088725e-7, -2.2600710e-7, 1.6666646e+2
-0.400, 2.6113008e-7, -2.2596157e-7, 1.6699979e+2
-0.401, 2.6140887e-7, -2.2588966e-7, 1.6733311e+2
-0.402, 2.6166290e-7, -2.2595837e-7, 1.6766644e+2
-0.403, 2.6220050e-7, -2.2585931e-7, 1.6799977e+2
-0.404, 2.6219729e-7, -2.2593521e-7, 1.6833310e+2
-0.405, 2.6233229e-7, -2.2604225e-7, 1.6866643e+2
-0.406, 2.6221406e-7, -2.2618843e-7, 1.6899976e+2
-0.407, 2.6229316e-7, -2.2640491e-7, 1.6933308e+2
-0.408, 2.6224924e-7, -2.2657026e-7, 1.6966641e+2
-0.409, 2.6232192e-7, -2.2665414e-7, 1.6999974e+2
-0.410, 2.6231552e-7, -2.2676676e-7, 1.7033307e+2
-0.411, 2.6232672e-7, -2.2687301e-7, 1.7066640e+2
-0.412, 2.6245451e-7, -2.2700243e-7, 1.7099973e+2
-0.413, 2.6255196e-7, -2.2724366e-7, 1.7133305e+2
-0.414, 2.6280199e-7, -2.2727960e-7, 1.7166638e+2
-0.415, 2.6286031e-7, -2.2734271e-7, 1.7199971e+2
-0.416, 2.6308240e-7, -2.2733632e-7, 1.7233304e+2
-0.417, 2.6306560e-7, -2.2740421e-7, 1.7266637e+2
-0.418, 2.6314069e-7, -2.2765026e-7, 1.7299969e+2
-0.419, 2.6346422e-7, -2.2776608e-7, 1.7333302e+2
-0.420, 2.6338910e-7, -2.2788910e-7, 1.7366635e+2
-0.421, 2.6341786e-7, -2.2805285e-7, 1.7399968e+2
-0.422, 2.6345623e-7, -2.2835081e-7, 1.7433301e+2
-0.423, 2.6352174e-7, -2.2863519e-7, 1.7466634e+2
-0.424, 2.6378615e-7, -2.2913446e-7, 1.7499966e+2
-0.425, 2.6387559e-7, -2.2917358e-7, 1.7533299e+2
-0.426, 2.6369824e-7, -2.2942442e-7, 1.7566632e+2
-0.427, 2.6393471e-7, -2.2965688e-7, 1.7599965e+2
-0.428, 2.6402097e-7, -2.2994206e-7, 1.7633298e+2
-0.429, 2.6418712e-7, -2.2998678e-7, 1.7666631e+2
-0.430, 2.6432531e-7, -2.3003950e-7, 1.7699963e+2
-0.431, 2.6453782e-7, -2.3015214e-7, 1.7733296e+2
-0.432, 2.6477028e-7, -2.3013376e-7, 1.7766629e+2
-0.433, 2.6493640e-7, -2.3010979e-7, 1.7799962e+2
-0.434, 2.6514172e-7, -2.3009622e-7, 1.7833295e+2
-0.435, 2.6519524e-7, -2.3006028e-7, 1.7866628e+2
-0.436, 2.6533263e-7, -2.3016251e-7, 1.7899960e+2
-0.437, 2.6554670e-7, -2.3029992e-7, 1.7933293e+2
-0.438, 2.6552036e-7, -2.3039098e-7, 1.7966626e+2
-0.439, 2.6551794e-7, -2.3046766e-7, 1.7999959e+2
-0.440, 2.6555151e-7, -2.3054436e-7, 1.8033292e+2
-0.441, 2.6554591e-7, -2.3072968e-7, 1.8066624e+2
-0.442, 2.6575202e-7, -2.3068814e-7, 1.8099957e+2
-0.443, 2.6575600e-7, -2.3077361e-7, 1.8133290e+2
-0.444, 2.6583987e-7, -2.3078081e-7, 1.8166623e+2
-0.445, 2.6580392e-7, -2.3077202e-7, 1.8199956e+2
-0.446, 2.6577197e-7, -2.3080318e-7, 1.8233289e+2
-0.447, 2.6583507e-7, -2.3090142e-7, 1.8266621e+2
-0.448, 2.6590376e-7, -2.3093577e-7, 1.8299954e+2
-0.449, 2.6580474e-7, -2.3103323e-7, 1.8333287e+2
-0.450, 2.6584067e-7, -2.3112268e-7, 1.8366620e+2
-0.451, 2.6575520e-7, -2.3113628e-7, 1.8399953e+2
-0.452, 2.6579914e-7, -2.3120896e-7, 1.8433286e+2
-0.453, 2.6585187e-7, -2.3132878e-7, 1.8466618e+2
-0.454, 2.6593494e-7, -2.3124890e-7, 1.8499951e+2
-0.455, 2.6601242e-7, -2.3127207e-7, 1.8533284e+2
-0.456, 2.6607395e-7, -2.3120337e-7, 1.8566617e+2
-0.457, 2.6617619e-7, -2.3112669e-7, 1.8599950e+2
-0.458, 2.6625764e-7, -2.3139829e-7, 1.8633282e+2
-0.459, 2.6649090e-7, -2.3111791e-7, 1.8666615e+2
-0.460, 2.6659475e-7, -2.3096773e-7, 1.8699948e+2
-0.461, 2.6686476e-7, -2.3085191e-7, 1.8733281e+2
-0.462, 2.6729290e-7, -2.3075205e-7, 1.8766614e+2
-0.463, 2.6790639e-7, -2.3064980e-7, 1.8799947e+2
-0.464, 2.6850950e-7, -2.3051400e-7, 1.8833279e+2
-0.465, 2.6941936e-7, -2.3035982e-7, 1.8866612e+2
-0.466, 2.6981556e-7, -2.3007944e-7, 1.8899945e+2
-0.467, 2.7013189e-7, -2.2966486e-7, 1.8933278e+2
-0.468, 2.7048816e-7, -2.2922552e-7, 1.8966611e+2
-0.469, 2.7073980e-7, -2.2888283e-7, 1.8999944e+2
-0.470, 2.7091954e-7, -2.2868232e-7, 1.9033276e+2
-0.471, 2.7118551e-7, -2.2847463e-7, 1.9066609e+2
-0.472, 2.7132373e-7, -2.2810637e-7, 1.9099942e+2
-0.473, 2.7166641e-7, -2.2775011e-7, 1.9133275e+2
-0.474, 2.7235259e-7, -2.2747930e-7, 1.9166608e+2
-0.475, 2.7329438e-7, -2.2711505e-7, 1.9199940e+2
-0.476, 2.7419946e-7, -2.2692494e-7, 1.9233273e+2
-0.477, 2.7463639e-7, -2.2677396e-7, 1.9266606e+2
-0.478, 2.7484967e-7, -2.2675638e-7, 1.9299939e+2
-0.479, 2.7494633e-7, -2.2694731e-7, 1.9333272e+2
-0.480, 2.7471629e-7, -2.2692254e-7, 1.9366605e+2
-0.481, 2.7467712e-7, -2.2704636e-7, 1.9399937e+2
-0.482, 2.7437679e-7, -2.2721490e-7, 1.9433270e+2
-0.483, 2.7410280e-7, -2.2752404e-7, 1.9466603e+2
-0.484, 2.7370260e-7, -2.2796819e-7, 1.9499936e+2
-0.485, 2.7319055e-7, -2.2852895e-7, 1.9533269e+2
-0.486, 2.7261459e-7, -2.2910810e-7, 1.9566602e+2
-0.487, 2.7225673e-7, -2.2966327e-7, 1.9599934e+2
-0.488, 2.7202987e-7, -2.3009382e-7, 1.9633267e+2
-0.489, 2.7183577e-7, -2.3025439e-7, 1.9666600e+2
-0.490, 2.7167439e-7, -2.3039019e-7, 1.9699933e+2
-0.491, 2.7156497e-7, -2.3054835e-7, 1.9733266e+2
-0.492, 2.7150585e-7, -2.3058909e-7, 1.9766599e+2
-0.493, 2.7141161e-7, -2.3069452e-7, 1.9799931e+2
-0.494, 2.7143875e-7, -2.3072249e-7, 1.9833264e+2
-0.495, 2.7138285e-7, -2.3081994e-7, 1.9866597e+2
-0.496, 2.7132214e-7, -2.3081594e-7, 1.9899930e+2
-0.497, 2.7133171e-7, -2.3086866e-7, 1.9933263e+2
-0.498, 2.7129974e-7, -2.3089264e-7, 1.9966595e+2
-0.499, 2.7121428e-7, -2.3087665e-7, 1.9999928e+2
-0.500, 2.7001687e-7, -2.3081276e-7, 2.0033261e+2
-0.499, 2.6953279e-7, -2.3071770e-7, 2.0066594e+2
-0.498, 2.6899122e-7, -2.3064980e-7, 2.0099927e+2
-0.497, 2.6858859e-7, -2.3052040e-7, 2.0133260e+2
-0.496, 2.6804221e-7, -2.3039179e-7, 2.0166592e+2
-0.495, 2.6787126e-7, -2.3042533e-7, 2.0199925e+2
-0.494, 2.6753895e-7, -2.3027755e-7, 2.0233258e+2
-0.493, 2.6710200e-7, -2.2997160e-7, 2.0266591e+2
-0.492, 2.6669861e-7, -2.2967045e-7, 2.0299924e+2
-0.491, 2.6647572e-7, -2.2945318e-7, 2.0333257e+2
-0.490, 2.6636550e-7, -2.2923591e-7, 2.0366589e+2
-0.489, 2.6625605e-7, -2.2904179e-7, 2.0399922e+2
-0.488, 2.6617619e-7, -2.2881173e-7, 2.0433255e+2
-0.487, 2.6603638e-7, -2.2853693e-7, 2.0466588e+2
-0.486, 2.6594773e-7, -2.2840513e-7, 2.0499921e+2
-0.485, 2.6579116e-7, -2.2820942e-7, 2.0533253e+2
-0.484, 2.6593813e-7, -2.2890680e-7, 2.0566586e+2
-0.483, 2.6592056e-7, -2.2794661e-7, 2.0599919e+2
-0.482, 2.6565695e-7, -2.2756159e-7, 2.0633252e+2
-0.481, 2.6548918e-7, -2.2733713e-7, 2.0666585e+2
-0.480, 2.6542767e-7, -2.2714781e-7, 2.0699918e+2
-0.479, 2.6533820e-7, -2.2706153e-7, 2.0733250e+2
-0.478, 2.6530788e-7, -2.2700642e-7, 2.0766583e+2
-0.477, 2.6507860e-7, -2.2693932e-7, 2.0799916e+2
-0.476, 2.6472316e-7, -2.2691934e-7, 2.0833249e+2
-0.475, 2.6432213e-7, -2.2690416e-7, 2.0866582e+2
-0.474, 2.6377018e-7, -2.2690496e-7, 2.0899915e+2
-0.473, 2.6335715e-7, -2.2699682e-7, 2.0933247e+2
-0.472, 2.6277564e-7, -2.2699844e-7, 2.0966580e+2
-0.471, 2.6228037e-7, -2.2695049e-7, 2.0999913e+2
-0.470, 2.6187936e-7, -2.2699763e-7, 2.1033246e+2
-0.469, 2.6158142e-7, -2.2695929e-7, 2.1066579e+2
-0.468, 2.6137454e-7, -2.2697526e-7, 2.1099911e+2
-0.467, 2.6121077e-7, -2.2696408e-7, 2.1133244e+2
-0.466, 2.6096714e-7, -2.2698406e-7, 2.1166577e+2
-0.465, 2.6069475e-7, -2.2707830e-7, 2.1199910e+2
-0.464, 2.6057489e-7, -2.2707830e-7, 2.1233243e+2
-0.463, 2.6029852e-7, -2.2700321e-7, 2.1266576e+2
-0.462, 2.6013794e-7, -2.2694012e-7, 2.1299908e+2
-0.461, 2.5993347e-7, -2.2685623e-7, 2.1333241e+2
-0.460, 2.5969140e-7, -2.2710148e-7, 2.1366574e+2
-0.459, 2.5951087e-7, -2.2683707e-7, 2.1399907e+2
-0.458, 2.5906115e-7, -2.2679711e-7, 2.1433240e+2
-0.457, 2.5850838e-7, -2.2682269e-7, 2.1466573e+2
-0.456, 2.5802510e-7, -2.2687621e-7, 2.1499905e+2
-0.455, 2.5754261e-7, -2.2676439e-7, 2.1533238e+2
-0.454, 2.5728221e-7, -2.2675559e-7, 2.1566571e+2
-0.453, 2.5698185e-7, -2.2668769e-7, 2.1599904e+2
-0.452, 2.5678452e-7, -2.2660861e-7, 2.1633237e+2
-0.451, 2.5668069e-7, -2.2652793e-7, 2.1666570e+2
-0.450, 2.5659284e-7, -2.2644724e-7, 2.1699902e+2
-0.449, 2.5653372e-7, -2.2637296e-7, 2.1733235e+2
-0.448, 2.5653452e-7, -2.2624356e-7, 2.1766568e+2
-0.447, 2.5647063e-7, -2.2612294e-7, 2.1799901e+2
-0.446, 2.5644744e-7, -2.2602947e-7, 2.1833234e+2
-0.445, 2.5643706e-7, -2.2596636e-7, 2.1866566e+2
-0.444, 2.5642188e-7, -2.2588966e-7, 2.1899899e+2
-0.443, 2.5649857e-7, -2.2579621e-7, 2.1933232e+2
-0.442, 2.5648498e-7, -2.2565561e-7, 2.1966565e+2
-0.441, 2.5646264e-7, -2.2544234e-7, 2.1999898e+2
-0.440, 2.5644263e-7, -2.2517553e-7, 2.2033231e+2
-0.439, 2.5645303e-7, -2.2482965e-7, 2.2066563e+2
-0.438, 2.5647063e-7, -2.2473380e-7, 2.2099896e+2
-0.437, 2.5644744e-7, -2.2434557e-7, 2.2133229e+2
-0.436, 2.5638116e-7, -2.2406040e-7, 2.2166562e+2
-0.435, 2.5636518e-7, -2.2389423e-7, 2.2199895e+2
-0.434, 2.5631644e-7, -2.2362025e-7, 2.2233228e+2
-0.433, 2.5628290e-7, -2.2371451e-7, 2.2266560e+2
-0.432, 2.5617746e-7, -2.2344132e-7, 2.2299893e+2
-0.431, 2.5605524e-7, -2.2327755e-7, 2.2333226e+2
-0.430, 2.5589628e-7, -2.2329193e-7, 2.2366559e+2
-0.429, 2.5567579e-7, -2.2332948e-7, 2.2399892e+2
-0.428, 2.5542656e-7, -2.2353957e-7, 2.2433224e+2
-0.427, 2.5505989e-7, -2.2423933e-7, 2.2466557e+2
-0.426, 2.5518131e-7, -2.2436873e-7, 2.2499890e+2
-0.425, 2.5422196e-7, -2.2438870e-7, 2.2533223e+2
-0.424, 2.5361166e-7, -2.2443425e-7, 2.2566556e+2
-0.423, 2.5300537e-7, -2.2462116e-7, 2.2599889e+2
-0.422, 2.5249014e-7, -2.2470503e-7, 2.2633221e+2
-0.421, 2.5216423e-7, -2.2483843e-7, 2.2666554e+2
-0.420, 2.5190062e-7, -2.2504453e-7, 2.2699887e+2
-0.419, 2.5180873e-7, -2.2505651e-7, 2.2733220e+2
-0.418, 2.5168094e-7, -2.2497423e-7, 2.2766553e+2
-0.417, 2.5160665e-7, -2.2493430e-7, 2.2799886e+2
-0.416, 2.5153236e-7, -2.2484083e-7, 2.2833218e+2
-0.415, 2.5139977e-7, -2.2471463e-7, 2.2866551e+2
-0.414, 2.5125277e-7, -2.2472261e-7, 2.2899884e+2
-0.413, 2.5117049e-7, -2.2457243e-7, 2.2933217e+2
-0.412, 2.5096361e-7, -2.2436394e-7, 2.2966550e+2
-0.411, 2.5083099e-7, -2.2396773e-7, 2.2999883e+2
-0.410, 2.5066961e-7, -2.2361067e-7, 2.3033215e+2
-0.409, 2.5052987e-7, -2.2331589e-7, 2.3066548e+2
-0.408, 2.5028700e-7, -2.2306028e-7, 2.3099881e+2
-0.407, 2.5001142e-7, -2.2292927e-7, 2.3133214e+2
-0.406, 2.4960241e-7, -2.2286856e-7, 2.3166547e+2
-0.405, 2.4922537e-7, -2.2265849e-7, 2.3199879e+2
-0.404, 2.4891864e-7, -2.2254825e-7, 2.3233212e+2
-0.403, 2.4856718e-7, -2.2238848e-7, 2.3266545e+2
-0.402, 2.4833312e-7, -2.2226787e-7, 2.3299878e+2
-0.401, 2.4834910e-7, -2.2213366e-7, 2.3333211e+2
-0.400, 2.4826122e-7, -2.2196112e-7, 2.3366544e+2
-0.399, 2.4826920e-7, -2.2172387e-7, 2.3399876e+2
-0.398, 2.4851605e-7, -2.2147704e-7, 2.3433209e+2
-0.397, 2.4861907e-7, -2.2126375e-7, 2.3466542e+2
-0.396, 2.4876925e-7, -2.2107764e-7, 2.3499875e+2
-0.395, 2.4915349e-7, -2.2086115e-7, 2.3533208e+2
-0.394, 2.4946343e-7, -2.2058396e-7, 2.3566541e+2
-0.393, 2.4968151e-7, -2.2028520e-7, 2.3599873e+2
-0.392, 2.4996586e-7, -2.1997687e-7, 2.3633206e+2
-0.391, 2.5016396e-7, -2.1949998e-7, 2.3666539e+2
-0.390, 2.5000182e-7, -2.1921399e-7, 2.3699872e+2
-0.389, 2.4991874e-7, -2.1898474e-7, 2.3733205e+2
-0.388, 2.4982609e-7, -2.1871394e-7, 2.3766537e+2
-0.387, 2.4970308e-7, -2.1839442e-7, 2.3799870e+2
-0.386, 2.4936438e-7, -2.1826581e-7, 2.3833203e+2
-0.385, 2.4924614e-7, -2.1814519e-7, 2.3866536e+2
-0.384, 2.4909838e-7, -2.1793591e-7, 2.3899869e+2
-0.383, 2.4892583e-7, -2.1779931e-7, 2.3933202e+2
-0.382, 2.4902090e-7, -2.1769546e-7, 2.3966534e+2
-0.381, 2.4864943e-7, -2.1756844e-7, 2.3999867e+2
-0.380, 2.4835549e-7, -2.1743584e-7, 2.4033200e+2
-0.379, 2.4796486e-7, -2.1736075e-7, 2.4066533e+2
-0.378, 2.4756227e-7, -2.1732241e-7, 2.4099866e+2
-0.377, 2.4743844e-7, -2.1732721e-7, 2.4133199e+2
-0.376, 2.4714129e-7, -2.1728167e-7, 2.4166531e+2
-0.375, 2.4695277e-7, -2.1722816e-7, 2.4199864e+2
-0.374, 2.4683052e-7, -2.1723375e-7, 2.4233197e+2
-0.373, 2.4668037e-7, -2.1720739e-7, 2.4266530e+2
-0.372, 2.4659968e-7, -2.1699650e-7, 2.4299863e+2
-0.371, 2.4651342e-7, -2.1688786e-7, 2.4333195e+2
-0.370, 2.4651820e-7, -2.1668976e-7, 2.4366528e+2
-0.369, 2.4657012e-7, -2.1647887e-7, 2.4399861e+2
-0.368, 2.4660767e-7, -2.1630153e-7, 2.4433194e+2
-0.367, 2.4668356e-7, -2.1616253e-7, 2.4466527e+2
-0.366, 2.4676584e-7, -2.1595564e-7, 2.4499860e+2
-0.365, 2.4681617e-7, -2.1579189e-7, 2.4533192e+2
-0.364, 2.4681617e-7, -2.1571680e-7, 2.4566525e+2
-0.363, 2.4678181e-7, -2.1559619e-7, 2.4599858e+2
-0.362, 2.4667477e-7, -2.1551071e-7, 2.4633191e+2
-0.361, 2.4659647e-7, -2.1556262e-7, 2.4666524e+2
-0.360, 2.4649424e-7, -2.1561534e-7, 2.4699857e+2
-0.359, 2.4632570e-7, -2.1572878e-7, 2.4733189e+2
-0.358, 2.4608127e-7, -2.1575674e-7, 2.4766522e+2
-0.357, 2.4588473e-7, -2.1581904e-7, 2.4799855e+2
-0.356, 2.4564991e-7, -2.1590371e-7, 2.4833188e+2
-0.355, 2.4550530e-7, -2.1589014e-7, 2.4866521e+2
-0.354, 2.4521773e-7, -2.1585579e-7, 2.4899854e+2
-0.353, 2.4501404e-7, -2.1588296e-7, 2.4933186e+2
-0.352, 2.4494935e-7, -2.1582784e-7, 2.4966519e+2
-0.351, 2.4438538e-7, -2.1574476e-7, 2.4999852e+2
-0.350, 2.4409141e-7, -2.1571040e-7, 2.5033185e+2
-0.349, 2.4381981e-7, -2.1566807e-7, 2.5066518e+2
-0.348, 2.4362569e-7, -2.1562732e-7, 2.5099850e+2
-0.347, 2.4303540e-7, -2.1555704e-7, 2.5133183e+2
-0.346, 2.4269428e-7, -2.1555064e-7, 2.5166516e+2
-0.345, 2.4242507e-7, -2.1560496e-7, 2.5199849e+2
-0.344, 2.4228930e-7, -2.1564330e-7, 2.5233182e+2
-0.343, 2.4203447e-7, -2.1557700e-7, 2.5266515e+2
-0.342, 2.4186753e-7, -2.1554025e-7, 2.5299847e+2
-0.341, 2.4175569e-7, -2.1556022e-7, 2.5333180e+2
-0.340, 2.4158953e-7, -2.1557460e-7, 2.5366513e+2
-0.339, 2.4137145e-7, -2.1559778e-7, 2.5399846e+2
-0.338, 2.4114220e-7, -2.1556022e-7, 2.5433179e+2
-0.337, 2.4091614e-7, -2.1555704e-7, 2.5466512e+2
-0.336, 2.4070204e-7, -2.1545479e-7, 2.5499844e+2
-0.335, 2.4039213e-7, -2.1540765e-7, 2.5533177e+2
-0.334, 2.4009896e-7, -2.1533656e-7, 2.5566510e+2
-0.333, 2.3960609e-7, -2.1530062e-7, 2.5599843e+2
-0.332, 2.3934328e-7, -2.1541963e-7, 2.5633176e+2
-0.331, 2.3866988e-7, -2.1510731e-7, 2.5666510e+2
-0.330, 2.3805399e-7, -2.1498428e-7, 2.5699844e+2
-0.329, 2.3749402e-7, -2.1469273e-7, 2.5733179e+2
-0.328, 2.3728153e-7, -2.1458568e-7, 2.5766513e+2
-0.327, 2.3707705e-7, -2.1457370e-7, 2.5799847e+2
-0.326, 2.3692047e-7, -2.1418947e-7, 2.5833182e+2
-0.325, 2.3673596e-7, -2.1384518e-7, 2.5866516e+2
-0.324, 2.3647394e-7, -2.1361352e-7, 2.5899850e+2
-0.323, 2.3616160e-7, -2.1334752e-7, 2.5933185e+2
-0.322, 2.3577897e-7, -2.1315022e-7, 2.5966519e+2
-0.321, 2.3532284e-7, -2.1293295e-7, 2.5999854e+2
-0.320, 2.3481721e-7, -2.1274201e-7, 2.6033188e+2
-0.319, 2.3417017e-7, -2.1262220e-7, 2.6066522e+2
-0.318, 2.3349277e-7, -2.1237857e-7, 2.6099857e+2
-0.317, 2.3271872e-7, -2.1225475e-7, 2.6133191e+2
-0.316, 2.3232252e-7, -2.1209658e-7, 2.6166525e+2
-0.315, 2.3208847e-7, -2.1186813e-7, 2.6199860e+2
-0.314, 2.3189195e-7, -2.1168280e-7, 2.6233194e+2
-0.313, 2.3165231e-7, -2.1143356e-7, 2.6266528e+2
-0.312, 2.3133038e-7, -2.1127461e-7, 2.6299863e+2
-0.311, 2.3090142e-7, -2.1107169e-7, 2.6333197e+2
-0.310, 2.3038059e-7, -2.1072661e-7, 2.6366531e+2
-0.309, 2.2957060e-7, -2.1021138e-7, 2.6399866e+2
-0.308, 2.2849301e-7, -2.0936544e-7, 2.6433200e+2
-0.307, 2.2773254e-7, -2.0844520e-7, 2.6466534e+2
-0.306, 2.2724048e-7, -2.0780855e-7, 2.6499869e+2
-0.305, 2.2702318e-7, -2.0733566e-7, 2.6533203e+2
-0.304, 2.2671965e-7, -2.0689312e-7, 2.6566537e+2
-0.303, 2.2626671e-7, -2.0640505e-7, 2.6599872e+2
-0.302, 2.2587129e-7, -2.0597928e-7, 2.6633206e+2
-0.301, 2.2521947e-7, -2.0468678e-7, 2.6666541e+2
-0.300, 2.2376403e-7, -2.0308678e-7, 2.6699875e+2
-0.299, 2.2297081e-7, -2.0268418e-7, 2.6733209e+2
-0.298, 2.2252189e-7, -2.0188217e-7, 2.6766544e+2
-0.297, 2.2201463e-7, -2.0120638e-7, 2.6799878e+2
-0.296, 2.2126056e-7, -1.9987395e-7, 2.6833212e+2
-0.295, 2.2006793e-7, -1.9810379e-7, 2.6866547e+2
-0.294, 2.1840479e-7, -1.9725863e-7, 2.6899881e+2
-0.293, 2.1740789e-7, -1.9649578e-7, 2.6933215e+2
-0.292, 2.1668336e-7, -1.9497563e-7, 2.6966550e+2
-0.291, 2.1516561e-7, -1.9305129e-7, 2.6999884e+2
-0.290, 2.1294571e-7, -1.9211988e-7, 2.7033218e+2
-0.289, 2.1212134e-7, -1.9142971e-7, 2.7066553e+2
-0.288, 2.1033919e-7, -1.8959084e-7, 2.7099887e+2
-0.287, 2.0776541e-7, -1.8775039e-7, 2.7133221e+2
-0.286, 2.0648733e-7, -1.8676464e-7, 2.7166556e+2
-0.285, 2.0355009e-7, -1.8509992e-7, 2.7199890e+2
-0.284, 2.0223445e-7, -1.8288401e-7, 2.7233224e+2
-0.283, 1.9938507e-7, -1.8166982e-7, 2.7266559e+2
-0.282, 1.9731456e-7, -1.7891311e-7, 2.7299893e+2
-0.281, 1.9418162e-7, -1.7724039e-7, 2.7333228e+2
-0.280, 1.9219657e-7, -1.7513793e-7, 2.7366562e+2
-0.279, 1.8891345e-7, -1.7280618e-7, 2.7399896e+2
-0.278, 1.8674547e-7, -1.7120297e-7, 2.7433231e+2
-0.277, 1.8325946e-7, -1.6793105e-7, 2.7466565e+2
-0.276, 1.8046680e-7, -1.6560250e-7, 2.7499899e+2
-0.275, 1.7755593e-7, -1.6277870e-7, 2.7533234e+2
-0.274, 1.7350675e-7, -1.5966813e-7, 2.7566568e+2
-0.273, 1.7084831e-7, -1.5722696e-7, 2.7599902e+2
-0.272, 1.6759874e-7, -1.5350530e-7, 2.7633237e+2
-0.271, 1.6360387e-7, -1.5097386e-7, 2.7666571e+2
-0.270, 1.6009869e-7, -1.4755175e-7, 2.7699905e+2
-0.269, 1.5681957e-7, -1.4369428e-7, 2.7733240e+2
-0.268, 1.5314343e-7, -1.4018670e-7, 2.7766574e+2
-0.267, 1.4876593e-7, -1.3721591e-7, 2.7799908e+2
-0.266, 1.4471915e-7, -1.3335764e-7, 2.7833243e+2
-0.265, 1.4048945e-7, -1.2939793e-7, 2.7866577e+2
-0.264, 1.3643228e-7, -1.2590472e-7, 2.7899911e+2
-0.263, 1.3252848e-7, -1.2257128e-7, 2.7933246e+2
-0.262, 1.2814859e-7, -1.1828566e-7, 2.7966580e+2
-0.261, 1.2385657e-7, -1.1402000e-7, 2.7999915e+2
-0.260, 1.1908367e-7, -1.1034306e-7, 2.8033249e+2
-0.259, 1.1432994e-7, -1.0732914e-7, 2.8066583e+2
-0.258, 1.0976233e-7, -1.0330712e-7, 2.8099918e+2
-0.257, 1.0571314e-7, -9.8983953e-8, 2.8133252e+2
-0.256, 1.0178858e-7, -9.4882047e-8, 2.8166586e+2
-0.255, 9.7116327e-8, -9.1381651e-8, 2.8199921e+2
-0.254, 9.3405845e-8, -8.8193588e-8, 2.8233255e+2
-0.253, 8.9181718e-8, -8.4144411e-8, 2.8266589e+2
-0.252, 8.4801030e-8, -8.0151942e-8, 2.8299924e+2
-0.251, 8.0449105e-8, -7.6488590e-8, 2.8333258e+2
-0.250, 7.6252945e-8, -7.3681562e-8, 2.8366592e+2
-0.249, 7.3324493e-8, -6.9671529e-8, 2.8399927e+2
-0.248, 6.9516560e-8, -6.6289360e-8, 2.8433261e+2
-0.247, 6.5746164e-8, -6.3585375e-8, 2.8466595e+2
-0.246, 6.1907869e-8, -5.9807789e-8, 2.8499930e+2
-0.245, 5.9031347e-8, -5.6250681e-8, 2.8533264e+2
-0.244, 5.5602047e-8, -5.4060340e-8, 2.8566599e+2
-0.243, 5.2227861e-8, -5.0403376e-8, 2.8599933e+2
-0.242, 4.9757936e-8, -4.7750518e-8, 2.8633267e+2
-0.241, 4.6286296e-8, -4.5134410e-8, 2.8666602e+2
-0.240, 4.4067196e-8, -4.2355339e-8, 2.8699936e+2
-0.239, 4.1003748e-8, -4.0057156e-8, 2.8733270e+2
-0.238, 3.8414001e-8, -3.7414686e-8, 2.8766605e+2
-0.237, 3.6043922e-8, -3.5344961e-8, 2.8799939e+2
-0.236, 3.4008551e-8, -3.3688224e-8, 2.8833273e+2
-0.235, 3.1306165e-8, -3.1005815e-8, 2.8866608e+2
-0.234, 2.9671797e-8, -2.9889872e-8, 2.8899942e+2
-0.233, 2.7233023e-8, -2.7297729e-8, 2.8933276e+2
-0.232, 2.5961313e-8, -2.5804747e-8, 2.8966611e+2
-0.231, 2.3854845e-8, -2.4636083e-8, 2.8999945e+2
-0.230, 2.1679678e-8, -2.2235652e-8, 2.9033279e+2
-0.229, 2.0792998e-8, -2.0862494e-8, 2.9066614e+2
-0.228, 1.9089130e-8, -2.0022144e-8, 2.9099948e+2
-0.227, 1.7104881e-8, -1.8158515e-8, 2.9133282e+2
-0.226, 1.6392342e-8, -1.6661540e-8, 2.9166617e+2
-0.225, 1.5420186e-8, -1.5860330e-8, 2.9199951e+2
-0.224, 1.3939986e-8, -1.5253233e-8, 2.9233286e+2
-0.223, 1.2267273e-8, -1.4265103e-8, 2.9266620e+2
-0.222, 1.1597070e-8, -1.2875969e-8, 2.9299954e+2
-0.221, 1.0967605e-8, -1.1772009e-8, 2.9333289e+2
-0.220, 9.9714867e-9, -1.0948433e-8, 2.9366623e+2
-0.219, 8.6845997e-9, -1.0462756e-8, 2.9399957e+2
-0.218, 7.5910256e-9, -9.9986455e-9, 2.9433292e+2
-0.217, 7.0893713e-9, -8.9721715e-9, 2.9466626e+2
-0.216, 6.7418879e-9, -7.7539832e-9, 2.9499960e+2
-0.215, 6.3704402e-9, -7.0358510e-9, 2.9533295e+2
-0.214, 5.9350875e-9, -6.5861196e-9, 2.9566629e+2
-0.213, 5.4550013e-9, -6.2258549e-9, 2.9599963e+2
-0.212, 4.6945319e-9, -5.8935488e-9, 2.9633298e+2
-0.211, 3.8525836e-9, -5.6459171e-9, 2.9666632e+2
-0.210, 2.9659017e-9, -5.3407709e-9, 2.9699966e+2
-0.209, 2.4482714e-9, -4.9253885e-9, 2.9733301e+2
-0.208, 2.1143676e-9, -4.3438528e-9, 2.9766635e+2
-0.207, 1.9210551e-9, -3.7447436e-9, 2.9799969e+2
-0.206, 1.8140143e-9, -3.0905165e-9, 2.9833304e+2
-0.205, 1.6774173e-9, -2.6200160e-9, 2.9866638e+2
-0.204, 1.3858509e-9, -2.2325919e-9, 2.9899973e+2
-0.203, 1.1797572e-9, -1.9506112e-9, 2.9933307e+2
-0.202, 9.8724351e-10, -1.7509081e-9, 2.9966641e+2
-0.201, 6.9328049e-10, -1.5591931e-9, 2.9999976e+2
-0.200, 4.5283796e-10, -1.3794603e-9, 3.0033310e+2
-0.199, 1.3810589e-10, -1.2029228e-9, 3.0066644e+2
-0.198, -1.5505827e-10, -1.0591366e-9, 3.0099979e+2
-0.197, -5.6564786e-10, -9.3132657e-10, 3.0133313e+2
-0.196, -6.8626849e-10, -8.4106078e-10, 3.0166647e+2
-0.195, -1.0329531e-9, -7.6117956e-10, 3.0199982e+2
-0.194, -1.3261172e-9, -6.8449357e-10, 3.0233316e+2
-0.193, -1.5833348e-9, -6.3097316e-10, 3.0266650e+2
-0.192, -1.7462926e-9, -5.5029309e-10, 3.0299985e+2
-0.191, -2.0482436e-9, -4.9118098e-10, 3.0333319e+2
-0.190, -2.2064084e-9, -4.2567833e-10, 3.0366653e+2
-0.189, -2.3254314e-9, -3.3701017e-10, 3.0399988e+2
-0.188, -2.4764071e-9, -2.4594557e-10, 3.0433322e+2
-0.187, -2.4827975e-9, -1.5727737e-10, 3.0466656e+2
-0.186, -2.6066136e-9, -6.9408014e-11, 3.0499991e+2
-0.185, -2.6793054e-9, 1.7662536e-11, 3.0533325e+2
-0.184, -2.7224412e-9, 1.1272121e-10, 3.0566660e+2
-0.183, -2.7903402e-9, 2.4692171e-10, 3.0599994e+2
-0.182, -2.8007250e-9, 3.3718750e-10, 3.0633328e+2
-0.181, -2.8494525e-9, 4.6979032e-10, 3.0666663e+2
-0.180, -2.8758134e-9, 5.2171317e-10, 3.0699997e+2
-0.179, -2.8782097e-9, 6.3913858e-10, 3.0733331e+2
-0.178, -2.9261384e-9, 7.3100204e-10, 3.0766666e+2
-0.177, -2.9596887e-9, 8.3005475e-10, 3.0800000e+2
-0.176, -2.9788598e-9, 9.1392999e-10, 3.0833334e+2
-0.175, -3.0060197e-9, 1.0337519e-9, 3.0866669e+2
-0.174, -3.0124101e-9, 1.0952604e-9, 3.0900003e+2
-0.173, -3.0331793e-9, 1.1543726e-9, 3.0933337e+2
-0.172, -3.0379721e-9, 1.2206740e-9, 3.0966672e+2
-0.171, -3.0771139e-9, 1.2422420e-9, 3.1000006e+2
-0.170, -3.0882974e-9, 1.3213244e-9, 3.1033340e+2
-0.169, -3.1050722e-9, 1.4235723e-9, 3.1066675e+2
-0.168, -3.0843033e-9, 1.4427438e-9, 3.1100009e+2
-0.167, -3.1034748e-9, 1.5218262e-9, 3.1133344e+2
-0.166, -3.1410190e-9, 1.5761455e-9, 3.1166678e+2
-0.165, -3.1545988e-9, 1.6041040e-9, 3.1200012e+2
-0.164, -3.1737701e-9, 1.6408492e-9, 3.1233347e+2
-0.163, -3.1833560e-9, 1.6751982e-9, 3.1266681e+2
-0.162, -3.1969358e-9, 1.7454937e-9, 3.1300015e+2
-0.161, -3.2041252e-9, 1.7990142e-9, 3.1333350e+2
-0.160, -3.2073204e-9, 1.7598722e-9, 3.1366684e+2
-0.159, -3.2232967e-9, 1.7950200e-9, 3.1400018e+2
-0.158, -3.2488587e-9, 1.8749013e-9, 3.1433353e+2
-0.157, -3.2352789e-9, 1.9148418e-9, 3.1466687e+2
-0.156, -3.2664325e-9, 1.9252264e-9, 3.1500021e+2
-0.155, -3.2672314e-9, 1.9412028e-9, 3.1533356e+2
-0.154, -3.2784147e-9, 2.0003148e-9, 3.1566690e+2
-0.153, -3.3151601e-9, 2.0083031e-9, 3.1600024e+2
-0.152, -3.2967873e-9, 1.9915278e-9, 3.1633359e+2
-0.151, -3.3319350e-9, 2.0666162e-9, 3.1666693e+2
-0.150, -3.3023790e-9, 2.0522377e-9, 3.1700027e+2
-0.149, -3.3207517e-9, 2.0746045e-9, 3.1733362e+2
-0.148, -3.3207517e-9, 2.1233320e-9, 3.1766696e+2
-0.147, -3.3199528e-9, 2.1209356e-9, 3.1800031e+2
-0.146, -3.3255445e-9, 2.1393083e-9, 3.1833365e+2
-0.145, -3.3726746e-9, 2.1856394e-9, 3.1866699e+2
-0.144, -3.3399232e-9, 2.1784501e-9, 3.1900034e+2
-0.143, -3.3582959e-9, 2.2016156e-9, 3.1933368e+2
-0.142, -3.3239471e-9, 2.2072073e-9, 3.1966702e+2
-0.141, -3.3159588e-9, 2.2423550e-9, 3.2000037e+2
-0.140, -3.3606924e-9, 2.2183906e-9, 3.2033371e+2
-0.139, -3.3551006e-9, 2.2511419e-9, 3.2066705e+2
-0.138, -3.3806629e-9, 2.2479467e-9, 3.2100040e+2
-0.137, -3.4094199e-9, 2.2767039e-9, 3.2133374e+2
-0.136, -3.3806629e-9, 2.2615265e-9, 3.2166708e+2
-0.135, -3.4333842e-9, 2.2679170e-9, 3.2200043e+2
-0.134, -3.3830589e-9, 2.2679170e-9, 3.2233377e+2
-0.133, -3.3998342e-9, 2.2822957e-9, 3.2266711e+2
-0.132, -3.4038283e-9, 2.3318218e-9, 3.2300046e+2
-0.131, -3.4198044e-9, 2.2974731e-9, 3.2333380e+2
-0.130, -3.4030294e-9, 2.3350173e-9, 3.2366714e+2
-0.129, -3.4078222e-9, 2.3741591e-9, 3.2400049e+2
-0.128, -3.4102188e-9, 2.3581828e-9, 3.2433383e+2
-0.127, -3.4932952e-9, 2.3813482e-9, 3.2466718e+2
-0.126, -3.4317866e-9, 2.4156974e-9, 3.2500052e+2
-0.125, -3.4102188e-9, 2.3853426e-9, 3.2533386e+2
-0.124, -3.4086212e-9, 2.4292772e-9, 3.2566721e+2
-0.123, -3.4461651e-9, 2.4284783e-9, 3.2600055e+2
-0.122, -3.4206031e-9, 2.4668214e-9, 3.2633389e+2
-0.121, -3.4389760e-9, 2.4404605e-9, 3.2666724e+2
-0.120, -3.4525558e-9, 2.4915845e-9, 3.2700058e+2
-0.119, -3.4469640e-9, 2.4867917e-9, 3.2733392e+2
-0.118, -3.4309879e-9, 2.5147500e-9, 3.2766727e+2
-0.117, -3.4749226e-9, 2.5315252e-9, 3.2800061e+2
-0.116, -3.4469640e-9, 2.5514952e-9, 3.2833395e+2
-0.115, -3.4741239e-9, 2.5554896e-9, 3.2866730e+2
-0.114, -3.4932952e-9, 2.5467024e-9, 3.2900064e+2
-0.113, -3.5148631e-9, 2.5938325e-9, 3.2933398e+2
-0.112, -3.4198044e-9, 2.6617315e-9, 3.2966733e+2
-0.111, -3.4661356e-9, 2.7591864e-9, 3.3000067e+2
-0.110, -3.4533545e-9, 2.6321756e-9, 3.3033401e+2
-0.109, -3.3918461e-9, 2.5778562e-9, 3.3066736e+2
-0.108, -3.4429701e-9, 2.6809031e-9, 3.3100070e+2
-0.107, -3.7217553e-9, 2.3733604e-9, 3.3133405e+2
-0.106, -3.6211052e-9, 2.6641278e-9, 3.3166739e+2
-0.105, -3.5827621e-9, 2.5954301e-9, 3.3200073e+2
-0.104, -3.6243004e-9, 2.6633293e-9, 3.3233408e+2
-0.103, -3.5971408e-9, 2.7016722e-9, 3.3266742e+2
-0.102, -3.5691825e-9, 2.7072640e-9, 3.3300076e+2
-0.101, -3.6123182e-9, 2.6569387e-9, 3.3333411e+2
-0.100, -3.6203065e-9, 2.6713172e-9, 3.3366745e+2
-0.099, -3.6258982e-9, 2.7480032e-9, 3.3400079e+2
-0.098, -3.5915491e-9, 2.7136544e-9, 3.3433414e+2
-0.097, -3.6290932e-9, 2.8119083e-9, 3.3466748e+2
-0.096, -3.5907504e-9, 2.7272340e-9, 3.3500082e+2
-0.095, -3.4421712e-9, 2.6169980e-9, 3.3533417e+2
-0.094, -3.9038848e-9, 2.7248377e-9, 3.3566751e+2
-0.093, -3.7209569e-9, 2.7392164e-9, 3.3600085e+2
-0.092, -3.7201580e-9, 2.7456069e-9, 3.3633420e+2
-0.091, -3.6634422e-9, 2.7991272e-9, 3.3666754e+2
-0.090, -3.6003360e-9, 2.7855473e-9, 3.3700089e+2
-0.089, -3.7473176e-9, 2.8334763e-9, 3.3733423e+2
-0.088, -3.5811647e-9, 2.7959322e-9, 3.3766757e+2
-0.087, -3.7089745e-9, 2.7336244e-9, 3.3800092e+2
-0.086, -3.7361341e-9, 2.7615830e-9, 3.3833426e+2
-0.085, -3.6730279e-9, 2.7975295e-9, 3.3866760e+2
-0.084, -3.7113710e-9, 2.8734168e-9, 3.3900095e+2
-0.083, -3.6929984e-9, 2.8342748e-9, 3.3933429e+2
-0.082, -3.6498624e-9, 2.8814049e-9, 3.3966763e+2
-0.081, -3.6618446e-9, 2.8310798e-9, 3.4000098e+2
-0.080, -3.6890044e-9, 2.8334763e-9, 3.4033432e+2
-0.079, -3.6961934e-9, 2.8398668e-9, 3.4066766e+2
-0.078, -3.6650398e-9, 2.8646299e-9, 3.4100101e+2
-0.077, -3.7049805e-9, 2.8758134e-9, 3.4133435e+2
-0.076, -3.7177614e-9, 2.8806062e-9, 3.4166769e+2
-0.075, -3.6882055e-9, 2.8901919e-9, 3.4200104e+2
-0.074, -3.6874066e-9, 2.9085647e-9, 3.4233438e+2
-0.073, -3.7041816e-9, 2.9437124e-9, 3.4266772e+2
-0.072, -3.6498624e-9, 2.9421146e-9, 3.4300107e+2
-0.071, -3.7289447e-9, 3.0052207e-9, 3.4333441e+2
-0.070, -3.5132657e-9, 2.8526479e-9, 3.4366776e+2
-0.069, -3.8224059e-9, 2.9157536e-9, 3.4400110e+2
-0.068, -3.7105721e-9, 2.9077658e-9, 3.4433444e+2
-0.067, -3.6914005e-9, 2.9453100e-9, 3.4466779e+2
-0.066, -3.6993888e-9, 2.9445111e-9, 3.4500113e+2
-0.065, -3.6594481e-9, 2.9509015e-9, 3.4533447e+2
-0.064, -3.7065782e-9, 2.9596887e-9, 3.4566782e+2
-0.063, -3.7025840e-9, 2.9540967e-9, 3.4600116e+2
-0.062, -3.6778207e-9, 2.9532981e-9, 3.4633450e+2
-0.061, -3.6466672e-9, 2.9596887e-9, 3.4666785e+2
-0.060, -3.7209569e-9, 2.9572922e-9, 3.4700119e+2
-0.059, -3.6890044e-9, 2.9628837e-9, 3.4733453e+2
-0.058, -3.6914005e-9, 2.9548957e-9, 3.4766788e+2
-0.057, -3.7105721e-9, 2.9596887e-9, 3.4800122e+2
-0.056, -3.6530576e-9, 2.9732683e-9, 3.4833456e+2
-0.055, -3.7097734e-9, 2.9708720e-9, 3.4866791e+2
-0.054, -3.6754244e-9, 3.0092151e-9, 3.4900125e+2
-0.053, -3.6858090e-9, 2.9708720e-9, 3.4933459e+2
-0.052, -3.7233532e-9, 3.0243923e-9, 3.4966794e+2
-0.051, -3.6482648e-9, 2.9796587e-9, 3.5000128e+2
-0.050, -3.6530576e-9, 2.9756648e-9, 3.5033463e+2
-0.049, -3.5715788e-9, 2.9397182e-9, 3.5066797e+2
-0.048, -3.7497139e-9, 2.9596887e-9, 3.5100131e+2
-0.047, -3.7393293e-9, 3.0028244e-9, 3.5133466e+2
-0.046, -3.7041816e-9, 2.9948364e-9, 3.5166800e+2
-0.045, -3.7337378e-9, 3.0188005e-9, 3.5200134e+2
-0.044, -3.7025840e-9, 2.9940375e-9, 3.5233469e+2
-0.043, -3.6746257e-9, 3.0060197e-9, 3.5266803e+2
-0.042, -3.6953949e-9, 3.0156055e-9, 3.5300137e+2
-0.041, -3.6945960e-9, 3.0068186e-9, 3.5333472e+2
-0.040, -3.7225543e-9, 3.0219960e-9, 3.5366806e+2
-0.039, -3.7297436e-9, 3.0267888e-9, 3.5400140e+2
-0.038, -3.7185603e-9, 3.0076173e-9, 3.5433475e+2
-0.037, -3.7057792e-9, 3.0251912e-9, 3.5466809e+2
-0.036, -3.7305425e-9, 3.0299840e-9, 3.5500143e+2
-0.035, -3.6850101e-9, 3.0243923e-9, 3.5533478e+2
-0.034, -3.7209569e-9, 3.0219960e-9, 3.5566812e+2
-0.033, -3.7161638e-9, 3.0347771e-9, 3.5600146e+2
-0.032, -3.7273473e-9, 3.0307827e-9, 3.5633481e+2
-0.031, -3.7377319e-9, 3.0491554e-9, 3.5666815e+2
-0.030, -3.7425245e-9, 3.0307827e-9, 3.5700150e+2
-0.029, -3.7265484e-9, 3.0323806e-9, 3.5733484e+2
-0.028, -3.7177614e-9, 3.0259899e-9, 3.5766818e+2
-0.027, -3.7632937e-9, 3.0475580e-9, 3.5800153e+2
-0.026, -3.7417256e-9, 3.0195995e-9, 3.5833487e+2
-0.025, -3.7592995e-9, 3.0315817e-9, 3.5866821e+2
-0.024, -3.7393293e-9, 3.0355756e-9, 3.5900156e+2
-0.023, -3.7537080e-9, 3.0435638e-9, 3.5933490e+2
-0.022, -3.7393293e-9, 3.0627354e-9, 3.5966824e+2
-0.021, -3.7553058e-9, 3.0547471e-9, 3.6000159e+2
-0.020, -3.7313415e-9, 3.0443625e-9, 3.6033493e+2
-0.019, -3.7305425e-9, 3.0651319e-9, 3.6066827e+2
-0.018, -3.7553058e-9, 3.0651319e-9, 3.6100162e+2
-0.017, -3.7361341e-9, 3.0731198e-9, 3.6133496e+2
-0.016, -3.7561043e-9, 3.0683269e-9, 3.6166830e+2
-0.015, -3.7624952e-9, 3.0723211e-9, 3.6200165e+2
-0.014, -3.7553058e-9, 3.0859009e-9, 3.6233499e+2
-0.013, -3.7896548e-9, 3.0635341e-9, 3.6266833e+2
-0.012, -3.8495656e-9, 3.0579426e-9, 3.6300168e+2
-0.011, -3.8088261e-9, 3.0443625e-9, 3.6333502e+2
-0.010, -3.8359858e-9, 3.0427649e-9, 3.6366837e+2
-0.009, -3.8431751e-9, 3.0467591e-9, 3.6400171e+2
-0.008, -3.8383821e-9, 3.0403686e-9, 3.6433505e+2
-0.007, -3.9070800e-9, 3.0435638e-9, 3.6466840e+2
-0.006, -3.8775241e-9, 3.0475580e-9, 3.6500174e+2
-0.005, -3.8919024e-9, 3.0651319e-9, 3.6533508e+2
-0.004, -3.8839145e-9, 3.0595402e-9, 3.6566843e+2
-0.003, -3.8791215e-9, 3.0675282e-9, 3.6600177e+2
-0.002, -3.9206598e-9, 3.0691258e-9, 3.6633511e+2
-0.001, -3.8775241e-9, 3.0723211e-9, 3.6666846e+2
-0.000, -3.9102752e-9, 3.0906939e-9, 3.6700180e+2
0.001, -3.9470205e-9, 3.1010783e-9, 3.6733514e+2
0.002, -3.8911034e-9, 3.0803091e-9, 3.6766849e+2
0.003, -3.9094767e-9, 3.0795102e-9, 3.6800183e+2
0.004, -3.9637955e-9, 3.0906939e-9, 3.6833517e+2
0.005, -3.8839145e-9, 3.1066700e-9, 3.6866852e+2
0.006, -3.9126720e-9, 3.0994807e-9, 3.6900186e+2
0.007, -3.9182635e-9, 3.1098653e-9, 3.6933521e+2
0.008, -3.9310444e-9, 3.1386225e-9, 3.6966855e+2
0.009, -3.9366364e-9, 3.1314331e-9, 3.7000189e+2
0.010, -3.9358370e-9, 3.1186522e-9, 3.7033524e+2
0.011, -3.9773758e-9, 3.1354273e-9, 3.7066858e+2
0.012, -3.9661923e-9, 3.1338296e-9, 3.7100192e+2
0.013, -3.9230561e-9, 3.1442142e-9, 3.7133527e+2
0.014, -3.9574051e-9, 3.1418179e-9, 3.7166861e+2
0.015, -3.9526120e-9, 3.1386225e-9, 3.7200195e+2
0.016, -3.9637955e-9, 3.1561964e-9, 3.7233530e+2
0.017, -3.9606007e-9, 3.1282381e-9, 3.7266864e+2
0.018, -3.9590029e-9, 3.1545988e-9, 3.7300198e+2
0.019, -3.9765764e-9, 3.1490071e-9, 3.7333533e+2
0.020, -4.0221089e-9, 3.1673799e-9, 3.7366867e+2
0.021, -3.9973460e-9, 3.1737701e-9, 3.7400201e+2
0.022, -4.0269019e-9, 3.1649834e-9, 3.7433536e+2
0.023, -4.0364876e-9, 3.1721727e-9, 3.7466870e+2
0.024, -4.0356891e-9, 3.1793621e-9, 3.7500204e+2
0.025, -4.0284998e-9, 3.1705749e-9, 3.7533539e+2
0.026, -4.0404817e-9, 3.1905454e-9, 3.7566873e+2
0.027, -4.0468722e-9, 3.1657821e-9, 3.7600208e+2
0.028, -4.1019903e-9, 3.1865512e-9, 3.7633542e+2
0.029, -4.0804222e-9, 3.1753677e-9, 3.7666876e+2
0.030, -4.1203627e-9, 3.1897465e-9, 3.7700211e+2
0.031, -4.1171675e-9, 3.1849536e-9, 3.7733545e+2
0.032, -4.0995940e-9, 3.1961369e-9, 3.7766879e+2
0.033, -4.1459249e-9, 3.1913443e-9, 3.7800214e+2
0.034, -4.1299484e-9, 3.2049241e-9, 3.7833548e+2
0.035, -4.1427297e-9, 3.2041252e-9, 3.7866882e+2
0.036, -4.2050368e-9, 3.1961369e-9, 3.7900217e+2
0.037, -4.1611021e-9, 3.2017287e-9, 3.7933551e+2
0.038, -4.1826702e-9, 3.1825571e-9, 3.7966885e+2
0.039, -4.1802739e-9, 3.1889478e-9, 3.8000220e+2
0.040, -4.2042383e-9, 3.1977347e-9, 3.8033554e+2
0.041, -4.2058361e-9, 3.1849536e-9, 3.8066888e+2
0.042, -4.2258064e-9, 3.1929417e-9, 3.8100223e+2
0.043, -4.2433799e-9, 3.2017287e-9, 3.8133557e+2
0.044, -4.2290011e-9, 3.2041252e-9, 3.8166891e+2
0.045, -4.2953032e-9, 3.2129119e-9, 3.8200226e+2
0.046, -4.3160719e-9, 3.1897465e-9, 3.8233560e+2
0.047, -4.3288528e-9, 3.1801606e-9, 3.8266895e+2
0.048, -4.2937054e-9, 3.1841549e-9, 3.8300229e+2
0.049, -4.3376400e-9, 3.2033263e-9, 3.8333563e+2
0.050, -4.3000954e-9, 3.2001310e-9, 3.8366898e+2
0.051, -4.3647996e-9, 3.1889478e-9, 3.8400232e+2
0.052, -4.3807757e-9, 3.1977347e-9, 3.8433566e+2
0.053, -4.3959534e-9, 3.1969358e-9, 3.8466901e+2
0.054, -4.4159236e-9, 3.1993321e-9, 3.8500235e+2
0.055, -4.4015449e-9, 3.2001310e-9, 3.8533569e+2
0.056, -4.4558641e-9, 3.2304859e-9, 3.8566904e+2
0.057, -4.4622546e-9, 3.2009297e-9, 3.8600238e+2
0.058, -4.4007460e-9, 3.2280896e-9, 3.8633572e+2
0.059, -4.4718402e-9, 3.2288883e-9, 3.8666907e+2
0.060, -4.4997988e-9, 3.2216991e-9, 3.8700241e+2
0.061, -4.4622546e-9, 3.2113145e-9, 3.8733575e+2
0.062, -4.5461301e-9, 3.2424683e-9, 3.8766910e+2
0.063, -4.5509227e-9, 3.2264917e-9, 3.8800244e+2
0.064, -4.5517217e-9, 3.2552492e-9, 3.8833578e+2
0.065, -4.5972541e-9, 3.2392728e-9, 3.8866913e+2
0.066, -4.6060404e-9, 3.2448646e-9, 3.8900247e+2
0.067, -4.6435851e-9, 3.2656338e-9, 3.8933582e+2
0.068, -4.6539697e-9, 3.2656338e-9, 3.8966916e+2
0.069, -4.6779340e-9, 3.2608409e-9, 3.9000250e+2
0.070, -4.7250635e-9, 3.2656338e-9, 3.9033585e+2
0.071, -4.7570166e-9, 3.2864029e-9, 3.9066919e+2
0.072, -4.7330522e-9, 3.2760181e-9, 3.9100253e+2
0.073, -4.7330522e-9, 3.2816099e-9, 3.9133588e+2
0.074, -4.7921640e-9, 3.2824088e-9, 3.9166922e+2
0.075, -4.8305071e-9, 3.2919945e-9, 3.9200256e+2
0.076, -4.8209214e-9, 3.2736218e-9, 3.9233591e+2
0.077, -4.8600630e-9, 3.2776160e-9, 3.9266925e+2
0.078, -4.8808326e-9, 3.2903968e-9, 3.9300259e+2
0.079, -4.9431397e-9, 3.3135623e-9, 3.9333594e+2
0.080, -4.9822813e-9, 3.3151601e-9, 3.9366928e+2
0.081, -5.0142344e-9, 3.3095684e-9, 3.9400262e+2
0.082, -5.0046483e-9, 3.3183554e-9, 3.9433597e+2
0.083, -5.0621627e-9, 3.3183554e-9, 3.9466931e+2
0.084, -5.0997069e-9, 3.3239471e-9, 3.9500266e+2
0.085, -5.1260680e-9, 3.3351304e-9, 3.9533600e+2
0.086, -5.1787890e-9, 3.3335328e-9, 3.9566934e+2
0.087, -5.1851798e-9, 3.3207517e-9, 3.9600269e+2
0.088, -5.2618661e-9, 3.3455150e-9, 3.9633603e+2
0.089, -5.2722506e-9, 3.3383256e-9, 3.9666937e+2
0.090, -5.3121907e-9, 3.3343315e-9, 3.9700272e+2
0.091, -5.4184328e-9, 3.3439171e-9, 3.9733606e+2
0.092, -5.4463918e-9, 3.3503076e-9, 3.9766940e+2
0.093, -5.4927227e-9, 3.3319350e-9, 3.9800275e+2
0.094, -5.6061538e-9, 3.3487102e-9, 3.9833609e+2
0.095, -5.6221303e-9, 3.3774674e-9, 3.9866943e+2
0.096, -5.6708576e-9, 3.3622900e-9, 3.9900278e+2
0.097, -5.7786975e-9, 3.3710770e-9, 3.9933612e+2
0.098, -5.8186380e-9, 3.3790650e-9, 3.9966946e+2
0.099, -5.4999121e-9, 3.3582959e-9, 4.0000281e+2
