Dec. 9, 2005   00:37:14
Cyclic Voltammetry
File: d:\ida_biofilms\11_28_18_blankidapyo\1um_pyo_soak_gc.txt
Data Source:  Experiment
Instrument Model:  CHI760B
Header: 
Note: 

Init E (V) = 0.1
High E (V) = 0.1
Low E (V) = -0.5
Init P/N = N
Scan Rate (V/s) = 0.003
Segment = 2
Sample Interval (V) = 0.001
Quiet Time (sec) = 2
Sensitivity (A/V) = 1e-7
2nd E (V) = 0.1
Sens 2 (A/V) = 1e-7

Potential/V, i1/A, i2/A, Time/s

0.100, -8.7922176e-9, -7.5367863e-9, 3.3333334e-1
0.099, -7.3494824e-9, -6.7127313e-9, 6.6666669e-1
0.098, -6.3057541e-9, -6.0032259e-9, 1.0000000e+0
0.097, -5.5171667e-9, -5.4490896e-9, 1.3333334e+0
0.096, -4.8248356e-9, -4.9508708e-9, 1.6666667e+0
0.095, -4.2794066e-9, -4.5314139e-9, 2.0000000e+0
0.094, -3.8305541e-9, -4.1250585e-9, 2.3333333e+0
0.093, -3.3788257e-9, -3.8307757e-9, 2.6666665e+0
0.092, -3.0611378e-9, -3.5713215e-9, 2.9999998e+0
0.091, -2.7707694e-9, -3.2640186e-9, 3.3333330e+0
0.090, -2.4566764e-9, -3.1000222e-9, 3.6666663e+0
0.089, -2.1893141e-9, -2.9621472e-9, 3.9999995e+0
0.088, -1.9765902e-9, -2.7312905e-9, 4.3333330e+0
0.087, -1.7579553e-9, -2.6059568e-9, 4.6666665e+0
0.086, -1.5028946e-9, -2.5016320e-9, 5.0000000e+0
0.085, -1.3238007e-9, -2.3524138e-9, 5.3333335e+0
0.084, -1.1999849e-9, -2.1708437e-9, 5.6666670e+0
0.083, -1.0596335e-9, -2.1002287e-9, 6.0000005e+0
0.082, -8.3460810e-10, -2.0348858e-9, 6.3333340e+0
0.081, -7.9243073e-10, -1.9146646e-9, 6.6666675e+0
0.080, -5.9680161e-10, -1.8501206e-9, 7.0000010e+0
0.079, -4.9774884e-10, -1.7060148e-9, 7.3333344e+0
0.078, -3.9629969e-10, -1.6319648e-9, 7.6666679e+0
0.077, -2.7064651e-10, -1.6989852e-9, 8.0000010e+0
0.076, -2.8326774e-10, -1.6006515e-9, 8.3333340e+0
0.075, -2.0490425e-10, -1.5325128e-9, 8.6666670e+0
0.074, -7.2620916e-11, -1.5210897e-9, 9.0000000e+0
0.073, 2.6990991e-11, -1.3716319e-9, 9.3333330e+0
0.072, 1.6207016e-10, -1.4390517e-9, 9.6666660e+0
0.071, 1.7892511e-10, -1.2271267e-9, 9.9999990e+0
0.070, 4.6410115e-10, -1.3661999e-9, 1.0333332e+1
0.069, 2.3332422e-10, -1.3167535e-9, 1.0666665e+1
0.068, 2.1135689e-10, -1.3785016e-9, 1.0999998e+1
0.067, 3.4747452e-10, -1.1493224e-9, 1.1333331e+1
0.066, 6.3153222e-10, -1.1719288e-9, 1.1666664e+1
0.065, 5.7625443e-10, -1.1521981e-9, 1.1999997e+1
0.064, 6.1363881e-10, -1.0950831e-9, 1.2333330e+1
0.063, 6.7738404e-10, -1.0819825e-9, 1.2666663e+1
0.062, 6.8369466e-10, -1.0734352e-9, 1.2999996e+1
0.061, 7.1037504e-10, -1.0454767e-9, 1.3333329e+1
0.060, 7.3953166e-10, -1.0389266e-9, 1.3666662e+1
0.059, 7.5199313e-10, -1.0075332e-9, 1.3999995e+1
0.058, 8.0167922e-10, -9.9259545e-10, 1.4333328e+1
0.057, 8.5655766e-10, -9.5049801e-10, 1.4666661e+1
0.056, 8.6830015e-10, -9.3955421e-10, 1.4999994e+1
0.055, 9.2653363e-10, -9.0368762e-10, 1.5333327e+1
0.054, 1.0005835e-9, -8.8523505e-10, 1.5666660e+1
0.053, 1.0216722e-9, -8.5591861e-10, 1.5999993e+1
0.052, 1.0866955e-9, -8.0711116e-10, 1.6333326e+1
0.051, 1.1178491e-9, -7.9241302e-10, 1.6666660e+1
0.050, 1.1645797e-9, -7.7284212e-10, 1.6999994e+1
0.049, 1.1729673e-9, -7.3170325e-10, 1.7333328e+1
0.048, 1.1716093e-9, -7.1724476e-10, 1.7666662e+1
0.047, 1.2110706e-9, -6.9919165e-10, 1.7999996e+1
0.046, 1.2437420e-9, -6.8641065e-10, 1.8333330e+1
0.045, 1.2405468e-9, -6.8361478e-10, 1.8666664e+1
0.044, 1.3371232e-9, -6.7259115e-10, 1.8999998e+1
0.043, 1.2985406e-9, -6.6955569e-10, 1.9333332e+1
0.042, 1.3594100e-9, -6.6420364e-10, 1.9666666e+1
0.041, 1.3924809e-9, -6.5789302e-10, 2.0000000e+1
0.040, 1.3892058e-9, -6.4439309e-10, 2.0333334e+1
0.039, 1.4277085e-9, -6.4063871e-10, 2.0666668e+1
0.038, 1.4574244e-9, -6.3496713e-10, 2.1000002e+1
0.037, 1.4869006e-9, -6.2138727e-10, 2.1333336e+1
0.036, 1.5206104e-9, -6.1579564e-10, 2.1666670e+1
0.035, 1.5324328e-9, -6.1587546e-10, 2.2000004e+1
0.034, 1.5604711e-9, -6.0956490e-10, 2.2333338e+1
0.033, 1.5893084e-9, -5.9878091e-10, 2.2666672e+1
0.032, 1.5938616e-9, -5.9502647e-10, 2.3000006e+1
0.031, 1.6363584e-9, -5.8440225e-10, 2.3333340e+1
0.030, 1.6308465e-9, -5.8400285e-10, 2.3666674e+1
0.029, 1.6335625e-9, -5.6642901e-10, 2.4000008e+1
0.028, 1.6596837e-9, -5.6802663e-10, 2.4333342e+1
0.027, 1.6524943e-9, -5.5580479e-10, 2.4666676e+1
0.026, 1.6622398e-9, -5.4014804e-10, 2.5000010e+1
0.025, 1.6687902e-9, -5.4805632e-10, 2.5333344e+1
0.024, 1.6747013e-9, -5.4526045e-10, 2.5666677e+1
0.023, 1.6731836e-9, -5.2608901e-10, 2.6000011e+1
0.022, 1.6957100e-9, -5.0795596e-10, 2.6333345e+1
0.021, 1.7043372e-9, -5.1866000e-10, 2.6666679e+1
0.020, 1.7050562e-9, -5.0076659e-10, 2.7000013e+1
0.019, 1.7001035e-9, -4.9070159e-10, 2.7333347e+1
0.018, 1.7395649e-9, -5.0683757e-10, 2.7666681e+1
0.017, 1.7055355e-9, -4.7943832e-10, 2.8000015e+1
0.016, 1.7450766e-9, -4.9972820e-10, 2.8333349e+1
0.015, 1.7711979e-9, -4.9166016e-10, 2.8666683e+1
0.014, 1.7577779e-9, -4.6825499e-10, 2.9000017e+1
0.013, 1.7663252e-9, -4.7648274e-10, 2.9333351e+1
0.012, 1.8131355e-9, -4.5779050e-10, 2.9666685e+1
0.011, 1.7814227e-9, -4.6090587e-10, 3.0000019e+1
0.010, 1.8024314e-9, -4.5052134e-10, 3.0333353e+1
0.009, 1.8433307e-9, -4.3901843e-10, 3.0666687e+1
0.008, 1.8068249e-9, -4.4429060e-10, 3.1000021e+1
0.007, 1.8590672e-9, -4.3238829e-10, 3.1333355e+1
0.006, 1.8696913e-9, -4.1457476e-10, 3.1666689e+1
0.005, 1.8507597e-9, -4.0778486e-10, 3.2000023e+1
0.004, 1.8847890e-9, -4.1824930e-10, 3.2333355e+1
0.003, 1.9185786e-9, -3.8749501e-10, 3.2666687e+1
0.002, 1.9066764e-9, -3.9420506e-10, 3.3000019e+1
0.001, 1.8937356e-9, -3.8909265e-10, 3.3333351e+1
-0.000, 1.9001263e-9, -3.9779974e-10, 3.3666683e+1
-0.001, 1.9703419e-9, -3.7543296e-10, 3.4000015e+1
-0.002, 1.9641111e-9, -4.1625225e-10, 3.4333347e+1
-0.003, 1.9359927e-9, -3.7327616e-10, 3.4666679e+1
-0.004, 1.9466968e-9, -3.5330586e-10, 3.5000011e+1
-0.005, 1.9777708e-9, -3.4140354e-10, 3.5333344e+1
-0.006, 2.0086048e-9, -3.3693021e-10, 3.5666676e+1
-0.007, 2.0386401e-9, -3.4076450e-10, 3.6000008e+1
-0.008, 2.0287350e-9, -3.2726458e-10, 3.6333340e+1
-0.009, 2.0299333e-9, -3.2558706e-10, 3.6666672e+1
-0.010, 2.0461490e-9, -3.3006042e-10, 3.7000004e+1
-0.011, 2.0439124e-9, -3.0985048e-10, 3.7333336e+1
-0.012, 2.0655602e-9, -3.2223205e-10, 3.7666668e+1
-0.013, 2.0610869e-9, -3.1120845e-10, 3.8000000e+1
-0.014, 2.0665987e-9, -3.0210198e-10, 3.8333332e+1
-0.015, 2.0681163e-9, -2.8892158e-10, 3.8666664e+1
-0.016, 2.0747466e-9, -2.8037428e-10, 3.8999996e+1
-0.017, 2.1083766e-9, -2.8948074e-10, 3.9333328e+1
-0.018, 2.1103737e-9, -2.7622046e-10, 3.9666660e+1
-0.019, 2.0755453e-9, -2.6759328e-10, 3.9999992e+1
-0.020, 2.1196398e-9, -2.5936553e-10, 4.0333324e+1
-0.021, 2.1197197e-9, -2.7150748e-10, 4.0666656e+1
-0.022, 2.1104536e-9, -2.6152233e-10, 4.0999989e+1
-0.023, 2.1330600e-9, -2.6272054e-10, 4.1333321e+1
-0.024, 2.1337789e-9, -2.6128266e-10, 4.1666653e+1
-0.025, 2.1253912e-9, -2.6927077e-10, 4.1999985e+1
-0.026, 2.1293853e-9, -2.7478261e-10, 4.2333317e+1
-0.027, 2.1290658e-9, -2.7494235e-10, 4.2666649e+1
-0.028, 2.1327402e-9, -2.4977975e-10, 4.2999981e+1
-0.029, 2.1302640e-9, -2.5920574e-10, 4.3333313e+1
-0.030, 2.1400894e-9, -2.4914071e-10, 4.3666645e+1
-0.031, 2.1437641e-9, -2.4618510e-10, 4.3999977e+1
-0.032, 2.1344977e-9, -2.5601049e-10, 4.4333309e+1
-0.033, 2.1571041e-9, -2.5353419e-10, 4.4666641e+1
-0.034, 2.1444830e-9, -2.4946026e-10, 4.4999973e+1
-0.035, 2.1447224e-9, -2.3580055e-10, 4.5333305e+1
-0.036, 2.1585420e-9, -2.2956981e-10, 4.5666637e+1
-0.037, 2.1501545e-9, -2.3971472e-10, 4.5999969e+1
-0.038, 2.1581426e-9, -2.2477695e-10, 4.6333302e+1
-0.039, 2.1658910e-9, -2.3540114e-10, 4.6666634e+1
-0.040, 2.1562254e-9, -2.2533611e-10, 4.6999966e+1
-0.041, 2.1692461e-9, -2.2541599e-10, 4.7333298e+1
-0.042, 2.1740389e-9, -2.1662906e-10, 4.7666630e+1
-0.043, 2.1672490e-9, -2.1894560e-10, 4.7999962e+1
-0.044, 2.1815476e-9, -2.0360842e-10, 4.8333294e+1
-0.045, 2.1776336e-9, -2.0935985e-10, 4.8666626e+1
-0.046, 2.1844235e-9, -2.0760246e-10, 4.8999958e+1
-0.047, 2.1849826e-9, -2.0129184e-10, 4.9333290e+1
-0.048, 2.1928110e-9, -2.0025340e-10, 4.9666622e+1
-0.049, 2.2024766e-9, -1.9929482e-10, 4.9999954e+1
-0.050, 2.2058315e-9, -1.9865579e-10, 5.0333286e+1
-0.051, 2.1989619e-9, -2.0081256e-10, 5.0666618e+1
-0.052, 2.2523226e-9, -1.9130669e-10, 5.0999950e+1
-0.053, 2.2182134e-9, -1.8946943e-10, 5.1333282e+1
-0.054, 2.2273996e-9, -1.8707300e-10, 5.1666615e+1
-0.055, 2.2527220e-9, -1.8419727e-10, 5.1999947e+1
-0.056, 2.2281186e-9, -1.8739252e-10, 5.2333279e+1
-0.057, 2.2472899e-9, -1.8699312e-10, 5.2666611e+1
-0.058, 2.2806805e-9, -1.8044286e-10, 5.2999943e+1
-0.059, 2.2639852e-9, -1.8307894e-10, 5.3333275e+1
-0.060, 2.2781241e-9, -1.8571501e-10, 5.3666607e+1
-0.061, 2.2875501e-9, -1.7077723e-10, 5.3999939e+1
-0.062, 2.3206210e-9, -1.7900499e-10, 5.4333271e+1
-0.063, 2.2914644e-9, -1.6973876e-10, 5.4666603e+1
-0.064, 2.2790827e-9, -1.7764701e-10, 5.4999935e+1
-0.065, 2.3466622e-9, -1.7860559e-10, 5.5333267e+1
-0.066, 2.3506563e-9, -1.7652867e-10, 5.5666599e+1
-0.067, 2.3155087e-9, -1.7541034e-10, 5.5999931e+1
-0.068, 2.3787747e-9, -1.7389259e-10, 5.6333263e+1
-0.069, 2.3743012e-9, -1.7285413e-10, 5.6666595e+1
-0.070, 2.3606415e-9, -1.8723276e-10, 5.6999928e+1
-0.071, 2.4269431e-9, -1.7892511e-10, 5.7333260e+1
-0.072, 2.3925142e-9, -1.7229497e-10, 5.7666592e+1
-0.073, 2.3843663e-9, -1.7596950e-10, 5.7999924e+1
-0.074, 2.4116855e-9, -1.7229497e-10, 5.8333256e+1
-0.075, 2.4325346e-9, -1.6909972e-10, 5.8666588e+1
-0.076, 2.4624902e-9, -1.7165593e-10, 5.8999920e+1
-0.077, 2.4636884e-9, -1.7165593e-10, 5.9333252e+1
-0.078, 2.4854159e-9, -1.7045770e-10, 5.9666584e+1
-0.079, 2.4912472e-9, -1.6542519e-10, 5.9999916e+1
-0.080, 2.4734339e-9, -1.6310862e-10, 6.0333248e+1
-0.081, 2.5236790e-9, -1.6981866e-10, 6.0666580e+1
-0.082, 2.5191258e-9, -1.6614411e-10, 6.0999912e+1
-0.083, 2.5255964e-9, -1.7293401e-10, 6.1333244e+1
-0.084, 2.5580280e-9, -1.6782162e-10, 6.1666576e+1
-0.085, 2.5386171e-9, -1.7349319e-10, 6.1999908e+1
-0.086, 2.5413329e-9, -1.7740737e-10, 6.2333241e+1
-0.087, 2.5796758e-9, -1.7133639e-10, 6.2666573e+1
-0.088, 2.5573892e-9, -1.7964404e-10, 6.2999905e+1
-0.089, 2.5810338e-9, -1.8339845e-10, 6.3333237e+1
-0.090, 2.5803149e-9, -1.7916475e-10, 6.3666569e+1
-0.091, 2.5859865e-9, -1.7261449e-10, 6.3999901e+1
-0.092, 2.5939746e-9, -1.8563513e-10, 6.4333237e+1
-0.093, 2.5925369e-9, -1.8539549e-10, 6.4666573e+1
-0.094, 2.6114686e-9, -1.8571501e-10, 6.4999908e+1
-0.095, 2.6164211e-9, -1.8459669e-10, 6.5333244e+1
-0.096, 2.6081934e-9, -1.8491621e-10, 6.5666580e+1
-0.097, 2.6368707e-9, -1.9713803e-10, 6.5999916e+1
-0.098, 2.6347140e-9, -2.0296938e-10, 6.6333252e+1
-0.099, 2.6299212e-9, -1.9578004e-10, 6.6666588e+1
-0.100, 2.6565217e-9, -1.9562028e-10, 6.6999924e+1
-0.101, 2.6438205e-9, -1.9546054e-10, 6.7333260e+1
-0.102, 2.6602760e-9, -1.9458184e-10, 6.7666595e+1
-0.103, 2.6697020e-9, -1.9609958e-10, 6.7999931e+1
-0.104, 2.6705806e-9, -1.9298421e-10, 6.8333267e+1
-0.105, 2.6858380e-9, -1.9242505e-10, 6.8666603e+1
-0.106, 2.6926279e-9, -1.9585994e-10, 6.8999939e+1
-0.107, 2.7035718e-9, -1.9889541e-10, 6.9333275e+1
-0.108, 2.7090035e-9, -2.0009364e-10, 6.9666611e+1
-0.109, 2.7105214e-9, -2.0201078e-10, 6.9999947e+1
-0.110, 2.7206664e-9, -2.0153150e-10, 7.0333282e+1
-0.111, 2.7233023e-9, -1.9362326e-10, 7.0666618e+1
-0.112, 2.7322491e-9, -1.9881553e-10, 7.0999954e+1
-0.113, 2.7536571e-9, -1.9913507e-10, 7.1333290e+1
-0.114, 2.7622045e-9, -2.0264983e-10, 7.1666626e+1
-0.115, 2.7540568e-9, -1.9769721e-10, 7.1999962e+1
-0.116, 2.7999885e-9, -1.9146647e-10, 7.2333298e+1
-0.117, 2.7828937e-9, -1.9354338e-10, 7.2666634e+1
-0.118, 2.8043019e-9, -1.9721792e-10, 7.2999969e+1
-0.119, 2.8514318e-9, -2.0049305e-10, 7.3333305e+1
-0.120, 2.8310621e-9, -1.9042801e-10, 7.3666641e+1
-0.121, 2.8785914e-9, -1.9122683e-10, 7.3999977e+1
-0.122, 2.9130203e-9, -1.8867062e-10, 7.4333313e+1
-0.123, 2.9180529e-9, -1.8747241e-10, 7.4666649e+1
-0.124, 2.9372245e-9, -1.8907002e-10, 7.4999985e+1
-0.125, 2.9670200e-9, -1.9562028e-10, 7.5333321e+1
-0.126, 3.0115139e-9, -1.8291917e-10, 7.5666656e+1
-0.127, 3.0293272e-9, -1.8427716e-10, 7.5999992e+1
-0.128, 3.0427474e-9, -1.8843098e-10, 7.6333328e+1
-0.129, 3.0771763e-9, -1.8188070e-10, 7.6666664e+1
-0.130, 3.0858034e-9, -1.8723276e-10, 7.7000000e+1
-0.131, 3.0821288e-9, -1.8459669e-10, 7.7333336e+1
-0.132, 3.1194334e-9, -1.8795170e-10, 7.7666672e+1
-0.133, 3.1100873e-9, -1.5528026e-10, 7.8000008e+1
-0.134, 3.1488296e-9, -1.8403751e-10, 7.8333344e+1
-0.135, 3.1458740e-9, -1.8699312e-10, 7.8666679e+1
-0.136, 3.2823912e-9, -2.1678882e-10, 7.9000015e+1
-0.137, 3.0718241e-9, -2.1327404e-10, 7.9333351e+1
-0.138, 3.1549805e-9, -2.1391308e-10, 7.9666687e+1
-0.139, 3.1437173e-9, -1.9841613e-10, 8.0000023e+1
-0.140, 3.1861342e-9, -2.0640425e-10, 8.0333359e+1
-0.141, 3.1863738e-9, -1.8667359e-10, 8.0666695e+1
-0.142, 3.2212020e-9, -1.9665876e-10, 8.1000031e+1
-0.143, 3.2382168e-9, -1.8907002e-10, 8.1333366e+1
-0.144, 3.2728851e-9, -1.9450194e-10, 8.1666702e+1
-0.145, 3.3212133e-9, -2.0193090e-10, 8.2000038e+1
-0.146, 3.3250478e-9, -2.0304926e-10, 8.2333374e+1
-0.147, 3.3571601e-9, -1.9977411e-10, 8.2666710e+1
-0.148, 3.4483045e-9, -2.0153150e-10, 8.3000046e+1
-0.149, 3.4460679e-9, -2.0616463e-10, 8.3333382e+1
-0.150, 3.4771417e-9, -2.1087761e-10, 8.3666718e+1
-0.151, 3.5233130e-9, -2.0049305e-10, 8.4000053e+1
-0.152, 3.5236325e-9, -2.0808177e-10, 8.4333389e+1
-0.153, 3.5813068e-9, -2.0105222e-10, 8.4666725e+1
-0.154, 3.5789900e-9, -2.0129184e-10, 8.5000061e+1
-0.155, 3.5930492e-9, -2.0648414e-10, 8.5333397e+1
-0.156, 3.6084664e-9, -2.0856106e-10, 8.5666733e+1
-0.157, 3.6149368e-9, -2.0632437e-10, 8.6000069e+1
-0.158, 3.6296350e-9, -2.0009364e-10, 8.6333405e+1
-0.159, 3.6470489e-9, -2.0880069e-10, 8.6666740e+1
-0.160, 3.6615875e-9, -2.1103737e-10, 8.7000076e+1
-0.161, 3.6907439e-9, -2.1135689e-10, 8.7333412e+1
-0.162, 3.7149481e-9, -2.1239535e-10, 8.7666748e+1
-0.163, 3.7457819e-9, -2.1287463e-10, 8.8000084e+1
-0.164, 3.8249444e-9, -2.1063795e-10, 8.8333420e+1
-0.165, 3.8402819e-9, -2.3116745e-10, 8.8666756e+1
-0.166, 3.8775063e-9, -2.2270003e-10, 8.9000092e+1
-0.167, 3.9425294e-9, -2.3564078e-10, 8.9333427e+1
-0.168, 3.9690504e-9, -2.3819699e-10, 8.9666763e+1
-0.169, 4.0242480e-9, -2.3947511e-10, 9.0000099e+1
-0.170, 4.0599550e-9, -2.4163188e-10, 9.0333435e+1
-0.171, 4.0861563e-9, -2.4434785e-10, 9.0666771e+1
-0.172, 4.1062065e-9, -2.4506677e-10, 9.1000107e+1
-0.173, 4.1142743e-9, -2.3827687e-10, 9.1333443e+1
-0.174, 4.1419135e-9, -2.3524138e-10, 9.1666779e+1
-0.175, 4.1754635e-9, -2.5001942e-10, 9.2000114e+1
-0.176, 4.1925579e-9, -2.5784777e-10, 9.2333450e+1
-0.177, 4.2881756e-9, -2.6096314e-10, 9.2666786e+1
-0.178, 4.3424153e-9, -2.6048386e-10, 9.3000122e+1
-0.179, 4.3905035e-9, -2.6998973e-10, 9.3333458e+1
-0.180, 4.4961865e-9, -2.6743352e-10, 9.3666794e+1
-0.181, 4.5068904e-9, -2.6727376e-10, 9.4000130e+1
-0.182, 4.5500266e-9, -2.8332989e-10, 9.4333466e+1
-0.183, 4.5854143e-9, -2.9659017e-10, 9.4666801e+1
-0.184, 4.5957984e-9, -2.7965535e-10, 9.5000137e+1
-0.185, 4.6383750e-9, -2.9746886e-10, 9.5333473e+1
-0.186, 4.6537920e-9, -3.0529723e-10, 9.5666809e+1
-0.187, 4.6962092e-9, -3.4244202e-10, 9.6000145e+1
-0.188, 4.7477324e-9, -3.2854267e-10, 9.6333481e+1
-0.189, 4.8146731e-9, -3.5074965e-10, 9.6666817e+1
-0.190, 4.9289035e-9, -3.6720521e-10, 9.7000153e+1
-0.191, 4.9867372e-9, -3.8645656e-10, 9.7333488e+1
-0.192, 5.0330686e-9, -3.9148909e-10, 9.7666824e+1
-0.193, 5.0928994e-9, -4.1896822e-10, 9.8000160e+1
-0.194, 5.1151066e-9, -4.3869891e-10, 9.8333496e+1
-0.195, 5.1480176e-9, -4.4636750e-10, 9.8666832e+1
-0.196, 5.2363660e-9, -4.7105081e-10, 9.9000168e+1
-0.197, 5.2832565e-9, -4.8295312e-10, 9.9333504e+1
-0.198, 5.4153801e-9, -5.1338783e-10, 9.9666840e+1
-0.199, 5.5126752e-9, -5.1362747e-10, 1.0000018e+2
-0.200, 5.5543734e-9, -5.4238475e-10, 1.0033351e+2
-0.201, 5.5903202e-9, -5.5828114e-10, 1.0066685e+2
-0.202, 5.6293818e-9, -5.7465677e-10, 1.0100018e+2
-0.203, 5.6839409e-9, -5.8975436e-10, 1.0133352e+2
-0.204, 5.6927276e-9, -6.0820687e-10, 1.0166685e+2
-0.205, 5.9039338e-9, -6.2194644e-10, 1.0200019e+2
-0.206, 6.0296665e-9, -6.4543154e-10, 1.0233353e+2
-0.207, 6.0692078e-9, -6.6995509e-10, 1.0266686e+2
-0.208, 6.1052345e-9, -6.8433370e-10, 1.0300020e+2
-0.209, 6.2895200e-9, -7.1349038e-10, 1.0333353e+2
-0.210, 6.4408154e-9, -7.7603740e-10, 1.0366687e+2
-0.211, 6.5209358e-9, -8.3315244e-10, 1.0400021e+2
-0.212, 6.6036931e-9, -9.0680302e-10, 1.0433354e+2
-0.213, 6.6483468e-9, -9.6591513e-10, 1.0466688e+2
-0.214, 6.7408497e-9, -1.0243083e-9, 1.0500021e+2
-0.215, 6.9296084e-9, -1.0686424e-9, 1.0533355e+2
-0.216, 7.0289010e-9, -1.1057871e-9, 1.0566689e+2
-0.217, 7.0928858e-9, -1.1605058e-9, 1.0600022e+2
-0.218, 7.2905921e-9, -1.2202569e-9, 1.0633356e+2
-0.219, 7.4557063e-9, -1.3250611e-9, 1.0666689e+2
-0.220, 7.5357471e-9, -1.4333801e-9, 1.0700023e+2
-0.221, 7.6521349e-9, -1.5218885e-9, 1.0733356e+2
-0.222, 7.8861859e-9, -1.5764473e-9, 1.0766690e+2
-0.223, 8.0289340e-9, -1.6328435e-9, 1.0800024e+2
-0.224, 8.1872589e-9, -1.7103283e-9, 1.0833357e+2
-0.225, 8.4404830e-9, -1.8398159e-9, 1.0866691e+2
-0.226, 8.5408134e-9, -2.0016553e-9, 1.0900024e+2
-0.227, 8.7510612e-9, -2.0863293e-9, 1.0933358e+2
-0.228, 8.9918224e-9, -2.1807489e-9, 1.0966692e+2
-0.229, 9.1504671e-9, -2.3729432e-9, 1.1000025e+2
-0.230, 9.4349240e-9, -2.5317473e-9, 1.1033359e+2
-0.231, 9.5993196e-9, -2.6285631e-9, 1.1066692e+2
-0.232, 9.8955191e-9, -2.8115710e-9, 1.1100026e+2
-0.233, 1.0107923e-8, -3.0098364e-9, 1.1133360e+2
-0.234, 1.0444223e-8, -3.1245457e-9, 1.1166693e+2
-0.235, 1.0636897e-8, -3.3910297e-9, 1.1200027e+2
-0.236, 1.0951949e-8, -3.5555852e-9, 1.1233360e+2
-0.237, 1.1246311e-8, -3.7405101e-9, 1.1266694e+2
-0.238, 1.1502889e-8, -4.0092303e-9, 1.1300027e+2
-0.239, 1.1901577e-8, -4.1928776e-9, 1.1333361e+2
-0.240, 1.2230926e-8, -4.5012989e-9, 1.1366695e+2
-0.241, 1.2544860e-8, -4.6796735e-9, 1.1400028e+2
-0.242, 1.2912794e-8, -4.9858584e-9, 1.1433362e+2
-0.243, 1.3313878e-8, -5.2203899e-9, 1.1466695e+2
-0.244, 1.3682130e-8, -5.5227405e-9, 1.1500029e+2
-0.245, 1.3987195e-8, -5.8285261e-9, 1.1533363e+2
-0.246, 1.4439244e-8, -6.0924537e-9, 1.1566696e+2
-0.247, 1.4881467e-8, -6.4661378e-9, 1.1600030e+2
-0.248, 1.5317060e-8, -6.7478791e-9, 1.1633363e+2
-0.249, 1.5734917e-8, -7.0440787e-9, 1.1666697e+2
-0.250, 1.6151658e-8, -7.4256712e-9, 1.1700031e+2
-0.251, 1.6557614e-8, -7.7356903e-9, 1.1733364e+2
-0.252, 1.6998879e-8, -8.0829334e-9, 1.1766698e+2
-0.253, 1.7419374e-8, -8.4463139e-9, 1.1800031e+2
-0.254, 1.7886359e-8, -8.8228740e-9, 1.1833365e+2
-0.255, 1.8368683e-8, -9.1587742e-9, 1.1866698e+2
-0.256, 1.8817055e-8, -9.4853290e-9, 1.1900032e+2
-0.257, 1.9310800e-8, -9.9116546e-9, 1.1933366e+2
-0.258, 1.9784656e-8, -1.0329434e-8, 1.1966699e+2
-0.259, 2.0265462e-8, -1.0676917e-8, 1.2000033e+2
-0.260, 2.0742114e-8, -1.0975834e-8, 1.2033366e+2
-0.261, 2.1215808e-8, -1.1379473e-8, 1.2066700e+2
-0.262, 2.1690624e-8, -1.1783912e-8, 1.2100034e+2
-0.263, 2.2199867e-8, -1.2204008e-8, 1.2133367e+2
-0.264, 2.2615888e-8, -1.2529363e-8, 1.2166701e+2
-0.265, 2.3076243e-8, -1.2898495e-8, 1.2200034e+2
-0.266, 2.3538595e-8, -1.3309883e-8, 1.2233368e+2
-0.267, 2.3971152e-8, -1.3656728e-8, 1.2266702e+2
-0.268, 2.4349630e-8, -1.3953326e-8, 1.2300035e+2
-0.269, 2.4778272e-8, -1.4363676e-8, 1.2333369e+2
-0.270, 2.5212985e-8, -1.4750142e-8, 1.2366702e+2
-0.271, 2.5662239e-8, -1.5068787e-8, 1.2400036e+2
-0.272, 2.6108056e-8, -1.5359477e-8, 1.2433369e+2
-0.273, 2.6543969e-8, -1.5736196e-8, 1.2466703e+2
-0.274, 2.6888015e-8, -1.6046535e-8, 1.2500037e+2
-0.275, 2.7185813e-8, -1.6352400e-8, 1.2533370e+2
-0.276, 2.7615256e-8, -1.6708750e-8, 1.2566704e+2
-0.277, 2.8060434e-8, -1.6931459e-8, 1.2600037e+2
-0.278, 2.8298798e-8, -1.7252821e-8, 1.2633371e+2
-0.279, 2.8743578e-8, -1.7493823e-8, 1.2666705e+2
-0.280, 2.9069891e-8, -1.7773967e-8, 1.2700038e+2
-0.281, 2.9409469e-8, -1.8076957e-8, 1.2733372e+2
-0.282, 2.9645276e-8, -1.8288961e-8, 1.2766705e+2
-0.283, 3.0051474e-8, -1.8575335e-8, 1.2800038e+2
-0.284, 3.0261642e-8, -1.8769686e-8, 1.2833371e+2
-0.285, 3.0556322e-8, -1.9049191e-8, 1.2866704e+2
-0.286, 3.0897574e-8, -1.9234994e-8, 1.2900037e+2
-0.287, 3.1089449e-8, -1.9458183e-8, 1.2933369e+2
-0.288, 3.1417759e-8, -1.9693033e-8, 1.2966702e+2
-0.289, 3.1601651e-8, -1.9835221e-8, 1.3000035e+2
-0.290, 3.1931560e-8, -2.0109933e-8, 1.3033368e+2
-0.291, 3.2066396e-8, -2.0239341e-8, 1.3066701e+2
-0.292, 3.2382328e-8, -2.0395907e-8, 1.3100034e+2
-0.293, 3.2540893e-8, -2.0624608e-8, 1.3133366e+2
-0.294, 3.2772785e-8, -2.0745228e-8, 1.3166699e+2
-0.295, 3.3009957e-8, -2.0919449e-8, 1.3200032e+2
-0.296, 3.3172512e-8, -2.1109328e-8, 1.3233365e+2
-0.297, 3.3463522e-8, -2.1206784e-8, 1.3266698e+2
-0.298, 3.3655553e-8, -2.1300483e-8, 1.3300031e+2
-0.299, 3.3936580e-8, -2.1498828e-8, 1.3333363e+2
-0.300, 3.4099372e-8, -2.1619449e-8, 1.3366696e+2
-0.301, 3.4379280e-8, -2.1709635e-8, 1.3400029e+2
-0.302, 3.4524586e-8, -2.1855259e-8, 1.3433362e+2
-0.303, 3.4785952e-8, -2.2059115e-8, 1.3466695e+2
-0.304, 3.4927503e-8, -2.2159286e-8, 1.3500027e+2
-0.305, 3.5056352e-8, -2.2216881e-8, 1.3533360e+2
-0.306, 3.5248707e-8, -2.2355716e-8, 1.3566693e+2
-0.307, 3.5424524e-8, -2.2489356e-8, 1.3600026e+2
-0.308, 3.5537717e-8, -2.2594879e-8, 1.3633359e+2
-0.309, 3.5753555e-8, -2.2649358e-8, 1.3666692e+2
-0.310, 3.5906769e-8, -2.2704794e-8, 1.3700024e+2
-0.311, 3.6005741e-8, -2.2809282e-8, 1.3733357e+2
-0.312, 3.6152802e-8, -2.2947795e-8, 1.3766690e+2
-0.313, 3.6366327e-8, -2.3059387e-8, 1.3800023e+2
-0.314, 3.6440532e-8, -2.3120977e-8, 1.3833356e+2
-0.315, 3.6556919e-8, -2.3174257e-8, 1.3866689e+2
-0.316, 3.6752390e-8, -2.3228816e-8, 1.3900021e+2
-0.317, 3.6877562e-8, -2.3373321e-8, 1.3933354e+2
-0.318, 3.6948418e-8, -2.3519744e-8, 1.3966687e+2
-0.319, 3.7051066e-8, -2.3597709e-8, 1.4000020e+2
-0.320, 3.7209229e-8, -2.3649392e-8, 1.4033353e+2
-0.321, 3.7357012e-8, -2.3710340e-8, 1.4066685e+2
-0.322, 3.7404700e-8, -2.3814586e-8, 1.4100018e+2
-0.323, 3.7477552e-8, -2.3932090e-8, 1.4133351e+2
-0.324, 3.7682607e-8, -2.4009335e-8, 1.4166684e+2
-0.325, 3.7788290e-8, -2.4062057e-8, 1.4200017e+2
-0.326, 3.7875921e-8, -2.4092094e-8, 1.4233350e+2
-0.327, 3.7961794e-8, -2.4127161e-8, 1.4266682e+2
-0.328, 3.8027135e-8, -2.4160951e-8, 1.4300015e+2
-0.329, 3.8198881e-8, -2.4174691e-8, 1.4333348e+2
-0.330, 3.8327730e-8, -2.4208958e-8, 1.4366681e+2
-0.331, 3.8389398e-8, -2.4258005e-8, 1.4400014e+2
-0.332, 3.8528551e-8, -2.4306335e-8, 1.4433347e+2
-0.333, 3.8661312e-8, -2.4379904e-8, 1.4466679e+2
-0.334, 3.8839609e-8, -2.4430070e-8, 1.4500012e+2
-0.335, 3.8886178e-8, -2.4470092e-8, 1.4533345e+2
-0.336, 3.8990262e-8, -2.4518739e-8, 1.4566678e+2
-0.337, 3.9252434e-8, -2.4552049e-8, 1.4600011e+2
-0.338, 3.9351725e-8, -2.4579768e-8, 1.4633344e+2
-0.339, 3.9425217e-8, -2.4595344e-8, 1.4666676e+2
-0.340, 3.9646888e-8, -2.4616114e-8, 1.4700009e+2
-0.341, 3.9780851e-8, -2.4641835e-8, 1.4733342e+2
-0.342, 3.9862407e-8, -2.4664361e-8, 1.4766675e+2
-0.343, 4.0011624e-8, -2.4690245e-8, 1.4800008e+2
-0.344, 4.0212608e-8, -2.4720199e-8, 1.4833340e+2
-0.345, 4.0326356e-8, -2.4754709e-8, 1.4866673e+2
-0.346, 4.0426528e-8, -2.4813980e-8, 1.4900006e+2
-0.347, 4.0637254e-8, -2.4869177e-8, 1.4933339e+2
-0.348, 4.0782641e-8, -2.4945784e-8, 1.4966672e+2
-0.349, 4.0836479e-8, -2.4991476e-8, 1.5000005e+2
-0.350, 4.0923869e-8, -2.5030777e-8, 1.5033337e+2
-0.351, 4.1090580e-8, -2.5061212e-8, 1.5066670e+2
-0.352, 4.1227096e-8, -2.5103391e-8, 1.5100003e+2
-0.353, 4.1313129e-8, -2.5131429e-8, 1.5133336e+2
-0.354, 4.1352429e-8, -2.5174165e-8, 1.5166669e+2
-0.355, 4.1427203e-8, -2.5226328e-8, 1.5200002e+2
-0.356, 4.1587043e-8, -2.5311721e-8, 1.5233334e+2
-0.357, 4.1666365e-8, -2.5414128e-8, 1.5266667e+2
-0.358, 4.1717968e-8, -2.5494808e-8, 1.5300000e+2
-0.359, 4.1765496e-8, -2.5549046e-8, 1.5333333e+2
-0.360, 4.1795293e-8, -2.5582359e-8, 1.5366666e+2
-0.361, 4.1839229e-8, -2.5615350e-8, 1.5399998e+2
-0.362, 4.1887478e-8, -2.5665674e-8, 1.5433331e+2
-0.363, 4.1955296e-8, -2.5706971e-8, 1.5466664e+2
-0.364, 4.2038213e-8, -2.5791726e-8, 1.5499997e+2
-0.365, 4.2125201e-8, -2.5865058e-8, 1.5533330e+2
-0.366, 4.2212033e-8, -2.5929600e-8, 1.5566663e+2
-0.367, 4.2260602e-8, -2.5984958e-8, 1.5599995e+2
-0.368, 4.2297746e-8, -2.6015952e-8, 1.5633328e+2
-0.369, 4.2328981e-8, -2.6040158e-8, 1.5666661e+2
-0.370, 4.2379146e-8, -2.6071310e-8, 1.5699994e+2
-0.371, 4.2465977e-8, -2.6104621e-8, 1.5733327e+2
-0.372, 4.2611759e-8, -2.6133618e-8, 1.5766660e+2
-0.373, 4.2644192e-8, -2.6167166e-8, 1.5799992e+2
-0.374, 4.2727827e-8, -2.6208628e-8, 1.5833325e+2
-0.375, 4.2769443e-8, -2.6265742e-8, 1.5866658e+2
-0.376, 4.2792930e-8, -2.6326930e-8, 1.5899991e+2
-0.377, 4.2837822e-8, -2.6407850e-8, 1.5933324e+2
-0.378, 4.2897256e-8, -2.6453943e-8, 1.5966656e+2
-0.379, 4.3016438e-8, -2.6486612e-8, 1.5999989e+2
-0.380, 4.3111818e-8, -2.6518167e-8, 1.6033322e+2
-0.381, 4.3186983e-8, -2.6539814e-8, 1.6066655e+2
-0.382, 4.3251848e-8, -2.6564017e-8, 1.6099988e+2
-0.383, 4.3276771e-8, -2.6582951e-8, 1.6133321e+2
-0.384, 4.3308486e-8, -2.6609150e-8, 1.6166653e+2
-0.385, 4.3387409e-8, -2.6639265e-8, 1.6199986e+2
-0.386, 4.3467608e-8, -2.6687117e-8, 1.6233319e+2
-0.387, 4.3584635e-8, -2.6719865e-8, 1.6266652e+2
-0.388, 4.3661718e-8, -2.6785210e-8, 1.6299985e+2
-0.389, 4.3689038e-8, -2.6842246e-8, 1.6333318e+2
-0.390, 4.3734012e-8, -2.6880349e-8, 1.6366650e+2
-0.391, 4.3766843e-8, -2.6935464e-8, 1.6399983e+2
-0.392, 4.3781938e-8, -2.6972771e-8, 1.6433316e+2
-0.393, 4.3814371e-8, -2.6995776e-8, 1.6466649e+2
-0.394, 4.3857508e-8, -2.7014149e-8, 1.6499982e+2
-0.395, 4.3917179e-8, -2.7026609e-8, 1.6533315e+2
-0.396, 4.4004008e-8, -2.7048019e-8, 1.6566647e+2
-0.397, 4.4109132e-8, -2.7069426e-8, 1.6599980e+2
-0.398, 4.4171042e-8, -2.7075737e-8, 1.6633313e+2
-0.399, 4.4205869e-8, -2.7101057e-8, 1.6666646e+2
-0.400, 4.4244931e-8, -2.7119672e-8, 1.6699979e+2
-0.401, 4.4274888e-8, -2.7146832e-8, 1.6733311e+2
-0.402, 4.4296055e-8, -2.7180782e-8, 1.6766644e+2
-0.403, 4.4352053e-8, -2.7225592e-8, 1.6799977e+2
-0.404, 4.4457977e-8, -2.7271685e-8, 1.6833310e+2
-0.405, 4.4486015e-8, -2.7306672e-8, 1.6866643e+2
-0.406, 4.4586905e-8, -2.7337030e-8, 1.6899976e+2
-0.407, 4.4670699e-8, -2.7386717e-8, 1.6933308e+2
-0.408, 4.4702333e-8, -2.7424100e-8, 1.6966641e+2
-0.409, 4.4745146e-8, -2.7447584e-8, 1.6999974e+2
-0.410, 4.4769752e-8, -2.7468511e-8, 1.7033307e+2
-0.411, 4.4800668e-8, -2.7489442e-8, 1.7066640e+2
-0.412, 4.4877911e-8, -2.7499187e-8, 1.7099973e+2
-0.413, 4.4932950e-8, -2.7514524e-8, 1.7133305e+2
-0.414, 4.5083123e-8, -2.7529943e-8, 1.7166638e+2
-0.415, 4.5132335e-8, -2.7538091e-8, 1.7199971e+2
-0.416, 4.5194000e-8, -2.7547276e-8, 1.7233304e+2
-0.417, 4.5242729e-8, -2.7558700e-8, 1.7266637e+2
-0.418, 4.5261181e-8, -2.7574435e-8, 1.7299969e+2
-0.419, 4.5332992e-8, -2.7571801e-8, 1.7333302e+2
-0.420, 4.5518878e-8, -2.7579549e-8, 1.7366635e+2
-0.421, 4.5644370e-8, -2.7571879e-8, 1.7399968e+2
-0.422, 4.5719460e-8, -2.7574115e-8, 1.7433301e+2
-0.423, 4.5780570e-8, -2.7566287e-8, 1.7466634e+2
-0.424, 4.5885212e-8, -2.7554545e-8, 1.7499966e+2
-0.425, 4.6125894e-8, -2.7535535e-8, 1.7533299e+2
-0.426, 4.6236611e-8, -2.7512369e-8, 1.7566632e+2
-0.427, 4.6439826e-8, -2.7492238e-8, 1.7599965e+2
-0.428, 4.6658862e-8, -2.7477300e-8, 1.7633298e+2
-0.429, 4.6742020e-8, -2.7431208e-8, 1.7666631e+2
-0.430, 4.6958338e-8, -2.7376649e-8, 1.7699963e+2
-0.431, 4.7157481e-8, -2.7340782e-8, 1.7733296e+2
-0.432, 4.7235687e-8, -2.7279116e-8, 1.7766629e+2
-0.433, 4.7443535e-8, -2.7249079e-8, 1.7799962e+2
-0.434, 4.7616400e-8, -2.7216807e-8, 1.7833295e+2
-0.435, 4.7681983e-8, -2.7199233e-8, 1.7866628e+2
-0.436, 4.7762342e-8, -2.7177265e-8, 1.7899960e+2
-0.437, 4.7818340e-8, -2.7157137e-8, 1.7933293e+2
-0.438, 4.7960608e-8, -2.7148110e-8, 1.7966626e+2
-0.439, 4.8080189e-8, -2.7148829e-8, 1.7999959e+2
-0.440, 4.8136187e-8, -2.7130454e-8, 1.8033292e+2
-0.441, 4.8165742e-8, -2.7133174e-8, 1.8066624e+2
-0.442, 4.8208239e-8, -2.7129257e-8, 1.8099957e+2
-0.443, 4.8294670e-8, -2.7109767e-8, 1.8133290e+2
-0.444, 4.8435741e-8, -2.7102658e-8, 1.8166623e+2
-0.445, 4.8555243e-8, -2.7088198e-8, 1.8199956e+2
-0.446, 4.8650143e-8, -2.7075258e-8, 1.8233289e+2
-0.447, 4.8699032e-8, -2.7058325e-8, 1.8266621e+2
-0.448, 4.8803994e-8, -2.7049778e-8, 1.8299954e+2
-0.449, 4.8995631e-8, -2.7038753e-8, 1.8333287e+2
-0.450, 4.9107545e-8, -2.7025491e-8, 1.8366620e+2
-0.451, 4.9154114e-8, -2.7016387e-8, 1.8399953e+2
-0.452, 4.9261633e-8, -2.7007118e-8, 1.8433286e+2
-0.453, 4.9430820e-8, -2.6996016e-8, 1.8466618e+2
-0.454, 4.9577885e-8, -2.6987470e-8, 1.8499951e+2
-0.455, 4.9657285e-8, -2.6958073e-8, 1.8533284e+2
-0.456, 4.9727582e-8, -2.6943853e-8, 1.8566617e+2
-0.457, 4.9832625e-8, -2.6919091e-8, 1.8599950e+2
-0.458, 5.0001091e-8, -2.6895526e-8, 1.8633282e+2
-0.459, 5.0075542e-8, -2.6858618e-8, 1.8666615e+2
-0.460, 5.0119400e-8, -2.6860777e-8, 1.8699948e+2
-0.461, 5.0145118e-8, -2.6816842e-8, 1.8733281e+2
-0.462, 5.0187456e-8, -2.6804939e-8, 1.8766614e+2
-0.463, 5.0222045e-8, -2.6809174e-8, 1.8799947e+2
-0.464, 5.0275005e-8, -2.6786646e-8, 1.8833279e+2
-0.465, 5.0351776e-8, -2.6808776e-8, 1.8866612e+2
-0.466, 5.0394590e-8, -2.6788562e-8, 1.8899945e+2
-0.467, 5.0454897e-8, -2.6795194e-8, 1.8933278e+2
-0.468, 5.0534542e-8, -2.6786328e-8, 1.8966611e+2
-0.469, 5.0570488e-8, -2.6777300e-8, 1.8999944e+2
-0.470, 5.0607472e-8, -2.6764200e-8, 1.9033276e+2
-0.471, 5.0643820e-8, -2.6763320e-8, 1.9066609e+2
-0.472, 5.0662031e-8, -2.6740954e-8, 1.9099942e+2
-0.473, 5.0701257e-8, -2.6739118e-8, 1.9133275e+2
-0.474, 5.0740152e-8, -2.6722661e-8, 1.9166608e+2
-0.475, 5.0759887e-8, -2.6723782e-8, 1.9199940e+2
-0.476, 5.0749744e-8, -2.6716032e-8, 1.9233273e+2
-0.477, 5.0740873e-8, -2.6720825e-8, 1.9266606e+2
-0.478, 5.0764680e-8, -2.6714913e-8, 1.9299939e+2
-0.479, 5.0737441e-8, -2.6716190e-8, 1.9333272e+2
-0.480, 5.0730890e-8, -2.6729932e-8, 1.9366605e+2
-0.481, 5.0764360e-8, -2.6727534e-8, 1.9399937e+2
-0.482, 5.0807973e-8, -2.6727056e-8, 1.9433270e+2
-0.483, 5.0859740e-8, -2.6704049e-8, 1.9466603e+2
-0.484, 5.0991463e-8, -2.6709801e-8, 1.9499936e+2
-0.485, 5.1057125e-8, -2.6692387e-8, 1.9533269e+2
-0.486, 5.1089796e-8, -2.6684638e-8, 1.9566602e+2
-0.487, 5.1121827e-8, -2.6674414e-8, 1.9599934e+2
-0.488, 5.1123507e-8, -2.6675613e-8, 1.9633267e+2
-0.489, 5.1143157e-8, -2.6668024e-8, 1.9666600e+2
-0.490, 5.1145154e-8, -2.6673376e-8, 1.9699933e+2
-0.491, 5.1155858e-8, -2.6674254e-8, 1.9733266e+2
-0.492, 5.1147790e-8, -2.6682724e-8, 1.9766599e+2
-0.493, 5.1143076e-8, -2.6677851e-8, 1.9799931e+2
-0.494, 5.1145953e-8, -2.6682400e-8, 1.9833264e+2
-0.495, 5.1136922e-8, -2.6673055e-8, 1.9866597e+2
-0.496, 5.1112725e-8, -2.6694945e-8, 1.9899930e+2
-0.497, 5.1115357e-8, -2.6700137e-8, 1.9933263e+2
-0.498, 5.1098581e-8, -2.6706445e-8, 1.9966595e+2
-0.499, 5.0924360e-8, -2.6685118e-8, 1.9999928e+2
-0.500, 4.9116888e-8, -2.6600283e-8, 2.0033261e+2
-0.499, 4.8528484e-8, -2.6543809e-8, 2.0066594e+2
-0.498, 4.8053828e-8, -2.6497636e-8, 2.0099927e+2
-0.497, 4.7658016e-8, -2.6444836e-8, 2.0133260e+2
-0.496, 4.7248946e-8, -2.6369026e-8, 2.0166592e+2
-0.495, 4.6893632e-8, -2.6278123e-8, 2.0199925e+2
-0.494, 4.6632664e-8, -2.6194886e-8, 2.0233258e+2
-0.493, 4.6229498e-8, -2.6153828e-8, 2.0266591e+2
-0.492, 4.5884892e-8, -2.6114046e-8, 2.0299924e+2
-0.491, 4.5657153e-8, -2.6089442e-8, 2.0333257e+2
-0.490, 4.5249440e-8, -2.6066438e-8, 2.0366589e+2
-0.489, 4.4996533e-8, -2.6041993e-8, 2.0399922e+2
-0.488, 4.4727891e-8, -2.6015952e-8, 2.0433255e+2
-0.487, 4.4435211e-8, -2.5986237e-8, 2.0466588e+2
-0.486, 4.4224723e-8, -2.5948934e-8, 2.0499921e+2
-0.485, 4.3941302e-8, -2.5865855e-8, 2.0533253e+2
-0.484, 4.3764128e-8, -2.5809381e-8, 2.0566586e+2
-0.483, 4.3636316e-8, -2.5727502e-8, 2.0599919e+2
-0.482, 4.3342432e-8, -2.5674540e-8, 2.0633252e+2
-0.481, 4.3247457e-8, -2.5630126e-8, 2.0666585e+2
-0.480, 4.3114373e-8, -2.5600729e-8, 2.0699918e+2
-0.479, 4.2895095e-8, -2.5571891e-8, 2.0733250e+2
-0.478, 4.2788216e-8, -2.5524525e-8, 2.0766583e+2
-0.477, 4.2727425e-8, -2.5493849e-8, 2.0799916e+2
-0.476, 4.2593946e-8, -2.5438410e-8, 2.0833249e+2
-0.475, 4.2510791e-8, -2.5366756e-8, 2.0866582e+2
-0.474, 4.2365723e-8, -2.5278968e-8, 2.0899915e+2
-0.473, 4.2300943e-8, -2.5217220e-8, 2.0933247e+2
-0.472, 4.2286882e-8, -2.5166575e-8, 2.0966580e+2
-0.471, 4.2259082e-8, -2.5142530e-8, 2.0999913e+2
-0.470, 4.2229448e-8, -2.5102112e-8, 2.1033246e+2
-0.469, 4.2184634e-8, -2.5071996e-8, 2.1066579e+2
-0.468, 4.2145814e-8, -2.5041402e-8, 2.1099911e+2
-0.467, 4.2112823e-8, -2.5007930e-8, 2.1133244e+2
-0.466, 4.2043801e-8, -2.4954730e-8, 2.1166577e+2
-0.465, 4.2000668e-8, -2.4872053e-8, 2.1199910e+2
-0.464, 4.1933646e-8, -2.4792811e-8, 2.1233243e+2
-0.463, 4.1843780e-8, -2.4738970e-8, 2.1266576e+2
-0.462, 4.1800565e-8, -2.4706939e-8, 2.1299908e+2
-0.461, 4.1729709e-8, -2.4664921e-8, 2.1333241e+2
-0.460, 4.1616278e-8, -2.4636165e-8, 2.1366574e+2
-0.459, 4.1526892e-8, -2.4613318e-8, 2.1399907e+2
-0.458, 4.1357463e-8, -2.4591831e-8, 2.1433240e+2
-0.457, 4.1276706e-8, -2.4566747e-8, 2.1466573e+2
-0.456, 4.1130281e-8, -2.4546138e-8, 2.1499905e+2
-0.455, 4.0899984e-8, -2.4518899e-8, 2.1533238e+2
-0.454, 4.0793740e-8, -2.4495733e-8, 2.1566571e+2
-0.453, 4.0620797e-8, -2.4458348e-8, 2.1599904e+2
-0.452, 4.0356152e-8, -2.4413536e-8, 2.1633237e+2
-0.451, 4.0236490e-8, -2.4366004e-8, 2.1666570e+2
-0.450, 3.9968089e-8, -2.4330140e-8, 2.1699902e+2
-0.449, 3.9833569e-8, -2.4287402e-8, 2.1733235e+2
-0.448, 3.9728125e-8, -2.4250019e-8, 2.1766568e+2
-0.447, 3.9461561e-8, -2.4223018e-8, 2.1799901e+2
-0.446, 3.9354521e-8, -2.4197856e-8, 2.1833234e+2
-0.445, 3.9227352e-8, -2.4179723e-8, 2.1866566e+2
-0.444, 3.8962867e-8, -2.4160151e-8, 2.1899899e+2
-0.443, 3.8861497e-8, -2.4146091e-8, 2.1933232e+2
-0.442, 3.8764281e-8, -2.4133392e-8, 2.1966565e+2
-0.441, 3.8558348e-8, -2.4118535e-8, 2.1999898e+2
-0.440, 3.8409048e-8, -2.4094250e-8, 2.2033231e+2
-0.439, 3.8346901e-8, -2.4086342e-8, 2.2066563e+2
-0.438, 3.8237463e-8, -2.4069806e-8, 2.2099896e+2
-0.437, 3.8049581e-8, -2.4052952e-8, 2.2133229e+2
-0.436, 3.7939426e-8, -2.4042407e-8, 2.2166562e+2
-0.435, 3.7868013e-8, -2.4022038e-8, 2.2199895e+2
-0.434, 3.7753065e-8, -2.3993760e-8, 2.2233228e+2
-0.433, 3.7595058e-8, -2.3967958e-8, 2.2266560e+2
-0.432, 3.7439129e-8, -2.3913159e-8, 2.2299893e+2
-0.431, 3.7377063e-8, -2.3876973e-8, 2.2333226e+2
-0.430, 3.7282163e-8, -2.3833518e-8, 2.2366559e+2
-0.429, 3.7110098e-8, -2.3787585e-8, 2.2399892e+2
-0.428, 3.6968309e-8, -2.3757231e-8, 2.2433224e+2
-0.427, 3.6927013e-8, -2.3725837e-8, 2.2466557e+2
-0.426, 3.6884433e-8, -2.3706987e-8, 2.2499890e+2
-0.425, 3.6801517e-8, -2.3677430e-8, 2.2533223e+2
-0.424, 3.6703582e-8, -2.3716252e-8, 2.2566556e+2
-0.423, 3.6623142e-8, -2.3654103e-8, 2.2599889e+2
-0.422, 3.6492615e-8, -2.3639725e-8, 2.2633221e+2
-0.421, 3.6425515e-8, -2.3627425e-8, 2.2666554e+2
-0.420, 3.6380865e-8, -2.3602420e-8, 2.2699887e+2
-0.419, 3.6292278e-8, -2.3595710e-8, 2.2733220e+2
-0.418, 3.6110386e-8, -2.3578936e-8, 2.2766553e+2
-0.417, 3.6010771e-8, -2.3558966e-8, 2.2799886e+2
-0.416, 3.5943433e-8, -2.3547543e-8, 2.2833218e+2
-0.415, 3.5883922e-8, -2.3524695e-8, 2.2866551e+2
-0.414, 3.5791739e-8, -2.3496979e-8, 2.2899884e+2
-0.413, 3.5643559e-8, -2.3463828e-8, 2.2933217e+2
-0.412, 3.5493304e-8, -2.3415179e-8, 2.2966550e+2
-0.411, 3.5454640e-8, -2.3361579e-8, 2.2999883e+2
-0.410, 3.5423245e-8, -2.3317085e-8, 2.3033215e+2
-0.409, 3.5375798e-8, -2.3250944e-8, 2.3066548e+2
-0.408, 3.5316123e-8, -2.3223864e-8, 2.3099881e+2
-0.407, 3.5209482e-8, -2.3194467e-8, 2.3133214e+2
-0.406, 3.5130402e-8, -2.3173220e-8, 2.3166547e+2
-0.405, 3.5051638e-8, -2.3148136e-8, 2.3199879e+2
-0.404, 3.5008981e-8, -2.3124253e-8, 2.3233212e+2
-0.403, 3.4987096e-8, -2.3102764e-8, 2.3266545e+2
-0.402, 3.4950268e-8, -2.3083032e-8, 2.3299878e+2
-0.401, 3.4940125e-8, -2.3058350e-8, 2.3333211e+2
-0.400, 3.4931418e-8, -2.3027196e-8, 2.3366544e+2
-0.399, 3.4873747e-8, -2.2996042e-8, 2.3399876e+2
-0.398, 3.4850501e-8, -2.2947873e-8, 2.3433209e+2
-0.397, 3.4771176e-8, -2.2880615e-8, 2.3466542e+2
-0.396, 3.4665891e-8, -2.2818467e-8, 2.3499875e+2
-0.395, 3.4557573e-8, -2.2779805e-8, 2.3533208e+2
-0.394, 3.4497102e-8, -2.2735708e-8, 2.3566541e+2
-0.393, 3.4449254e-8, -2.2711346e-8, 2.3599873e+2
-0.392, 3.4407716e-8, -2.2690097e-8, 2.3633206e+2
-0.391, 3.4330629e-8, -2.2655508e-8, 2.3666539e+2
-0.390, 3.4182051e-8, -2.2635218e-8, 2.3699872e+2
-0.389, 3.4067025e-8, -2.2619163e-8, 2.3733205e+2
-0.388, 3.3998806e-8, -2.2603587e-8, 2.3766537e+2
-0.387, 3.3929307e-8, -2.2593202e-8, 2.3799870e+2
-0.386, 3.3748936e-8, -2.2574749e-8, 2.3833203e+2
-0.385, 3.3561616e-8, -2.2552943e-8, 2.3866536e+2
-0.384, 3.3463600e-8, -2.2524263e-8, 2.3899869e+2
-0.383, 3.3296491e-8, -2.2493511e-8, 2.3933202e+2
-0.382, 3.3092629e-8, -2.2446379e-8, 2.3966534e+2
-0.381, 3.2994059e-8, -2.2408196e-8, 2.3999867e+2
-0.380, 3.2874716e-8, -2.2372809e-8, 2.4033200e+2
-0.379, 3.2698818e-8, -2.2308026e-8, 2.4066533e+2
-0.378, 3.2536658e-8, -2.2272637e-8, 2.4099866e+2
-0.377, 3.2482738e-8, -2.2238369e-8, 2.4133199e+2
-0.376, 3.2376096e-8, -2.2228624e-8, 2.4166531e+2
-0.375, 3.2192290e-8, -2.2214564e-8, 2.4199864e+2
-0.374, 3.2071512e-8, -2.2196032e-8, 2.4233197e+2
-0.373, 3.2011599e-8, -2.2183411e-8, 2.4266530e+2
-0.372, 3.1961115e-8, -2.2171907e-8, 2.4299863e+2
-0.371, 3.1867256e-8, -2.2148583e-8, 2.4333195e+2
-0.370, 3.1662758e-8, -2.2134444e-8, 2.4366528e+2
-0.369, 3.1573851e-8, -2.2112076e-8, 2.4399861e+2
-0.368, 3.1514578e-8, -2.2091069e-8, 2.4433194e+2
-0.367, 3.1444841e-8, -2.2060554e-8, 2.4466527e+2
-0.366, 3.1403221e-8, -2.2040263e-8, 2.4499860e+2
-0.365, 3.1235952e-8, -2.2002560e-8, 2.4533192e+2
-0.364, 3.1137301e-8, -2.1963578e-8, 2.4566525e+2
-0.363, 3.1078269e-8, -2.1928829e-8, 2.4599858e+2
-0.362, 3.1041203e-8, -2.1881460e-8, 2.4633191e+2
-0.361, 3.1004376e-8, -2.1851823e-8, 2.4666524e+2
-0.360, 3.0958127e-8, -2.1814760e-8, 2.4699857e+2
-0.359, 3.0902129e-8, -2.1790715e-8, 2.4733189e+2
-0.358, 3.0828719e-8, -2.1762677e-8, 2.4766522e+2
-0.357, 3.0662726e-8, -2.1727290e-8, 2.4799855e+2
-0.356, 3.0584520e-8, -2.1705320e-8, 2.4833188e+2
-0.355, 3.0532600e-8, -2.1690385e-8, 2.4866521e+2
-0.354, 3.0478759e-8, -2.1676643e-8, 2.4899854e+2
-0.353, 3.0357977e-8, -2.1659229e-8, 2.4933186e+2
-0.352, 3.0201171e-8, -2.1639659e-8, 2.4966519e+2
-0.351, 3.0093492e-8, -2.1627198e-8, 2.4999852e+2
-0.350, 3.0043644e-8, -2.1612420e-8, 2.5033185e+2
-0.349, 2.9902736e-8, -2.1600597e-8, 2.5066518e+2
-0.348, 2.9678667e-8, -2.1558341e-8, 2.5099850e+2
-0.347, 2.9580573e-8, -2.1523672e-8, 2.5133183e+2
-0.346, 2.9508200e-8, -2.1489004e-8, 2.5166516e+2
-0.345, 2.9376958e-8, -2.1439716e-8, 2.5199849e+2
-0.344, 2.9214236e-8, -2.1402892e-8, 2.5233182e+2
-0.343, 2.9102964e-8, -2.1356000e-8, 2.5266515e+2
-0.342, 2.9051280e-8, -2.1310628e-8, 2.5299847e+2
-0.341, 2.8948314e-8, -2.1295611e-8, 2.5333180e+2
-0.340, 2.8795821e-8, -2.1267013e-8, 2.5366513e+2
-0.339, 2.8643647e-8, -2.1248560e-8, 2.5399846e+2
-0.338, 2.8543713e-8, -2.1229390e-8, 2.5433179e+2
-0.337, 2.8359908e-8, -2.1219883e-8, 2.5466512e+2
-0.336, 2.8238649e-8, -2.1199353e-8, 2.5499844e+2
-0.335, 2.8165877e-8, -2.1178264e-8, 2.5533177e+2
-0.334, 2.8111158e-8, -2.1160451e-8, 2.5566510e+2
-0.333, 2.8017217e-8, -2.1141599e-8, 2.5599843e+2
-0.332, 2.7770863e-8, -2.1126102e-8, 2.5633176e+2
-0.331, 2.7635705e-8, -2.1103018e-8, 2.5666510e+2
-0.330, 2.7569483e-8, -2.1069306e-8, 2.5699844e+2
-0.329, 2.7468834e-8, -2.1021538e-8, 2.5733179e+2
-0.328, 2.7306275e-8, -2.0974968e-8, 2.5766513e+2
-0.327, 2.7164244e-8, -2.0887578e-8, 2.5799847e+2
-0.326, 2.7117434e-8, -2.0854587e-8, 2.5833182e+2
-0.325, 2.7063198e-8, -2.0809134e-8, 2.5866516e+2
-0.324, 2.6952801e-8, -2.0779739e-8, 2.5899850e+2
-0.323, 2.6858700e-8, -2.0746587e-8, 2.5933185e+2
-0.322, 2.6665386e-8, -2.0723501e-8, 2.5966519e+2
-0.321, 2.6635513e-8, -2.0704890e-8, 2.5999854e+2
-0.320, 2.6587504e-8, -2.0665906e-8, 2.6033188e+2
-0.319, 2.6426623e-8, -2.0645777e-8, 2.6066522e+2
-0.318, 2.6319901e-8, -2.0601203e-8, 2.6099857e+2
-0.317, 2.6217732e-8, -2.0539854e-8, 2.6133191e+2
-0.316, 2.6156146e-8, -2.0467880e-8, 2.6166525e+2
-0.315, 2.6112769e-8, -2.0381929e-8, 2.6199860e+2
-0.314, 2.6037283e-8, -2.0312992e-8, 2.6233194e+2
-0.313, 2.5920496e-8, -2.0273850e-8, 2.6266528e+2
-0.312, 2.5816968e-8, -2.0243494e-8, 2.6299863e+2
-0.311, 2.5703457e-8, -2.0204912e-8, 2.6333197e+2
-0.310, 2.5653053e-8, -2.0167368e-8, 2.6366531e+2
-0.309, 2.5626532e-8, -2.0119758e-8, 2.6399866e+2
-0.308, 2.5527719e-8, -2.0025180e-8, 2.6433200e+2
-0.307, 2.5471643e-8, -1.9919257e-8, 2.6466534e+2
-0.306, 2.5315073e-8, -1.9806784e-8, 2.6499869e+2
-0.305, 2.5243342e-8, -1.9761250e-8, 2.6533203e+2
-0.304, 2.5182471e-8, -1.9713005e-8, 2.6566537e+2
-0.303, 2.5130310e-8, -1.9661160e-8, 2.6599872e+2
-0.302, 2.5072154e-8, -1.9594699e-8, 2.6633206e+2
-0.301, 2.4964395e-8, -1.9492372e-8, 2.6666541e+2
-0.300, 2.4757345e-8, -1.9362565e-8, 2.6699875e+2
-0.299, 2.4678821e-8, -1.9279248e-8, 2.6733209e+2
-0.298, 2.4599657e-8, -1.9229164e-8, 2.6766544e+2
-0.297, 2.4471209e-8, -1.9172846e-8, 2.6799878e+2
-0.296, 2.4257448e-8, -1.9101593e-8, 2.6833212e+2
-0.295, 2.4181400e-8, -1.8942629e-8, 2.6866547e+2
-0.294, 2.4113662e-8, -1.8818893e-8, 2.6899881e+2
-0.293, 2.3891351e-8, -1.8746999e-8, 2.6933215e+2
-0.292, 2.3724319e-8, -1.8673669e-8, 2.6966550e+2
-0.291, 2.3659217e-8, -1.8536992e-8, 2.6999884e+2
-0.290, 2.3441940e-8, -1.8357179e-8, 2.7033218e+2
-0.289, 2.3249106e-8, -1.8269869e-8, 2.7066553e+2
-0.288, 2.3143423e-8, -1.8176008e-8, 2.7099887e+2
-0.287, 2.2943240e-8, -1.7996914e-8, 2.7133221e+2
-0.286, 2.2731395e-8, -1.7813987e-8, 2.7166556e+2
-0.285, 2.2607262e-8, -1.7711100e-8, 2.7199890e+2
-0.284, 2.2296282e-8, -1.7529370e-8, 2.7233224e+2
-0.283, 2.2190122e-8, -1.7325991e-8, 2.7266559e+2
-0.282, 2.1950237e-8, -1.7213042e-8, 2.7299893e+2
-0.281, 2.1721936e-8, -1.6983302e-8, 2.7333228e+2
-0.280, 2.1480217e-8, -1.6788551e-8, 2.7366562e+2
-0.279, 2.1236419e-8, -1.6623277e-8, 2.7399896e+2
-0.278, 2.0963384e-8, -1.6344172e-8, 2.7433231e+2
-0.277, 2.0721105e-8, -1.6196552e-8, 2.7466565e+2
-0.276, 2.0374101e-8, -1.5909619e-8, 2.7499899e+2
-0.275, 2.0105540e-8, -1.5736994e-8, 2.7533234e+2
-0.274, 1.9752145e-8, -1.5409881e-8, 2.7566568e+2
-0.273, 1.9334767e-8, -1.5246764e-8, 2.7599902e+2
-0.272, 1.9038167e-8, -1.4918211e-8, 2.7633237e+2
-0.271, 1.8655216e-8, -1.4711639e-8, 2.7666571e+2
-0.270, 1.8276818e-8, -1.4372464e-8, 2.7699905e+2
-0.269, 1.7828286e-8, -1.4086968e-8, 2.7733240e+2
-0.268, 1.7361540e-8, -1.3806345e-8, 2.7766574e+2
-0.267, 1.6953106e-8, -1.3461018e-8, 2.7799908e+2
-0.266, 1.6521188e-8, -1.3218659e-8, 2.7833243e+2
-0.265, 1.6146785e-8, -1.2857995e-8, 2.7866577e+2
-0.264, 1.5698332e-8, -1.2505080e-8, 2.7899911e+2
-0.263, 1.5269530e-8, -1.2235481e-8, 2.7933246e+2
-0.262, 1.4813887e-8, -1.1839989e-8, 2.7966580e+2
-0.261, 1.4364556e-8, -1.1453044e-8, 2.7999915e+2
-0.260, 1.3867614e-8, -1.1148377e-8, 2.8033249e+2
-0.259, 1.3388006e-8, -1.0835961e-8, 2.8066583e+2
-0.258, 1.2929249e-8, -1.0441108e-8, 2.8099918e+2
-0.257, 1.2447006e-8, -1.0108883e-8, 2.8133252e+2
-0.256, 1.1955257e-8, -9.7729016e-9, 2.8166586e+2
-0.255, 1.1446813e-8, -9.4059276e-9, 2.8199921e+2
-0.254, 1.0997321e-8, -9.0311243e-9, 2.8233255e+2
-0.253, 1.0556456e-8, -8.7309306e-9, 2.8266589e+2
-0.252, 1.0101453e-8, -8.4062135e-9, 2.8299924e+2
-0.251, 9.6426156e-9, -8.0155145e-9, 2.8333258e+2
-0.250, 9.2236379e-9, -7.6844868e-9, 2.8366592e+2
-0.249, 8.8334975e-9, -7.4092954e-9, 2.8399927e+2
-0.248, 8.4282608e-9, -7.0356108e-9, 2.8433261e+2
-0.247, 8.0105620e-9, -6.7874999e-9, 2.8466595e+2
-0.246, 7.5676203e-9, -6.4804366e-9, 2.8499930e+2
-0.245, 7.1976900e-9, -6.1363878e-9, 2.8533264e+2
-0.244, 6.8975763e-9, -5.9048126e-9, 2.8566599e+2
-0.243, 6.5556049e-9, -5.5585274e-9, 2.8599933e+2
-0.242, 6.0998824e-9, -5.3363776e-9, 2.8633267e+2
-0.241, 5.8091145e-9, -5.0455298e-9, 2.8666602e+2
-0.240, 5.5385567e-9, -4.7934248e-9, 2.8699936e+2
-0.239, 5.1357953e-9, -4.5528221e-9, 2.8733270e+2
-0.238, 4.9344151e-9, -4.3491251e-9, 2.8766605e+2
-0.237, 4.6028279e-9, -4.0764103e-9, 2.8799939e+2
-0.236, 4.3029540e-9, -3.9090593e-9, 2.8833273e+2
-0.235, 4.0899901e-9, -3.6273182e-9, 2.8866608e+2
-0.234, 3.7534509e-9, -3.5009462e-9, 2.8899942e+2
-0.233, 3.5778716e-9, -3.2839089e-9, 2.8933276e+2
-0.232, 3.3156216e-9, -3.0902767e-9, 2.8966611e+2
-0.231, 3.1105667e-9, -2.9790821e-9, 2.8999945e+2
-0.230, 2.9187717e-9, -2.7552549e-9, 2.9033279e+2
-0.229, 2.6926279e-9, -2.6133857e-9, 2.9066614e+2
-0.228, 2.5655369e-9, -2.5190461e-9, 2.9099948e+2
-0.227, 2.3488191e-9, -2.3473812e-9, 2.9133282e+2
-0.226, 2.1455213e-9, -2.1660509e-9, 2.9166617e+2
-0.225, 2.0455899e-9, -2.0833737e-9, 2.9199951e+2
-0.224, 1.8021917e-9, -1.9964630e-9, 2.9233286e+2
-0.223, 1.6647163e-9, -1.8272744e-9, 2.9266620e+2
-0.222, 1.6163880e-9, -1.6937132e-9, 2.9299954e+2
-0.221, 1.4595012e-9, -1.6306868e-9, 2.9333289e+2
-0.220, 1.2411059e-9, -1.5653439e-9, 2.9366623e+2
-0.219, 1.1752039e-9, -1.5048738e-9, 2.9399957e+2
-0.218, 1.1090623e-9, -1.4017472e-9, 2.9433292e+2
-0.217, 9.3723773e-10, -1.2809667e-9, 2.9466626e+2
-0.216, 8.2212881e-10, -1.2054789e-9, 2.9499960e+2
-0.215, 7.3457901e-10, -1.1411745e-9, 2.9533295e+2
-0.214, 6.7762368e-10, -1.0918079e-9, 2.9566629e+2
-0.213, 6.2258554e-10, -1.0546631e-9, 2.9599963e+2
-0.212, 5.2568955e-10, -1.0024208e-9, 2.9633298e+2
-0.211, 4.1457476e-10, -9.4378794e-10, 2.9666632e+2
-0.210, 2.6216138e-10, -8.5136537e-10, 2.9699966e+2
-0.209, 2.1119714e-10, -7.8338647e-10, 2.9733301e+2
-0.208, 1.9058778e-10, -7.1972112e-10, 2.9766635e+2
-0.207, 1.1653786e-10, -6.8824790e-10, 2.9799969e+2
-0.206, 7.4440454e-11, -6.6108824e-10, 2.9833304e+2
-0.205, 9.8964075e-12, -6.4399369e-10, 2.9866638e+2
-0.204, -1.3341055e-10, -6.2633992e-10, 2.9899973e+2
-0.203, -1.6911744e-10, -6.0005900e-10, 2.9933307e+2
-0.202, -2.4995728e-10, -5.8152655e-10, 2.9966641e+2
-0.201, -2.7903402e-10, -5.6770710e-10, 2.9999976e+2
-0.200, -2.9205469e-10, -5.3775162e-10, 3.0033310e+2
-0.199, -3.2296874e-10, -5.1889965e-10, 3.0066644e+2
-0.198, -3.6306910e-10, -4.9485543e-10, 3.0099979e+2
-0.197, -4.0109255e-10, -4.6913362e-10, 3.0133313e+2
-0.196, -4.5517218e-10, -4.3478474e-10, 3.0166647e+2
-0.195, -4.9159804e-10, -4.1769013e-10, 3.0199982e+2
-0.194, -5.8314192e-10, -3.7479392e-10, 3.0233316e+2
-0.193, -6.4896405e-10, -3.4571715e-10, 3.0266650e+2
-0.192, -7.1558504e-10, -3.0585640e-10, 3.0299985e+2
-0.191, -7.5664397e-10, -2.8940086e-10, 3.0333319e+2
-0.190, -7.5640433e-10, -2.6096314e-10, 3.0366653e+2
-0.189, -7.8372370e-10, -2.4650462e-10, 3.0399988e+2
-0.188, -8.2270579e-10, -2.2541599e-10, 3.0433322e+2
-0.187, -8.2478263e-10, -2.2573550e-10, 3.0466656e+2
-0.186, -8.3628560e-10, -2.0496638e-10, 3.0499991e+2
-0.185, -8.7502794e-10, -1.9761731e-10, 3.0533325e+2
-0.184, -8.9595681e-10, -1.8795170e-10, 3.0566660e+2
-0.183, -9.0953661e-10, -1.8803158e-10, 3.0599994e+2
-0.182, -9.6529373e-10, -1.7341330e-10, 3.0633328e+2
-0.181, -9.9892372e-10, -1.7101687e-10, 3.0666663e+2
-0.180, -1.0334325e-9, -1.5791633e-10, 3.0699997e+2
-0.179, -1.0827192e-9, -1.5855539e-10, 3.0733331e+2
-0.178, -1.1553312e-9, -1.5376252e-10, 3.0766666e+2
-0.177, -1.1512573e-9, -1.4297855e-10, 3.0800000e+2
-0.176, -1.1997452e-9, -1.4896964e-10, 3.0833334e+2
-0.175, -1.2340942e-9, -1.3706734e-10, 3.0866669e+2
-0.174, -1.2326563e-9, -1.3387209e-10, 3.0900003e+2
-0.173, -1.2575793e-9, -1.3347268e-10, 3.0933337e+2
-0.172, -1.2800259e-9, -1.2165026e-10, 3.0966672e+2
-0.171, -1.2804252e-9, -1.2029228e-10, 3.1000006e+2
-0.170, -1.3027920e-9, -1.1781597e-10, 3.1033340e+2
-0.169, -1.3221232e-9, -1.1086630e-10, 3.1066675e+2
-0.168, -1.3343451e-9, -1.0958819e-10, 3.1100009e+2
-0.167, -1.3430521e-9, -1.1046689e-10, 3.1133344e+2
-0.166, -1.3746052e-9, -1.0846986e-10, 3.1166678e+2
-0.165, -1.3826733e-9, -9.7366365e-11, 3.1200012e+2
-0.164, -1.3936170e-9, -9.8165170e-11, 3.1233347e+2
-0.163, -1.4147057e-9, -9.4810167e-11, 3.1266681e+2
-0.162, -1.4458593e-9, -9.6407791e-11, 3.1300015e+2
-0.161, -1.4327588e-9, -9.1135627e-11, 3.1333350e+2
-0.160, -1.4625545e-9, -8.8499548e-11, 3.1366684e+2
-0.159, -1.5497049e-9, -9.1295388e-11, 3.1400018e+2
-0.158, -1.4972230e-9, -8.4665247e-11, 3.1433353e+2
-0.157, -1.5850923e-9, -8.3227383e-11, 3.1466687e+2
-0.156, -1.6242341e-9, -8.1869400e-11, 3.1500021e+2
-0.155, -1.6148082e-9, -7.7875345e-11, 3.1533356e+2
-0.154, -1.6680889e-9, -7.4680095e-11, 3.1566690e+2
-0.153, -1.6887782e-9, -8.2748100e-11, 3.1600024e+2
-0.152, -1.6984437e-9, -7.6757004e-11, 3.1633359e+2
-0.151, -1.7197721e-9, -7.3641641e-11, 3.1666693e+2
-0.150, -1.7336713e-9, -7.1165317e-11, 3.1700027e+2
-0.149, -1.7658636e-9, -6.8289596e-11, 3.1733362e+2
-0.148, -1.7566772e-9, -5.9103250e-11, 3.1766696e+2
-0.147, -1.7654641e-9, -6.6452323e-11, 3.1800031e+2
-0.146, -1.7891091e-9, -5.9183138e-11, 3.1833365e+2
-0.145, -1.7819196e-9, -6.4934579e-11, 3.1866699e+2
-0.144, -1.7870320e-9, -6.0381353e-11, 3.1900034e+2
-0.143, -1.8177864e-9, -5.7026339e-11, 3.1933368e+2
-0.142, -1.8094788e-9, -5.3351802e-11, 3.1966702e+2
-0.141, -1.8283306e-9, -5.5348833e-11, 3.2000037e+2
-0.140, -1.8334430e-9, -4.5683204e-11, 3.2033371e+2
-0.139, -1.8383158e-9, -5.4390256e-11, 3.2066705e+2
-0.138, -1.8566885e-9, -4.8718689e-11, 3.2100040e+2
-0.137, -1.8618808e-9, -4.3526408e-11, 3.2133374e+2
-0.136, -1.8652357e-9, -4.7520470e-11, 3.2166708e+2
-0.135, -1.8879220e-9, -3.8573773e-11, 3.2200043e+2
-0.134, -1.8826500e-9, -3.8973179e-11, 3.2233377e+2
-0.133, -1.9049367e-9, -3.4419950e-11, 3.2266711e+2
-0.132, -1.9127653e-9, -3.6576742e-11, 3.2300046e+2
-0.131, -1.9063746e-9, -4.1848903e-11, 3.2333380e+2
-0.130, -1.9418418e-9, -3.4979117e-11, 3.2366714e+2
-0.129, -1.9452768e-9, -2.7230636e-11, 3.2400049e+2
-0.128, -1.9491910e-9, -2.6591585e-11, 3.2433383e+2
-0.127, -2.0133355e-9, -2.6911110e-11, 3.2466718e+2
-0.126, -1.9768300e-9, -3.4819356e-11, 3.2500052e+2
-0.125, -2.0234805e-9, -3.8573773e-11, 3.2533386e+2
-0.124, -2.0416135e-9, -3.2263154e-11, 3.2566721e+2
-0.123, -2.0430515e-9, -2.6112298e-11, 3.2600055e+2
-0.122, -2.1079150e-9, -2.4434793e-11, 3.2633389e+2
-0.121, -2.1199771e-9, -1.6526551e-11, 3.2666724e+2
-0.120, -2.1290836e-9, -2.3156694e-11, 3.2700058e+2
-0.119, -2.1415449e-9, -1.7644887e-11, 3.2733392e+2
-0.118, -2.1489739e-9, -2.8988024e-11, 3.2766727e+2
-0.117, -2.1864384e-9, -2.5393370e-11, 3.2800061e+2
-0.116, -2.1774915e-9, -2.3396337e-11, 3.2833395e+2
-0.115, -2.2143170e-9, -2.4354912e-11, 3.2866730e+2
-0.114, -2.2383611e-9, -1.2053201e-11, 3.2900064e+2
-0.113, -2.2306126e-9, -1.5328331e-11, 3.2933398e+2
-0.112, -2.2306925e-9, -1.7245481e-11, 3.2966733e+2
-0.111, -2.2560147e-9, -2.5792776e-11, 3.3000067e+2
-0.110, -2.2449114e-9, -1.6606432e-11, 3.3033401e+2
-0.109, -2.2549764e-9, -1.6686314e-11, 3.3066736e+2
-0.108, -2.2697544e-9, -4.7840078e-12, 3.3100070e+2
-0.107, -2.2676776e-9, 8.8747538e-14, 3.3133405e+2
-0.106, -2.2657602e-9, -1.4289960e-12, 3.3166739e+2
-0.105, -2.2922808e-9, -3.9053990e-13, 3.3200073e+2
-0.104, -2.2799791e-9, 6.3194844e-12, 3.3233408e+2
-0.103, -2.3263103e-9, -1.9881646e-12, 3.3266742e+2
-0.102, -2.3029052e-9, -2.5473334e-12, 3.3300076e+2
-0.101, -2.3260707e-9, 7.5975840e-12, 3.3333411e+2
-0.100, -2.3193607e-9, 4.8816220e-12, 3.3366745e+2
-0.099, -2.3333400e-9, 5.9200778e-12, 3.3400079e+2
-0.098, -2.3394109e-9, 5.9999592e-12, 3.3433414e+2
-0.097, -2.3446032e-9, 1.0792834e-11, 3.3466748e+2
-0.096, -2.3573841e-9, 1.6384520e-11, 3.3500082e+2
-0.095, -2.3806295e-9, 5.9200778e-12, 3.3533417e+2
-0.094, -2.3732805e-9, 1.0233665e-11, 3.3566751e+2
-0.093, -2.3838249e-9, 2.8766113e-11, 3.3600085e+2
-0.092, -2.4077893e-9, 1.7023570e-11, 3.3633420e+2
-0.091, -2.3902154e-9, 2.2934783e-11, 3.3666754e+2
-0.090, -2.4266411e-9, 1.8221789e-11, 3.3700089e+2
-0.089, -2.4287181e-9, 2.1337158e-11, 3.3733423e+2
-0.088, -2.4426174e-9, 2.5810505e-11, 3.3766757e+2
-0.087, -2.4651439e-9, 3.2999818e-11, 3.3800092e+2
-0.086, -2.4698570e-9, 3.3159579e-11, 3.3833426e+2
-0.085, -2.4736910e-9, 1.5186302e-11, 3.3866760e+2
-0.084, -2.4961380e-9, 2.8286826e-11, 3.3900095e+2
-0.083, -2.5264129e-9, 4.1866635e-11, 3.3933429e+2
-0.082, -2.5610811e-9, 3.4757208e-11, 3.3966763e+2
-0.081, -2.5624394e-9, 4.5940581e-11, 3.4000098e+2
-0.080, -2.5819302e-9, 4.8177254e-11, 3.4033432e+2
-0.079, -2.6364093e-9, 4.2186161e-11, 3.4066766e+2
-0.078, -2.6204332e-9, 3.8911031e-11, 3.4100101e+2
-0.077, -2.6521461e-9, 3.0683261e-11, 3.4133435e+2
-0.076, -2.6696398e-9, 5.4088463e-11, 3.4166769e+2
-0.075, -2.6456755e-9, 5.4088463e-11, 3.4200104e+2
-0.074, -2.6793854e-9, 5.6165374e-11, 3.4233438e+2
-0.073, -2.6781073e-9, 4.0269010e-11, 3.4266772e+2
-0.072, -2.7082225e-9, 4.9295592e-11, 3.4300107e+2
-0.071, -2.6977580e-9, 6.1916826e-11, 3.4333441e+2
-0.070, -2.7122966e-9, 4.8656541e-11, 3.4366776e+2
-0.069, -2.7230804e-9, 5.8721576e-11, 3.4400110e+2
-0.068, -2.7268348e-9, 6.4473024e-11, 3.4433444e+2
-0.067, -2.7249976e-9, 6.2955280e-11, 3.4466779e+2
-0.066, -2.7445686e-9, 6.1996706e-11, 3.4500113e+2
-0.065, -2.7388969e-9, 7.6934500e-11, 3.4533447e+2
-0.064, -2.7467253e-9, 8.1008443e-11, 3.4566782e+2
-0.063, -2.7642992e-9, 7.3180080e-11, 3.4600116e+2
-0.062, -2.7532754e-9, 6.5431598e-11, 3.4633450e+2
-0.061, -2.7583080e-9, 7.9969989e-11, 3.4666785e+2
-0.060, -2.7677340e-9, 7.5896046e-11, 3.4700119e+2
-0.059, -2.7623819e-9, 8.2126778e-11, 3.4733453e+2
-0.058, -2.7746838e-9, 7.6614971e-11, 3.4766788e+2
-0.057, -2.7908198e-9, 9.3629680e-11, 3.4800122e+2
-0.056, -2.7781983e-9, 9.8582309e-11, 3.4833456e+2
-0.055, -2.8030416e-9, 9.2032056e-11, 3.4866791e+2
-0.054, -2.8042397e-9, 8.1967017e-11, 3.4900125e+2
-0.053, -2.8226124e-9, 9.4188851e-11, 3.4933459e+2
-0.052, -2.8201361e-9, 8.9316096e-11, 3.4966794e+2
-0.051, -2.8276450e-9, 7.9251057e-11, 3.5000128e+2
-0.050, -2.8469762e-9, 8.4043932e-11, 3.5033463e+2
-0.049, -2.8506508e-9, 8.9316096e-11, 3.5066797e+2
-0.048, -2.8505709e-9, 8.6280608e-11, 3.5100131e+2
-0.047, -2.9005767e-9, 8.4603102e-11, 3.5133466e+2
-0.046, -2.8758134e-9, 8.7638584e-11, 3.5166800e+2
-0.045, -2.8928280e-9, 8.6919659e-11, 3.5200134e+2
-0.044, -2.9195883e-9, 8.3564641e-11, 3.5233469e+2
-0.043, -2.9159137e-9, 8.0928562e-11, 3.5266803e+2
-0.042, -2.9349254e-9, 8.6360481e-11, 3.5300137e+2
-0.041, -2.9587301e-9, 7.4777705e-11, 3.5333472e+2
-0.040, -2.9503426e-9, 8.2765829e-11, 3.5366806e+2
-0.039, -2.9702329e-9, 8.1647494e-11, 3.5400140e+2
-0.038, -3.0088156e-9, 8.2206665e-11, 3.5433475e+2
-0.037, -3.0415670e-9, 7.6215569e-11, 3.5466809e+2
-0.036, -3.0318215e-9, 9.4428493e-11, 3.5500143e+2
-0.035, -3.0502740e-9, 7.7573552e-11, 3.5533478e+2
-0.034, -3.1298359e-9, 8.9795379e-11, 3.5566812e+2
-0.033, -3.1185725e-9, 8.6360481e-11, 3.5600146e+2
-0.032, -3.1370249e-9, 9.3150390e-11, 3.5633481e+2
-0.031, -3.1724923e-9, 8.3404880e-11, 3.5666815e+2
-0.030, -3.1678591e-9, 8.8517284e-11, 3.5700150e+2
-0.029, -3.1928622e-9, 9.4108964e-11, 3.5733484e+2
-0.028, -3.2199416e-9, 8.2845716e-11, 3.5766818e+2
-0.027, -3.2179446e-9, 8.9555738e-11, 3.5800153e+2
-0.026, -3.2447849e-9, 9.3709561e-11, 3.5833487e+2
-0.025, -3.2398322e-9, 9.7863391e-11, 3.5866821e+2
-0.024, -3.2506962e-9, 8.6360481e-11, 3.5900156e+2
-0.023, -3.2569267e-9, 1.0577162e-10, 3.5933490e+2
-0.022, -3.2723437e-9, 9.0753953e-11, 3.5966824e+2
-0.021, -3.2854441e-9, 1.0297578e-10, 3.6000159e+2
-0.020, -3.2784149e-9, 1.0169768e-10, 3.6033493e+2
-0.019, -3.2915153e-9, 9.1632646e-11, 3.6066827e+2
-0.018, -3.3153198e-9, 9.9860412e-11, 3.6100162e+2
-0.017, -3.3130831e-9, 1.1224201e-10, 3.6133496e+2
-0.016, -3.3225094e-9, 1.0529234e-10, 3.6166830e+2
-0.015, -3.3400831e-9, 1.0800830e-10, 3.6200165e+2
-0.014, -3.3332133e-9, 1.0776866e-10, 3.6233499e+2
-0.013, -3.3359293e-9, 1.0289591e-10, 3.6266833e+2
-0.012, -3.3536629e-9, 1.0736925e-10, 3.6300168e+2
-0.011, -3.3484706e-9, 1.1631595e-10, 3.6333502e+2
-0.010, -3.3618910e-9, 1.0353496e-10, 3.6366837e+2
-0.009, -3.3634884e-9, 1.1959109e-10, 3.6400171e+2
-0.008, -3.3706777e-9, 1.1320058e-10, 3.6433505e+2
-0.007, -3.3792251e-9, 1.0361483e-10, 3.6466840e+2
-0.006, -3.3799441e-9, 1.2390466e-10, 3.6500174e+2
-0.005, -3.4081418e-9, 1.1863251e-10, 3.6533508e+2
-0.004, -3.4166892e-9, 1.0840771e-10, 3.6566843e+2
-0.003, -3.4130947e-9, 1.1104379e-10, 3.6600177e+2
-0.002, -3.4743635e-9, 1.0257638e-10, 3.6633511e+2
-0.001, -3.4713279e-9, 1.0704972e-10, 3.6666846e+2
-0.000, -3.4905796e-9, 1.1000533e-10, 3.6700180e+2
0.001, -3.5533660e-9, 1.1112367e-10, 3.6733514e+2
0.002, -3.5479342e-9, 1.1240177e-10, 3.6766849e+2
0.003, -3.5861973e-9, 1.2062953e-10, 3.6800183e+2
0.004, -3.5977004e-9, 1.0369471e-10, 3.6833517e+2
0.005, -3.6360432e-9, 1.2789873e-10, 3.6866852e+2
0.006, -3.6619245e-9, 1.3612650e-10, 3.6900186e+2
0.007, -3.6942767e-9, 1.4012055e-10, 3.6933521e+2
0.008, -3.6696732e-9, 1.1655560e-10, 3.6966855e+2
0.009, -3.7019450e-9, 1.3301113e-10, 3.7000189e+2
0.010, -3.6922794e-9, 1.3117386e-10, 3.7033524e+2
0.011, -3.7101728e-9, 1.3772412e-10, 3.7066858e+2
0.012, -3.7255101e-9, 1.2198752e-10, 3.7100192e+2
0.013, -3.7243117e-9, 1.3796377e-10, 3.7133527e+2
0.014, -3.7460395e-9, 1.4195782e-10, 3.7166861e+2
0.015, -3.7469183e-9, 1.3908211e-10, 3.7200195e+2
0.016, -3.7366137e-9, 1.3844306e-10, 3.7233530e+2
0.017, -3.7811874e-9, 1.4059985e-10, 3.7266864e+2
0.018, -3.7757553e-9, 1.5306131e-10, 3.7300198e+2
0.019, -3.7769539e-9, 1.4331580e-10, 3.7333533e+2
0.020, -3.8114623e-9, 1.4259688e-10, 3.7366867e+2
0.021, -3.7978825e-9, 1.4499332e-10, 3.7400201e+2
0.022, -3.8132200e-9, 1.2949636e-10, 3.7433536e+2
0.023, -3.8171342e-9, 1.3141351e-10, 3.7466870e+2
0.024, -3.8271990e-9, 1.5226251e-10, 3.7500204e+2
0.025, -3.8567549e-9, 1.3109398e-10, 3.7533539e+2
0.026, -3.8543586e-9, 1.4083949e-10, 3.7566873e+2
0.027, -3.8823171e-9, 1.4770928e-10, 3.7600208e+2
0.028, -3.8860715e-9, 1.5114417e-10, 3.7633542e+2
0.029, -3.9169854e-9, 1.4962642e-10, 3.7666876e+2
0.030, -3.9633168e-9, 1.3173303e-10, 3.7700211e+2
0.031, -3.9481391e-9, 1.5082464e-10, 3.7733545e+2
0.032, -3.9443049e-9, 1.4826844e-10, 3.7766879e+2
0.033, -4.0465529e-9, 1.5218263e-10, 3.7800214e+2
0.034, -4.0368073e-9, 1.4770928e-10, 3.7833548e+2
0.035, -4.0355292e-9, 1.5186311e-10, 3.7866882e+2
0.036, -4.1339430e-9, 1.4507320e-10, 3.7900217e+2
0.037, -4.1280317e-9, 1.4986606e-10, 3.7933551e+2
0.038, -4.1050261e-9, 1.5258203e-10, 3.7966885e+2
0.039, -4.1342623e-9, 1.4579213e-10, 3.8000220e+2
0.040, -4.1734038e-9, 1.5929205e-10, 3.8033554e+2
0.041, -4.1936943e-9, 1.6104945e-10, 3.8066888e+2
0.042, -4.1967296e-9, 1.7167365e-10, 3.8100223e+2
0.043, -4.2151820e-9, 1.5098441e-10, 3.8133557e+2
0.044, -4.2178181e-9, 1.6504351e-10, 3.8166891e+2
0.045, -4.2203743e-9, 1.7582748e-10, 3.8200226e+2
0.046, -4.2587174e-9, 1.7055532e-10, 3.8233560e+2
0.047, -4.2425015e-9, 1.7183342e-10, 3.8266895e+2
0.048, -4.2484127e-9, 1.6919734e-10, 3.8300229e+2
0.049, -4.2834007e-9, 1.6911744e-10, 3.8333563e+2
0.050, -4.2813237e-9, 1.6344588e-10, 3.8366898e+2
0.051, -4.2794865e-9, 1.6200802e-10, 3.8400232e+2
0.052, -4.3235810e-9, 1.6759971e-10, 3.8433566e+2
0.053, -4.3226223e-9, 1.6472398e-10, 3.8466901e+2
0.054, -4.3456283e-9, 1.7127424e-10, 3.8500235e+2
0.055, -4.3735069e-9, 1.5913229e-10, 3.8533569e+2
0.056, -4.3884447e-9, 1.5729502e-10, 3.8566904e+2
0.057, -4.4092934e-9, 1.7255233e-10, 3.8600238e+2
0.058, -4.4286246e-9, 1.5761456e-10, 3.8633572e+2
0.059, -4.5025148e-9, 1.6104945e-10, 3.8666907e+2
0.060, -4.4880566e-9, 1.5761456e-10, 3.8700241e+2
0.061, -4.5163344e-9, 1.7063519e-10, 3.8733575e+2
0.062, -4.5930202e-9, 1.5825360e-10, 3.8766910e+2
0.063, -4.5882276e-9, 1.5865301e-10, 3.8800244e+2
0.064, -4.6490971e-9, 1.5857313e-10, 3.8833578e+2
0.065, -4.6509343e-9, 1.6911744e-10, 3.8866913e+2
0.066, -4.6779340e-9, 1.7151389e-10, 3.8900247e+2
0.067, -4.6849635e-9, 1.6408493e-10, 3.8933582e+2
0.068, -4.7090878e-9, 1.6927722e-10, 3.8966916e+2
0.069, -4.6946291e-9, 1.8093987e-10, 3.9000250e+2
0.070, -4.7114841e-9, 1.6584233e-10, 3.9033585e+2
0.071, -4.7379247e-9, 1.8421500e-10, 3.9066919e+2
0.072, -4.7280992e-9, 1.7151389e-10, 3.9100253e+2
0.073, -4.7463122e-9, 1.8397536e-10, 3.9133588e+2
0.074, -4.7775459e-9, 1.7678606e-10, 3.9166922e+2
0.075, -4.7879305e-9, 1.8221798e-10, 3.9200256e+2
0.076, -4.8329833e-9, 1.6664113e-10, 3.9233591e+2
0.077, -4.8135727e-9, 1.7870321e-10, 3.9266925e+2
0.078, -4.8658149e-9, 1.6640149e-10, 3.9300259e+2
0.079, -4.8816311e-9, 1.8125940e-10, 3.9333594e+2
0.080, -4.8693298e-9, 1.6017075e-10, 3.9366928e+2
0.081, -5.0050479e-9, 1.7111448e-10, 3.9400262e+2
0.082, -4.9880331e-9, 1.6184826e-10, 3.9433597e+2
0.083, -5.0153526e-9, 1.7143401e-10, 3.9466931e+2
0.084, -5.1366924e-9, 1.7023580e-10, 3.9500266e+2
0.085, -5.0774998e-9, 1.7063519e-10, 3.9533600e+2
0.086, -5.2001976e-9, 1.7111448e-10, 3.9566934e+2
0.087, -5.1878959e-9, 1.7430973e-10, 3.9600269e+2
0.088, -5.1934079e-9, 1.5593704e-10, 3.9633603e+2
0.089, -5.2270375e-9, 1.6248730e-10, 3.9666937e+2
0.090, -5.2453308e-9, 1.8820906e-10, 3.9700272e+2
0.091, -5.2668185e-9, 1.8277714e-10, 3.9733606e+2
0.092, -5.2756057e-9, 1.7135413e-10, 3.9766940e+2
0.093, -5.2973332e-9, 1.8940728e-10, 3.9800275e+2
0.094, -5.3212976e-9, 1.9412028e-10, 3.9833609e+2
0.095, -5.3192206e-9, 1.8717061e-10, 3.9866943e+2
0.096, -5.3317621e-9, 1.9388063e-10, 3.9900278e+2
0.097, -5.3786526e-9, 2.0378590e-10, 3.9933612e+2
0.098, -5.3772147e-9, 1.9843385e-10, 3.9966946e+2
0.099, -5.0284532e-9, 1.8325642e-10, 4.0000281e+2
