Dec. 9, 2005   01:34:40
Cyclic Voltammetry
File: d:\ida_biofilms\11_28_18_blankidapyo\25um_pyo_soak_gc.txt
Data Source:  Experiment
Instrument Model:  CHI760B
Header: 
Note: 

Init E (V) = 0.1
High E (V) = 0.1
Low E (V) = -0.5
Init P/N = N
Scan Rate (V/s) = 0.003
Segment = 2
Sample Interval (V) = 0.001
Quiet Time (sec) = 2
Sensitivity (A/V) = 1e-6
2nd E (V) = 0.1
Sens 2 (A/V) = 1e-6

Potential/V, i1/A, i2/A, Time/s

0.100, -1.9736346e-8, -1.2447006e-8, 3.3333334e-1
0.099, -1.7871120e-8, -1.1099409e-8, 6.6666669e-1
0.098, -1.5540184e-8, -1.0101693e-8, 1.0000000e+0
0.097, -1.3763626e-8, -8.3698675e-9, 1.3333334e+0
0.096, -1.2824223e-8, -7.0222708e-9, 1.6666667e+0
0.095, -1.1949523e-8, -6.4615047e-9, 2.0000000e+0
0.094, -1.0449353e-8, -5.9502647e-9, 2.3333333e+0
0.093, -9.3238270e-9, -5.5748228e-9, 2.6666665e+0
0.092, -8.7191259e-9, -5.1091154e-9, 2.9999998e+0
0.091, -8.2925604e-9, -4.4045629e-9, 3.3333330e+0
0.090, -7.9107272e-9, -3.5745966e-9, 3.6666663e+0
0.089, -7.6039841e-9, -2.8548670e-9, 3.9999995e+0
0.088, -7.1215012e-9, -2.4011415e-9, 4.3333330e+0
0.087, -6.4640786e-9, -2.0680366e-9, 4.6666665e+0
0.086, -5.8090524e-9, -1.8603453e-9, 5.0000000e+0
0.085, -5.3249720e-9, -1.6294885e-9, 5.3333335e+0
0.084, -4.7234665e-9, -1.4841047e-9, 5.6666670e+0
0.083, -4.4934083e-9, -1.2684254e-9, 6.0000005e+0
0.082, -4.1690909e-9, -1.0783081e-9, 6.3333340e+0
0.081, -3.6131171e-9, -1.0807045e-9, 6.6666675e+0
0.080, -3.8359858e-9, -9.3931474e-10, 7.0000010e+0
0.079, -3.5020822e-9, -8.3946317e-10, 7.3333344e+0
0.078, -3.3718757e-9, -7.5478906e-10, 7.6666679e+0
0.077, -3.2177050e-9, -7.2363537e-10, 8.0000010e+0
0.076, -3.1226464e-9, -6.4135769e-10, 8.3333340e+0
0.075, -3.0771139e-9, -5.7345861e-10, 8.6666670e+0
0.074, -2.9828542e-9, -5.2233468e-10, 9.0000000e+0
0.073, -2.9285347e-9, -4.6482015e-10, 9.3333330e+0
0.072, -2.8790084e-9, -4.0171397e-10, 9.6666660e+0
0.071, -2.8302809e-9, -3.0665531e-10, 9.9999990e+0
0.070, -2.7464055e-9, -2.5393368e-10, 1.0333332e+1
0.069, -2.6753113e-9, -1.7085718e-10, 1.0666665e+1
0.068, -2.6201932e-9, -7.2603264e-11, 1.0999998e+1
0.067, -2.5355191e-9, -4.2248392e-11, 1.1333331e+1
0.066, -2.4236855e-9, 1.2869661e-11, 1.1666664e+1
0.065, -2.3158457e-9, 8.5561586e-11, 1.1999997e+1
0.064, -2.2679170e-9, 1.2869746e-10, 1.2333330e+1
0.063, -2.1129474e-9, 1.7582738e-10, 1.2666663e+1
0.062, -2.0626223e-9, 2.4772051e-10, 1.2999996e+1
0.061, -1.9459956e-9, 3.1322311e-10, 1.3333329e+1
0.060, -1.7638664e-9, 3.8671386e-10, 1.3666662e+1
0.059, -1.6871804e-9, 4.0428774e-10, 1.3999995e+1
0.058, -1.4746964e-9, 4.8017490e-10, 1.4333328e+1
0.057, -1.3668566e-9, 5.7283711e-10, 1.4666661e+1
0.056, -1.2422420e-9, 6.0478966e-10, 1.4999994e+1
0.055, -1.1575678e-9, 6.5751121e-10, 1.5333327e+1
0.054, -1.0393435e-9, 7.3499606e-10, 1.5666660e+1
0.053, -9.5227304e-10, 7.6614970e-10, 1.5999993e+1
0.052, -7.6694856e-10, 8.8277635e-10, 1.6333326e+1
0.051, -6.5671246e-10, 9.3310148e-10, 1.6666660e+1
0.050, -5.2331078e-10, 9.7384090e-10, 1.6999994e+1
0.049, -4.6499746e-10, 9.9620767e-10, 1.7333328e+1
0.048, -4.3703904e-10, 1.0137815e-9, 1.7666662e+1
0.047, -2.7967301e-10, 1.0936628e-9, 1.7999996e+1
0.046, -2.1976207e-10, 1.1687512e-9, 1.8333330e+1
0.045, -1.9420007e-10, 1.1743428e-9, 1.8666664e+1
0.044, -6.5591282e-11, 1.2254668e-9, 1.8999998e+1
0.043, 2.0680459e-11, 1.2558218e-9, 1.9333332e+1
0.042, 9.6567636e-11, 1.3237208e-9, 1.9666666e+1
0.041, 1.7165599e-10, 1.3341054e-9, 2.0000000e+1
0.040, 2.1718831e-10, 1.4363533e-9, 2.0333334e+1
0.039, 2.4115268e-10, 1.4515307e-9, 2.0666668e+1
0.038, 3.6816383e-10, 1.5066488e-9, 2.1000002e+1
0.037, 4.1689138e-10, 1.4962642e-9, 2.1333336e+1
0.036, 4.4405102e-10, 1.5401990e-9, 2.1666670e+1
0.035, 4.9197979e-10, 1.5929205e-9, 2.2000004e+1
0.034, 5.9902061e-10, 1.6520327e-9, 2.2333338e+1
0.033, 6.3976002e-10, 1.6376540e-9, 2.2666672e+1
0.032, 5.9582539e-10, 1.6560266e-9, 2.3000006e+1
0.031, 7.3401990e-10, 1.7039554e-9, 2.3333340e+1
0.030, 7.7875345e-10, 1.7343103e-9, 2.3666674e+1
0.029, 8.0431539e-10, 1.7407008e-9, 2.4000008e+1
0.028, 7.7076528e-10, 1.7958189e-9, 2.4333342e+1
0.027, 8.7540969e-10, 1.8117952e-9, 2.4666676e+1
0.026, 8.9058716e-10, 1.8237774e-9, 2.5000010e+1
0.025, 9.3851582e-10, 1.8253750e-9, 2.5333344e+1
0.024, 9.7526132e-10, 1.8341619e-9, 2.5666677e+1
0.023, 9.9762798e-10, 1.8509370e-9, 2.6000011e+1
0.022, 1.0215924e-9, 1.8557298e-9, 2.6333345e+1
0.021, 1.0295805e-9, 1.8836883e-9, 2.6666679e+1
0.020, 1.0838997e-9, 1.8764990e-9, 2.7000013e+1
0.019, 1.0695210e-9, 1.8980668e-9, 2.7333347e+1
0.018, 1.1230415e-9, 1.9555813e-9, 2.7666681e+1
0.017, 1.1158523e-9, 1.9156408e-9, 2.8000015e+1
0.016, 1.1510001e-9, 1.9867350e-9, 2.8333349e+1
0.015, 1.2109109e-9, 1.9995161e-9, 2.8666683e+1
0.014, 1.2348753e-9, 1.9571791e-9, 2.9000017e+1
0.013, 1.2340764e-9, 2.0099005e-9, 2.9333351e+1
0.012, 1.2780111e-9, 2.0226816e-9, 2.9666685e+1
0.011, 1.3003779e-9, 2.0442497e-9, 3.0000019e+1
0.010, 1.3107625e-9, 2.0610245e-9, 3.0333353e+1
0.009, 1.3443126e-9, 2.0410542e-9, 3.0666687e+1
0.008, 1.3427149e-9, 2.0849888e-9, 3.1000021e+1
0.007, 1.3443126e-9, 2.0290720e-9, 3.1333355e+1
0.006, 1.4042235e-9, 2.0873854e-9, 3.1666689e+1
0.005, 1.3666793e-9, 2.0897819e-9, 3.2000023e+1
0.004, 1.4265903e-9, 2.0777997e-9, 3.2333355e+1
0.003, 1.4353772e-9, 2.0754032e-9, 3.2666687e+1
0.002, 1.4713237e-9, 2.0913793e-9, 3.3000019e+1
0.001, 1.4968858e-9, 2.0666162e-9, 3.3333351e+1
-0.000, 1.5232465e-9, 2.0777997e-9, 3.3666683e+1
-0.001, 1.5080691e-9, 2.0514388e-9, 3.4000015e+1
-0.002, 1.5655837e-9, 2.0522377e-9, 3.4333347e+1
-0.003, 1.5559979e-9, 2.0650188e-9, 3.4666679e+1
-0.004, 1.5935421e-9, 2.1177402e-9, 3.5000011e+1
-0.005, 1.5975361e-9, 2.1185391e-9, 3.5333344e+1
-0.006, 1.6031279e-9, 2.1504916e-9, 3.5666676e+1
-0.007, 1.6079206e-9, 2.1153439e-9, 3.6000008e+1
-0.008, 1.6143111e-9, 2.1480950e-9, 3.6333340e+1
-0.009, 1.6318851e-9, 2.2024145e-9, 3.6666672e+1
-0.010, 1.6710268e-9, 2.1784501e-9, 3.7000004e+1
-0.011, 1.6965889e-9, 2.1864381e-9, 3.7333336e+1
-0.012, 1.6901983e-9, 2.2175917e-9, 3.7666668e+1
-0.013, 1.7245473e-9, 2.2175917e-9, 3.8000000e+1
-0.014, 1.7269438e-9, 2.1704620e-9, 3.8333332e+1
-0.015, 1.7269438e-9, 2.2431537e-9, 3.8666664e+1
-0.016, 1.7301390e-9, 2.2048108e-9, 3.8999996e+1
-0.017, 1.7708784e-9, 2.2623252e-9, 3.9333328e+1
-0.018, 1.7844581e-9, 2.2223847e-9, 3.9666660e+1
-0.019, 1.7972391e-9, 2.2711122e-9, 3.9999992e+1
-0.020, 1.8172095e-9, 2.2798994e-9, 4.0333324e+1
-0.021, 1.8164107e-9, 2.2447515e-9, 4.0666656e+1
-0.022, 1.8164107e-9, 2.2575324e-9, 4.0999989e+1
-0.023, 1.8451679e-9, 2.2655207e-9, 4.1333321e+1
-0.024, 1.8371797e-9, 2.3022659e-9, 4.1666653e+1
-0.025, 1.8507597e-9, 2.2838933e-9, 4.1999985e+1
-0.026, 1.8483632e-9, 2.2894850e-9, 4.2333317e+1
-0.027, 1.8747242e-9, 2.2870885e-9, 4.2666649e+1
-0.028, 1.8827122e-9, 2.2886861e-9, 4.2999981e+1
-0.029, 1.8938955e-9, 2.3214375e-9, 4.3333313e+1
-0.030, 1.9090729e-9, 2.2934790e-9, 4.3666645e+1
-0.031, 1.9178599e-9, 2.2958755e-9, 4.3999977e+1
-0.032, 1.9290431e-9, 2.2830944e-9, 4.4333309e+1
-0.033, 1.9346349e-9, 2.3054612e-9, 4.4666641e+1
-0.034, 1.9434219e-9, 2.3006683e-9, 4.4999973e+1
-0.035, 1.9498123e-9, 2.2942777e-9, 4.5333305e+1
-0.036, 1.9705815e-9, 2.2535385e-9, 4.5666637e+1
-0.037, 1.9665876e-9, 2.2743074e-9, 4.5999969e+1
-0.038, 1.9649897e-9, 2.3174436e-9, 4.6333302e+1
-0.039, 1.9977411e-9, 2.2671183e-9, 4.6666634e+1
-0.040, 1.9953446e-9, 2.2775029e-9, 4.6999966e+1
-0.041, 1.9897530e-9, 2.2775029e-9, 4.7333298e+1
-0.042, 2.0057291e-9, 2.2519409e-9, 4.7666630e+1
-0.043, 2.0264983e-9, 2.2775029e-9, 4.7999962e+1
-0.044, 2.0464688e-9, 2.2846922e-9, 4.8333294e+1
-0.045, 2.0472675e-9, 2.2383608e-9, 4.8666626e+1
-0.046, 2.0648414e-9, 2.2559348e-9, 4.8999958e+1
-0.047, 2.0728295e-9, 2.2591302e-9, 4.9333290e+1
-0.048, 2.0632436e-9, 2.2415563e-9, 4.9666622e+1
-0.049, 2.0728295e-9, 2.2671183e-9, 4.9999954e+1
-0.050, 2.0744273e-9, 2.2966742e-9, 5.0333286e+1
-0.051, 2.1119713e-9, 2.2655207e-9, 5.0666618e+1
-0.052, 2.1207582e-9, 2.2375621e-9, 5.0999950e+1
-0.053, 2.1151665e-9, 2.2647217e-9, 5.1333282e+1
-0.054, 2.1527107e-9, 2.2926800e-9, 5.1666615e+1
-0.055, 2.1918525e-9, 2.2767039e-9, 5.1999947e+1
-0.056, 2.1599000e-9, 2.2719111e-9, 5.2333279e+1
-0.057, 2.2214086e-9, 2.2495443e-9, 5.2666611e+1
-0.058, 2.2182134e-9, 2.2806979e-9, 5.2999943e+1
-0.059, 2.2381836e-9, 2.2527396e-9, 5.3333275e+1
-0.060, 2.2685385e-9, 2.2735087e-9, 5.3666607e+1
-0.061, 2.2877100e-9, 2.2583313e-9, 5.3999939e+1
-0.062, 2.2925029e-9, 2.2846922e-9, 5.4333271e+1
-0.063, 2.3484197e-9, 2.2663194e-9, 5.4666603e+1
-0.064, 2.3396327e-9, 2.2719111e-9, 5.4999935e+1
-0.065, 2.4402831e-9, 2.2759050e-9, 5.5333267e+1
-0.066, 2.4059343e-9, 2.2711122e-9, 5.5666599e+1
-0.067, 2.4610523e-9, 2.2838933e-9, 5.5999931e+1
-0.068, 2.4954012e-9, 2.2830944e-9, 5.6333263e+1
-0.069, 2.5313478e-9, 2.2775029e-9, 5.6666595e+1
-0.070, 2.5521170e-9, 2.2711122e-9, 5.6999928e+1
-0.071, 2.6184184e-9, 2.2615265e-9, 5.7333260e+1
-0.072, 2.5800753e-9, 2.2423550e-9, 5.7666592e+1
-0.073, 2.6639506e-9, 2.2583313e-9, 5.7999924e+1
-0.074, 2.6871161e-9, 2.2551359e-9, 5.8333256e+1
-0.075, 2.7358436e-9, 2.2319704e-9, 5.8666588e+1
-0.076, 2.7981513e-9, 2.2327693e-9, 5.8999920e+1
-0.077, 2.8772336e-9, 2.2383608e-9, 5.9333252e+1
-0.078, 2.9227658e-9, 2.2167932e-9, 5.9666584e+1
-0.079, 2.8644525e-9, 2.2303728e-9, 5.9999916e+1
-0.080, 2.9834755e-9, 2.2407574e-9, 6.0333248e+1
-0.081, 3.0226175e-9, 2.2303728e-9, 6.0666580e+1
-0.082, 3.0729426e-9, 2.2223847e-9, 6.0999912e+1
-0.083, 3.1272618e-9, 2.1912312e-9, 6.1333244e+1
-0.084, 3.2462848e-9, 2.1688642e-9, 6.1666576e+1
-0.085, 3.2263143e-9, 2.1880358e-9, 6.1999908e+1
-0.086, 3.3341541e-9, 2.1552844e-9, 6.2333241e+1
-0.087, 3.3812841e-9, 2.1281250e-9, 6.2666573e+1
-0.088, 3.4499821e-9, 2.1257285e-9, 6.2999905e+1
-0.089, 3.5682062e-9, 2.1305213e-9, 6.3333237e+1
-0.090, 3.5769931e-9, 2.1480950e-9, 6.3666569e+1
-0.091, 3.5714016e-9, 2.1520892e-9, 6.3999901e+1
-0.092, 3.7279686e-9, 2.1448998e-9, 6.4333237e+1
-0.093, 3.7439447e-9, 2.1241306e-9, 6.4666573e+1
-0.094, 3.9324650e-9, 2.1113498e-9, 6.4999908e+1
-0.095, 3.9460444e-9, 2.1121485e-9, 6.5333244e+1
-0.096, 4.0187365e-9, 2.1097524e-9, 6.5666580e+1
-0.097, 4.1201855e-9, 2.0873854e-9, 6.5999916e+1
-0.098, 4.1569308e-9, 2.0458473e-9, 6.6333252e+1
-0.099, 4.2455994e-9, 2.0610245e-9, 6.6666588e+1
-0.100, 4.4484976e-9, 2.0346638e-9, 6.6999924e+1
-0.101, 4.4117523e-9, 2.0562316e-9, 6.7333260e+1
-0.102, 4.4988226e-9, 2.0386579e-9, 6.7666595e+1
-0.103, 4.6537925e-9, 1.9907289e-9, 6.7999931e+1
-0.104, 4.6593840e-9, 1.9883326e-9, 6.8333267e+1
-0.105, 4.7392654e-9, 2.0122970e-9, 6.8666603e+1
-0.106, 4.7999751e-9, 2.0122970e-9, 6.8999939e+1
-0.107, 4.8990279e-9, 2.0130959e-9, 6.9333275e+1
-0.108, 4.9860982e-9, 1.9140431e-9, 6.9666611e+1
-0.109, 4.8958322e-9, 1.9755517e-9, 6.9999947e+1
-0.110, 5.1027249e-9, 1.9292206e-9, 7.0333282e+1
-0.111, 5.1490558e-9, 1.9404038e-9, 7.0666618e+1
-0.112, 5.1754170e-9, 1.9124455e-9, 7.0999954e+1
-0.113, 5.3032267e-9, 1.9300193e-9, 7.1333290e+1
-0.114, 5.3487592e-9, 1.9164397e-9, 7.1666626e+1
-0.115, 5.4014806e-9, 1.9124455e-9, 7.1999962e+1
-0.116, 5.4669833e-9, 1.8541322e-9, 7.2333298e+1
-0.117, 5.5316871e-9, 1.8709072e-9, 7.2666634e+1
-0.118, 5.5668350e-9, 1.8293690e-9, 7.2999969e+1
-0.119, 5.6339347e-9, 1.8062035e-9, 7.3333305e+1
-0.120, 5.6523075e-9, 1.8054047e-9, 7.3666641e+1
-0.121, 5.7090230e-9, 1.8205821e-9, 7.3999977e+1
-0.122, 5.7305911e-9, 1.7950200e-9, 7.4333313e+1
-0.123, 5.8176619e-9, 1.7670616e-9, 7.4666649e+1
-0.124, 5.8647922e-9, 1.6887780e-9, 7.4999985e+1
-0.125, 5.8871588e-9, 1.7383044e-9, 7.5333321e+1
-0.126, 5.9502647e-9, 1.6767959e-9, 7.5666656e+1
-0.127, 5.9846137e-9, 1.6624172e-9, 7.5999992e+1
-0.128, 6.0429270e-9, 1.6464410e-9, 7.6333328e+1
-0.129, 6.0908558e-9, 1.5921218e-9, 7.6666664e+1
-0.130, 6.1236070e-9, 1.5913230e-9, 7.7000000e+1
-0.131, 6.1563585e-9, 1.5673586e-9, 7.7333336e+1
-0.132, 6.2330443e-9, 1.5242226e-9, 7.7666672e+1
-0.133, 6.2426300e-9, 1.5282168e-9, 7.8000008e+1
-0.134, 6.2825709e-9, 1.5098441e-9, 7.8333344e+1
-0.135, 6.3297008e-9, 1.4587200e-9, 7.8666679e+1
-0.136, 6.3824221e-9, 1.4315605e-9, 7.9000015e+1
-0.137, 6.4367414e-9, 1.4491344e-9, 7.9333351e+1
-0.138, 6.4583094e-9, 1.4067973e-9, 7.9666687e+1
-0.139, 6.5318000e-9, 1.3716496e-9, 8.0000023e+1
-0.140, 6.5701431e-9, 1.3492828e-9, 8.0333359e+1
-0.141, 6.6044921e-9, 1.2813837e-9, 8.0666695e+1
-0.142, 6.6883676e-9, 1.2358514e-9, 8.1000031e+1
-0.143, 6.7051427e-9, 1.2622122e-9, 8.1333366e+1
-0.144, 6.7219177e-9, 1.1687512e-9, 8.1666702e+1
-0.145, 6.7650534e-9, 1.1367987e-9, 8.2000038e+1
-0.146, 6.8177748e-9, 1.0696984e-9, 8.2333374e+1
-0.147, 6.8353487e-9, 1.0936628e-9, 8.2666710e+1
-0.148, 6.8928632e-9, 1.0417400e-9, 8.3000046e+1
-0.149, 6.9328037e-9, 9.7863384e-10, 8.3333382e+1
-0.150, 6.9527744e-9, 9.4668140e-10, 8.3666718e+1
-0.151, 7.0110877e-9, 8.8437396e-10, 8.4000053e+1
-0.152, 7.0638091e-9, 8.8517282e-10, 8.4333389e+1
-0.153, 7.1053479e-9, 8.3325002e-10, 8.4666725e+1
-0.154, 7.1644597e-9, 7.8372359e-10, 8.5000061e+1
-0.155, 7.1852284e-9, 7.4378304e-10, 8.5333397e+1
-0.156, 7.2762933e-9, 6.3274808e-10, 8.5666733e+1
-0.157, 7.3529796e-9, 6.0319200e-10, 8.6000069e+1
-0.158, 7.4432451e-9, 5.7683125e-10, 8.6333405e+1
-0.159, 7.5167357e-9, 5.1052979e-10, 8.6666740e+1
-0.160, 7.6325639e-9, 4.1467227e-10, 8.7000076e+1
-0.161, 7.7939237e-9, 3.5316375e-10, 8.7333412e+1
-0.162, 7.9249292e-9, 3.1881481e-10, 8.7666748e+1
-0.163, 8.0878868e-9, 2.8526467e-10, 8.8000084e+1
-0.164, 8.3163476e-9, 1.8621195e-10, 8.8333420e+1
-0.165, 8.4633287e-9, 9.3549710e-11, 8.8666756e+1
-0.166, 8.6893923e-9, 1.7662536e-11, 8.9000092e+1
-0.167, 8.9322310e-9, -1.1893523e-11, 8.9333427e+1
-0.168, 9.1558991e-9, -7.0206826e-11, 8.9666763e+1
-0.169, 9.4083239e-9, -1.4050232e-10, 9.0000099e+1
-0.170, 9.7877599e-9, -1.9002869e-10, 9.0333435e+1
-0.171, 1.0005835e-8, -2.5633012e-10, 9.0666771e+1
-0.172, 1.0214325e-8, -3.1144817e-10, 9.1000107e+1
-0.173, 1.0433200e-8, -3.8014603e-10, 9.1333443e+1
-0.174, 1.0637696e-8, -4.3925816e-10, 9.1666779e+1
-0.175, 1.0787873e-8, -4.9277860e-10, 9.2000114e+1
-0.176, 1.0973996e-8, -5.2473104e-10, 9.2333450e+1
-0.177, 1.1252781e-8, -5.7265981e-10, 9.2666786e+1
-0.178, 1.1380592e-8, -6.3496719e-10, 9.3000122e+1
-0.179, 1.1530768e-8, -6.9168288e-10, 9.3333458e+1
-0.180, 1.1676950e-8, -7.3561751e-10, 9.3666794e+1
-0.181, 1.1788784e-8, -7.9313206e-10, 9.4000130e+1
-0.182, 1.1981299e-8, -8.8100138e-10, 9.4333466e+1
-0.183, 1.2264876e-8, -9.4810160e-10, 9.4666801e+1
-0.184, 1.2580408e-8, -1.0543436e-9, 9.5000137e+1
-0.185, 1.3162741e-8, -1.1749643e-9, 9.5333473e+1
-0.186, 1.3693153e-8, -1.3291351e-9, 9.5666809e+1
-0.187, 1.4252322e-8, -1.4928917e-9, 9.6000145e+1
-0.188, 1.4757171e-8, -1.6590447e-9, 9.6333481e+1
-0.189, 1.5210098e-8, -1.8267953e-9, 9.6666817e+1
-0.190, 1.5676605e-8, -2.0424746e-9, 9.7000153e+1
-0.191, 1.6068023e-8, -2.3212601e-9, 9.7333488e+1
-0.192, 1.6382753e-8, -2.6911104e-9, 9.7666824e+1
-0.193, 1.6629588e-8, -3.1695990e-9, 9.8000160e+1
-0.194, 1.6838877e-8, -3.7271701e-9, 9.8333496e+1
-0.195, 1.7231093e-8, -4.3917820e-9, 9.8666832e+1
-0.196, 1.8164904e-8, -4.9293822e-9, 9.9000168e+1
-0.197, 1.9115491e-8, -5.3559486e-9, 9.9333504e+1
-0.198, 2.0094836e-8, -5.6219531e-9, 9.9666840e+1
-0.199, 2.0821755e-8, -5.8895551e-9, 1.0000018e+2
-0.200, 2.1351367e-8, -6.2154704e-9, 1.0033351e+2
-0.201, 2.1730004e-8, -6.6196697e-9, 1.0066685e+2
-0.202, 2.2609496e-8, -7.0046973e-9, 1.0100018e+2
-0.203, 2.4188749e-8, -7.7443971e-9, 1.0133352e+2
-0.204, 2.5374986e-8, -8.9098640e-9, 1.0166685e+2
-0.205, 2.6211342e-8, -9.9962492e-9, 1.0200019e+2
-0.206, 2.6906310e-8, -1.0520270e-8, 1.0233353e+2
-0.207, 2.8062191e-8, -1.1025119e-8, 1.0266686e+2
-0.208, 2.9681383e-8, -1.1941357e-8, 1.0300020e+2
-0.209, 3.1024985e-8, -1.3128393e-8, 1.0333353e+2
-0.210, 3.1743916e-8, -1.4606995e-8, 1.0366687e+2
-0.211, 3.4019735e-8, -1.5464121e-8, 1.0400021e+2
-0.212, 3.5699635e-8, -1.6295685e-8, 1.0433354e+2
-0.213, 3.6591910e-8, -1.7291804e-8, 1.0466688e+2
-0.214, 3.9114557e-8, -1.9537264e-8, 1.0500021e+2
-0.215, 4.0960614e-8, -2.0601282e-8, 1.0533355e+2
-0.216, 4.2772321e-8, -2.1895358e-8, 1.0566689e+2
-0.217, 4.5538609e-8, -2.4428394e-8, 1.0600022e+2
-0.218, 4.7107477e-8, -2.5786374e-8, 1.0633356e+2
-0.219, 5.0322697e-8, -2.7542962e-8, 1.0666689e+2
-0.220, 5.2439550e-8, -3.0079192e-8, 1.0700023e+2
-0.221, 5.5571689e-8, -3.1558592e-8, 1.0733356e+2
-0.222, 5.8605583e-8, -3.4687542e-8, 1.0766690e+2
-0.223, 6.1284801e-8, -3.6324309e-8, 1.0800024e+2
-0.224, 6.5345958e-8, -3.9716063e-8, 1.0833357e+2
-0.225, 6.8901471e-8, -4.2016644e-8, 1.0866691e+2
-0.226, 7.2212558e-8, -4.5268610e-8, 1.0900024e+2
-0.227, 7.5714546e-8, -4.8758622e-8, 1.0933358e+2
-0.228, 8.0338069e-8, -5.1454609e-8, 1.0966692e+2
-0.229, 8.4880121e-8, -5.5262550e-8, 1.1000025e+2
-0.230, 8.9618673e-8, -5.9403593e-8, 1.1033359e+2
-0.231, 9.4576905e-8, -6.3690024e-8, 1.1066692e+2
-0.232, 9.9651757e-8, -6.7783141e-8, 1.1100026e+2
-0.233, 1.0518833e-7, -7.1860278e-8, 1.1133360e+2
-0.234, 1.1052279e-7, -7.6172263e-8, 1.1166693e+2
-0.235, 1.1669842e-7, -8.1429249e-8, 1.1200027e+2
-0.236, 1.2361852e-7, -8.6505700e-8, 1.1233360e+2
-0.237, 1.2962160e-7, -9.2112565e-8, 1.1266694e+2
-0.238, 1.3695310e-7, -9.7948686e-8, 1.1300027e+2
-0.239, 1.4405374e-7, -1.0382955e-7, 1.1333361e+2
-0.240, 1.5165205e-7, -1.0961854e-7, 1.1366695e+2
-0.241, 1.5917286e-7, -1.1634534e-7, 1.1400028e+2
-0.242, 1.6751247e-7, -1.2352825e-7, 1.1433362e+2
-0.243, 1.7560365e-7, -1.3037807e-7, 1.1466695e+2
-0.244, 1.8442492e-7, -1.3789250e-7, 1.1500029e+2
-0.245, 1.9306887e-7, -1.4528312e-7, 1.1533363e+2
-0.246, 2.0254278e-7, -1.5306196e-7, 1.1566696e+2
-0.247, 2.1214611e-7, -1.6131608e-7, 1.1600030e+2
-0.248, 2.2188124e-7, -1.6918916e-7, 1.1633363e+2
-0.249, 2.3155965e-7, -1.7765339e-7, 1.1666697e+2
-0.250, 2.4153761e-7, -1.8653458e-7, 1.1700031e+2
-0.251, 2.5180634e-7, -1.9526721e-7, 1.1733364e+2
-0.252, 2.6228199e-7, -2.0424345e-7, 1.1766698e+2
-0.253, 2.7253313e-7, -2.1331957e-7, 1.1800031e+2
-0.254, 2.8458962e-7, -2.2274396e-7, 1.1833365e+2
-0.255, 2.9584726e-7, -2.3191991e-7, 1.1866698e+2
-0.256, 3.0687647e-7, -2.4151444e-7, 1.1900032e+2
-0.257, 3.1757099e-7, -2.5099317e-7, 1.1933366e+2
-0.258, 3.2841965e-7, -2.6068514e-7, 1.1966699e+2
-0.259, 3.3938176e-7, -2.7008477e-7, 1.2000033e+2
-0.260, 3.5009461e-7, -2.8038068e-7, 1.2033366e+2
-0.261, 3.6069005e-7, -2.9050639e-7, 1.2066700e+2
-0.262, 3.7139498e-7, -3.0003943e-7, 1.2100034e+2
-0.263, 3.8206230e-7, -3.0940231e-7, 1.2133367e+2
-0.264, 3.9224796e-7, -3.1857027e-7, 1.2166701e+2
-0.265, 4.0239448e-7, -3.2770470e-7, 1.2200034e+2
-0.266, 4.1195065e-7, -3.3665859e-7, 1.2233368e+2
-0.267, 4.2201489e-7, -3.4547588e-7, 1.2266702e+2
-0.268, 4.3104947e-7, -3.5424205e-7, 1.2300035e+2
-0.269, 4.4029892e-7, -3.6300023e-7, 1.2333369e+2
-0.270, 4.4904590e-7, -3.7124636e-7, 1.2366702e+2
-0.271, 4.5757722e-7, -3.7912187e-7, 1.2400036e+2
-0.272, 4.6612931e-7, -3.8716109e-7, 1.2433369e+2
-0.273, 4.7380348e-7, -3.9452777e-7, 1.2466703e+2
-0.274, 4.8152322e-7, -4.0212129e-7, 1.2500037e+2
-0.275, 4.8885869e-7, -4.0866914e-7, 1.2533370e+2
-0.276, 4.9636037e-7, -4.1615240e-7, 1.2566704e+2
-0.277, 5.0270535e-7, -4.2231525e-7, 1.2600037e+2
-0.278, 5.0964138e-7, -4.2802836e-7, 1.2633371e+2
-0.279, 5.1594645e-7, -4.3447875e-7, 1.2666705e+2
-0.280, 5.2159169e-7, -4.4050500e-7, 1.2700038e+2
-0.281, 5.2744451e-7, -4.4598485e-7, 1.2733372e+2
-0.282, 5.3338772e-7, -4.5112520e-7, 1.2766705e+2
-0.283, 5.3863511e-7, -4.5613376e-7, 1.2800038e+2
-0.284, 5.4355741e-7, -4.6105288e-7, 1.2833371e+2
-0.285, 5.4806191e-7, -4.6567160e-7, 1.2866704e+2
-0.286, 5.5286915e-7, -4.6999557e-7, 1.2900037e+2
-0.287, 5.5653328e-7, -4.7386501e-7, 1.2933369e+2
-0.288, 5.6053852e-7, -4.7743174e-7, 1.2966702e+2
-0.289, 5.6473868e-7, -4.8153038e-7, 1.3000035e+2
-0.290, 5.6835250e-7, -4.8556439e-7, 1.3033368e+2
-0.291, 5.7139681e-7, -4.8855679e-7, 1.3066701e+2
-0.292, 5.7494515e-7, -4.9155472e-7, 1.3100034e+2
-0.293, 5.7823945e-7, -4.9524203e-7, 1.3133366e+2
-0.294, 5.8023727e-7, -4.9739640e-7, 1.3166699e+2
-0.295, 5.8347564e-7, -5.0064364e-7, 1.3200032e+2
-0.296, 5.8525302e-7, -5.0316862e-7, 1.3233365e+2
-0.297, 5.8838833e-7, -5.0565376e-7, 1.3266698e+2
-0.298, 5.9003150e-7, -5.0782813e-7, 1.3300031e+2
-0.299, 5.9272827e-7, -5.1039632e-7, 1.3333363e+2
-0.300, 5.9426122e-7, -5.1219286e-7, 1.3366696e+2
-0.301, 5.9564235e-7, -5.1489843e-7, 1.3400029e+2
-0.302, 5.9820650e-7, -5.1620049e-7, 1.3433362e+2
-0.303, 5.9936804e-7, -5.1810565e-7, 1.3466695e+2
-0.304, 6.0060859e-7, -5.1997085e-7, 1.3500027e+2
-0.305, 6.0326062e-7, -5.2093259e-7, 1.3533360e+2
-0.306, 6.0452192e-7, -5.2195912e-7, 1.3566693e+2
-0.307, 6.0611558e-7, -5.2393301e-7, 1.3600026e+2
-0.308, 6.0833065e-7, -5.2491231e-7, 1.3633359e+2
-0.309, 6.0939072e-7, -5.2558573e-7, 1.3666692e+2
-0.310, 6.1065526e-7, -5.2640053e-7, 1.3700024e+2
-0.311, 6.1299500e-7, -5.2782400e-7, 1.3733357e+2
-0.312, 6.1411572e-7, -5.2934416e-7, 1.3766690e+2
-0.313, 6.1472355e-7, -5.2993204e-7, 1.3800023e+2
-0.314, 6.1589463e-7, -5.3058471e-7, 1.3833356e+2
-0.315, 6.1757214e-7, -5.3125166e-7, 1.3866689e+2
-0.316, 6.1856986e-7, -5.3215194e-7, 1.3900021e+2
-0.317, 6.1929279e-7, -5.3330302e-7, 1.3933354e+2
-0.318, 6.2020342e-7, -5.3418410e-7, 1.3966687e+2
-0.319, 6.2180504e-7, -5.3463543e-7, 1.4000020e+2
-0.320, 6.2289865e-7, -5.3499014e-7, 1.4033353e+2
-0.321, 6.2363358e-7, -5.3547018e-7, 1.4066685e+2
-0.322, 6.2407366e-7, -5.3591594e-7, 1.4100018e+2
-0.323, 6.2435646e-7, -5.3640326e-7, 1.4133351e+2
-0.324, 6.2493001e-7, -5.3740894e-7, 1.4166684e+2
-0.325, 6.2576714e-7, -5.3855922e-7, 1.4200017e+2
-0.326, 6.2672814e-7, -5.3934690e-7, 1.4233350e+2
-0.327, 6.2764036e-7, -5.3962162e-7, 1.4266682e+2
-0.328, 6.2807732e-7, -5.3988521e-7, 1.4300015e+2
-0.329, 6.2847113e-7, -5.4036769e-7, 1.4333348e+2
-0.330, 6.2876512e-7, -5.4083262e-7, 1.4366681e+2
-0.331, 6.2892968e-7, -5.4142771e-7, 1.4400014e+2
-0.332, 6.2908140e-7, -5.4230640e-7, 1.4433347e+2
-0.333, 6.2920765e-7, -5.4328177e-7, 1.4466679e+2
-0.334, 6.2941695e-7, -5.4399436e-7, 1.4500012e+2
-0.335, 6.2968695e-7, -5.4437220e-7, 1.4533345e+2
-0.336, 6.3002722e-7, -5.4463897e-7, 1.4566678e+2
-0.337, 6.3072059e-7, -5.4497764e-7, 1.4600011e+2
-0.338, 6.3128374e-7, -5.4529158e-7, 1.4633344e+2
-0.339, 6.3191800e-7, -5.4555761e-7, 1.4666676e+2
-0.340, 6.3260177e-7, -5.4574377e-7, 1.4700009e+2
-0.341, 6.3309864e-7, -5.4583637e-7, 1.4733342e+2
-0.342, 6.3375848e-7, -5.4583478e-7, 1.4766675e+2
-0.343, 6.3418423e-7, -5.4576930e-7, 1.4800008e+2
-0.344, 6.3500062e-7, -5.4568937e-7, 1.4833340e+2
-0.345, 6.3634025e-7, -5.4562474e-7, 1.4866673e+2
-0.346, 6.3746256e-7, -5.4558956e-7, 1.4900006e+2
-0.347, 6.3832289e-7, -5.4555522e-7, 1.4933339e+2
-0.348, 6.3877025e-7, -5.4555602e-7, 1.4966672e+2
-0.349, 6.3906498e-7, -5.4560633e-7, 1.5000005e+2
-0.350, 6.3973761e-7, -5.4563748e-7, 1.5033337e+2
-0.351, 6.4043337e-7, -5.4564708e-7, 1.5066670e+2
-0.352, 6.4149259e-7, -5.4571495e-7, 1.5100003e+2
-0.353, 6.4224270e-7, -5.4586195e-7, 1.5133336e+2
-0.354, 6.4266766e-7, -5.4609279e-7, 1.5166669e+2
-0.355, 6.4301190e-7, -5.4634205e-7, 1.5200002e+2
-0.356, 6.4338974e-7, -5.4672392e-7, 1.5233334e+2
-0.357, 6.4352798e-7, -5.4708414e-7, 1.5266667e+2
-0.358, 6.4371170e-7, -5.4756583e-7, 1.5300000e+2
-0.359, 6.4383471e-7, -5.4803633e-7, 1.5333333e+2
-0.360, 6.4392657e-7, -5.4839580e-7, 1.5366666e+2
-0.361, 6.4409028e-7, -5.4868894e-7, 1.5399998e+2
-0.362, 6.4442980e-7, -5.4889347e-7, 1.5433331e+2
-0.363, 6.4492826e-7, -5.4900130e-7, 1.5466664e+2
-0.364, 6.4579024e-7, -5.4905564e-7, 1.5499997e+2
-0.365, 6.4663772e-7, -5.4903967e-7, 1.5533330e+2
-0.366, 6.4744694e-7, -5.4894457e-7, 1.5566663e+2
-0.367, 6.4817550e-7, -5.4877205e-7, 1.5599995e+2
-0.368, 6.4868908e-7, -5.4859311e-7, 1.5633328e+2
-0.369, 6.4919072e-7, -5.4832151e-7, 1.5666661e+2
-0.370, 6.5046481e-7, -5.4821288e-7, 1.5699994e+2
-0.371, 6.5170224e-7, -5.4815615e-7, 1.5733327e+2
-0.372, 6.5249782e-7, -5.4822402e-7, 1.5766660e+2
-0.373, 6.5296513e-7, -5.4861630e-7, 1.5799992e+2
-0.374, 6.5333899e-7, -5.4900613e-7, 1.5833325e+2
-0.375, 6.5350667e-7, -5.4932320e-7, 1.5866658e+2
-0.376, 6.5365526e-7, -5.4962038e-7, 1.5899991e+2
-0.377, 6.5380465e-7, -5.4994547e-7, 1.5933324e+2
-0.378, 6.5399001e-7, -5.5024827e-7, 1.5966656e+2
-0.379, 6.5427355e-7, -5.5058132e-7, 1.5999989e+2
-0.380, 6.5467697e-7, -5.5083217e-7, 1.6033322e+2
-0.381, 6.5536875e-7, -5.5102709e-7, 1.6066655e+2
-0.382, 6.5613801e-7, -5.5122598e-7, 1.6099988e+2
-0.383, 6.5703426e-7, -5.5129868e-7, 1.6133321e+2
-0.384, 6.5769649e-7, -5.5129630e-7, 1.6166653e+2
-0.385, 6.5830517e-7, -5.5140333e-7, 1.6199986e+2
-0.386, 6.5863509e-7, -5.5152873e-7, 1.6233319e+2
-0.387, 6.5916311e-7, -5.5177480e-7, 1.6266652e+2
-0.388, 6.6024393e-7, -5.5224763e-7, 1.6299985e+2
-0.389, 6.6133430e-7, -5.5269743e-7, 1.6333318e+2
-0.390, 6.6209554e-7, -5.5327814e-7, 1.6366650e+2
-0.391, 6.6267791e-7, -5.5367275e-7, 1.6399983e+2
-0.392, 6.6303261e-7, -5.5394037e-7, 1.6433316e+2
-0.393, 6.6323946e-7, -5.5420878e-7, 1.6466649e+2
-0.394, 6.6339123e-7, -5.5441240e-7, 1.6499982e+2
-0.395, 6.6356540e-7, -5.5459617e-7, 1.6533315e+2
-0.396, 6.6385132e-7, -5.5471520e-7, 1.6566647e+2
-0.397, 6.6425315e-7, -5.5485259e-7, 1.6599980e+2
-0.398, 6.6466697e-7, -5.5508747e-7, 1.6633313e+2
-0.399, 6.6489145e-7, -5.5539579e-7, 1.6666646e+2
-0.400, 6.6491378e-7, -5.5576004e-7, 1.6699979e+2
-0.401, 6.6486899e-7, -5.5629926e-7, 1.6733311e+2
-0.402, 6.6453669e-7, -5.5712519e-7, 1.6766644e+2
-0.403, 6.6417084e-7, -5.5820203e-7, 1.6799977e+2
-0.404, 6.6399593e-7, -5.5884828e-7, 1.6833310e+2
-0.405, 6.6379943e-7, -5.5914859e-7, 1.6866643e+2
-0.406, 6.6365004e-7, -5.5943775e-7, 1.6899976e+2
-0.407, 6.6351106e-7, -5.5984759e-7, 1.6933308e+2
-0.408, 6.6340561e-7, -5.6035162e-7, 1.6966641e+2
-0.409, 6.6324424e-7, -5.6085645e-7, 1.6999974e+2
-0.410, 6.6303335e-7, -5.6168960e-7, 1.7033307e+2
-0.411, 6.6272821e-7, -5.6260671e-7, 1.7066640e+2
-0.412, 6.6247975e-7, -5.6332243e-7, 1.7099973e+2
-0.413, 6.6226886e-7, -5.6372983e-7, 1.7133305e+2
-0.414, 6.6215466e-7, -5.6392787e-7, 1.7166638e+2
-0.415, 6.6228569e-7, -5.6398227e-7, 1.7199971e+2
-0.416, 6.6251494e-7, -5.6394310e-7, 1.7233304e+2
-0.417, 6.6300140e-7, -5.6381930e-7, 1.7266637e+2
-0.418, 6.6337287e-7, -5.6342623e-7, 1.7299969e+2
-0.419, 6.6377146e-7, -5.6288150e-7, 1.7333302e+2
-0.420, 6.6482033e-7, -5.6227918e-7, 1.7366635e+2
-0.421, 6.6611915e-7, -5.6182859e-7, 1.7399968e+2
-0.422, 6.6711448e-7, -5.6141164e-7, 1.7433301e+2
-0.423, 6.6791091e-7, -5.6113765e-7, 1.7466634e+2
-0.424, 6.6836225e-7, -5.6093796e-7, 1.7499966e+2
-0.425, 6.6888947e-7, -5.6082212e-7, 1.7533299e+2
-0.426, 6.7005811e-7, -5.6075737e-7, 1.7566632e+2
-0.427, 6.7129383e-7, -5.6072071e-7, 1.7599965e+2
-0.428, 6.7213347e-7, -5.6066796e-7, 1.7633298e+2
-0.429, 6.7278285e-7, -5.6066955e-7, 1.7666631e+2
-0.430, 6.7313755e-7, -5.6066716e-7, 1.7699963e+2
-0.431, 6.7336919e-7, -5.6073583e-7, 1.7733296e+2
-0.432, 6.7369353e-7, -5.6087242e-7, 1.7766629e+2
-0.433, 6.7418398e-7, -5.6107217e-7, 1.7799962e+2
-0.434, 6.7465845e-7, -5.6129340e-7, 1.7833295e+2
-0.435, 6.7525519e-7, -5.6169921e-7, 1.7866628e+2
-0.436, 6.7581192e-7, -5.6208427e-7, 1.7899960e+2
-0.437, 6.7623216e-7, -5.6258750e-7, 1.7933293e+2
-0.438, 6.7654850e-7, -5.6323449e-7, 1.7966626e+2
-0.439, 6.7665070e-7, -5.6376177e-7, 1.7999959e+2
-0.440, 6.7648136e-7, -5.6411642e-7, 1.8033292e+2
-0.441, 6.7635119e-7, -5.6445833e-7, 1.8066624e+2
-0.442, 6.7595732e-7, -5.6495594e-7, 1.8099957e+2
-0.443, 6.7556834e-7, -5.6543928e-7, 1.8133290e+2
-0.444, 6.7519289e-7, -5.6590574e-7, 1.8166623e+2
-0.445, 6.7474156e-7, -5.6657757e-7, 1.8199956e+2
-0.446, 6.7442278e-7, -5.6736917e-7, 1.8233289e+2
-0.447, 6.7410571e-7, -5.6808886e-7, 1.8266621e+2
-0.448, 6.7386128e-7, -5.6856180e-7, 1.8299954e+2
-0.449, 6.7374947e-7, -5.6877911e-7, 1.8333287e+2
-0.450, 6.7355455e-7, -5.6897477e-7, 1.8366620e+2
-0.451, 6.7343467e-7, -5.6911301e-7, 1.8399953e+2
-0.452, 6.7339710e-7, -5.6928951e-7, 1.8433286e+2
-0.453, 6.7331246e-7, -5.6955389e-7, 1.8466618e+2
-0.454, 6.7326135e-7, -5.6986784e-7, 1.8499951e+2
-0.455, 6.7321662e-7, -5.7018576e-7, 1.8533284e+2
-0.456, 6.7313118e-7, -5.7056525e-7, 1.8566617e+2
-0.457, 6.7304484e-7, -5.7110122e-7, 1.8599950e+2
-0.458, 6.7298021e-7, -5.7169154e-7, 1.8633282e+2
-0.459, 6.7292103e-7, -5.7230028e-7, 1.8666615e+2
-0.460, 6.7280763e-7, -5.7277475e-7, 1.8699948e+2
-0.461, 6.7266785e-7, -5.7313576e-7, 1.8733281e+2
-0.462, 6.7261351e-7, -5.7343937e-7, 1.8766614e+2
-0.463, 6.7246015e-7, -5.7362229e-7, 1.8799947e+2
-0.464, 6.7232355e-7, -5.7375729e-7, 1.8833279e+2
-0.465, 6.7239461e-7, -5.7382755e-7, 1.8866612e+2
-0.466, 6.7246975e-7, -5.7384113e-7, 1.8899945e+2
-0.467, 6.7253848e-7, -5.7384113e-7, 1.8933278e+2
-0.468, 6.7271338e-7, -5.7380441e-7, 1.8966611e+2
-0.469, 6.7290745e-7, -5.7371653e-7, 1.8999944e+2
-0.470, 6.7311760e-7, -5.7357039e-7, 1.9033276e+2
-0.471, 6.7334764e-7, -5.7328361e-7, 1.9066609e+2
-0.472, 6.7385008e-7, -5.7290015e-7, 1.9099942e+2
-0.473, 6.7489731e-7, -5.7240169e-7, 1.9133275e+2
-0.474, 6.7602127e-7, -5.7204062e-7, 1.9166608e+2
-0.475, 6.7683203e-7, -5.7165005e-7, 1.9199940e+2
-0.476, 6.7735527e-7, -5.7157814e-7, 1.9233273e+2
-0.477, 6.7763244e-7, -5.7177067e-7, 1.9266606e+2
-0.478, 6.7783697e-7, -5.7205023e-7, 1.9299939e+2
-0.479, 6.7799829e-7, -5.7231864e-7, 1.9333272e+2
-0.480, 6.7809100e-7, -5.7256545e-7, 1.9366605e+2
-0.481, 6.7819161e-7, -5.7286661e-7, 1.9399937e+2
-0.482, 6.7828591e-7, -5.7301759e-7, 1.9433270e+2
-0.483, 6.7838010e-7, -5.7314060e-7, 1.9466603e+2
-0.484, 6.7857906e-7, -5.7321574e-7, 1.9499936e+2
-0.485, 6.7885787e-7, -5.7330675e-7, 1.9533269e+2
-0.486, 6.7908627e-7, -5.7336825e-7, 1.9566602e+2
-0.487, 6.7926601e-7, -5.7354720e-7, 1.9599934e+2
-0.488, 6.7933951e-7, -5.7375809e-7, 1.9633267e+2
-0.489, 6.7912629e-7, -5.7390588e-7, 1.9666600e+2
-0.490, 6.7887623e-7, -5.7405441e-7, 1.9699933e+2
-0.491, 6.7860543e-7, -5.7426536e-7, 1.9733266e+2
-0.492, 6.7849680e-7, -5.7451382e-7, 1.9766599e+2
-0.493, 6.7838249e-7, -5.7479332e-7, 1.9799931e+2
-0.494, 6.7827631e-7, -5.7502103e-7, 1.9833264e+2
-0.495, 6.7824112e-7, -5.7529184e-7, 1.9866597e+2
-0.496, 6.7818121e-7, -5.7556662e-7, 1.9899930e+2
-0.497, 6.7813329e-7, -5.7606030e-7, 1.9933263e+2
-0.498, 6.7805581e-7, -5.7666176e-7, 1.9966595e+2
-0.499, 6.7790324e-7, -5.7728562e-7, 1.9999928e+2
-0.500, 6.7464327e-7, -5.7730961e-7, 2.0033261e+2
-0.499, 6.7328051e-7, -5.7745899e-7, 2.0066594e+2
-0.498, 6.7255996e-7, -5.7751726e-7, 2.0099927e+2
-0.497, 6.7134101e-7, -5.7757399e-7, 2.0133260e+2
-0.496, 6.6963952e-7, -5.7748696e-7, 2.0166592e+2
-0.495, 6.6853875e-7, -5.7735355e-7, 2.0199925e+2
-0.494, 6.6814181e-7, -5.7730881e-7, 2.0233258e+2
-0.493, 6.6747475e-7, -5.7715704e-7, 2.0266591e+2
-0.492, 6.6646589e-7, -5.7701885e-7, 2.0299924e+2
-0.491, 6.6522773e-7, -5.7690062e-7, 2.0333257e+2
-0.490, 6.6409899e-7, -5.7673606e-7, 2.0366589e+2
-0.489, 6.6356620e-7, -5.7643172e-7, 2.0399922e+2
-0.488, 6.6332171e-7, -5.7618087e-7, 2.0433255e+2
-0.487, 6.6305256e-7, -5.7586777e-7, 2.0466588e+2
-0.486, 6.6278972e-7, -5.7544594e-7, 2.0499921e+2
-0.485, 6.6251573e-7, -5.7513921e-7, 2.0533253e+2
-0.484, 6.6231604e-7, -5.7481333e-7, 2.0566586e+2
-0.483, 6.6215705e-7, -5.7454974e-7, 2.0599919e+2
-0.482, 6.6199573e-7, -5.7426138e-7, 2.0633252e+2
-0.481, 6.6193098e-7, -5.7406800e-7, 2.0666585e+2
-0.480, 6.6189745e-7, -5.7389627e-7, 2.0699918e+2
-0.479, 6.6175846e-7, -5.7377247e-7, 2.0733250e+2
-0.478, 6.6158111e-7, -5.7366225e-7, 2.0766583e+2
-0.477, 6.6144611e-7, -5.7357835e-7, 2.0799916e+2
-0.476, 6.6108345e-7, -5.7338423e-7, 2.0833249e+2
-0.475, 6.6091411e-7, -5.7313741e-7, 2.0866582e+2
-0.474, 6.6083101e-7, -5.7280272e-7, 2.0899915e+2
-0.473, 6.6081429e-7, -5.7227868e-7, 2.0933247e+2
-0.472, 6.6075279e-7, -5.7171553e-7, 2.0966580e+2
-0.471, 6.6084465e-7, -5.7104535e-7, 2.0999913e+2
-0.470, 6.6089018e-7, -5.7062198e-7, 2.1033246e+2
-0.469, 6.6087978e-7, -5.7019537e-7, 2.1066579e+2
-0.468, 6.6079508e-7, -5.6993417e-7, 2.1099911e+2
-0.467, 6.6056742e-7, -5.6972328e-7, 2.1133244e+2
-0.466, 6.6010807e-7, -5.6956111e-7, 2.1166577e+2
-0.465, 6.5969033e-7, -5.6936943e-7, 2.1199910e+2
-0.464, 6.5917908e-7, -5.6923443e-7, 2.1233243e+2
-0.463, 6.5895625e-7, -5.6910659e-7, 2.1266576e+2
-0.462, 6.5879567e-7, -5.6897716e-7, 2.1299908e+2
-0.461, 6.5863190e-7, -5.6884460e-7, 2.1333241e+2
-0.460, 6.5847456e-7, -5.6868163e-7, 2.1366574e+2
-0.459, 6.5829164e-7, -5.6851707e-7, 2.1399907e+2
-0.458, 6.5806233e-7, -5.6833733e-7, 2.1433240e+2
-0.457, 6.5781791e-7, -5.6813923e-7, 2.1466573e+2
-0.456, 6.5746963e-7, -5.6760882e-7, 2.1499905e+2
-0.455, 6.5711413e-7, -5.6701373e-7, 2.1533238e+2
-0.454, 6.5693445e-7, -5.6642818e-7, 2.1566571e+2
-0.453, 6.5676426e-7, -5.6589141e-7, 2.1599904e+2
-0.452, 6.5657736e-7, -5.6550476e-7, 2.1633237e+2
-0.451, 6.5633373e-7, -5.6523317e-7, 2.1666570e+2
-0.450, 6.5609083e-7, -5.6501744e-7, 2.1699902e+2
-0.449, 6.5589194e-7, -5.6475307e-7, 2.1733235e+2
-0.448, 6.5565553e-7, -5.6450148e-7, 2.1766568e+2
-0.447, 6.5556446e-7, -5.6426580e-7, 2.1799901e+2
-0.446, 6.5549898e-7, -5.6402058e-7, 2.1833234e+2
-0.445, 6.5561642e-7, -5.6375694e-7, 2.1866566e+2
-0.444, 6.5570350e-7, -5.6325769e-7, 2.1899899e+2
-0.443, 6.5603979e-7, -5.6247569e-7, 2.1933232e+2
-0.442, 6.5613403e-7, -5.6168648e-7, 2.1966565e+2
-0.441, 6.5619793e-7, -5.6107615e-7, 2.1999898e+2
-0.440, 6.5621072e-7, -5.6075504e-7, 2.2033231e+2
-0.439, 6.5601262e-7, -5.6047941e-7, 2.2066563e+2
-0.438, 6.5583043e-7, -5.6034122e-7, 2.2099896e+2
-0.437, 6.5520180e-7, -5.6032206e-7, 2.2133229e+2
-0.436, 6.5454356e-7, -5.6039715e-7, 2.2166562e+2
-0.435, 6.5399558e-7, -5.6052892e-7, 2.2199895e+2
-0.434, 6.5356022e-7, -5.6064317e-7, 2.2233228e+2
-0.433, 6.5313930e-7, -5.6080535e-7, 2.2266560e+2
-0.432, 6.5270950e-7, -5.6090602e-7, 2.2299893e+2
-0.431, 6.5207121e-7, -5.6089959e-7, 2.2333226e+2
-0.430, 6.5145616e-7, -5.6081416e-7, 2.2366559e+2
-0.429, 6.5088580e-7, -5.6062163e-7, 2.2399892e+2
-0.428, 6.5042326e-7, -5.6047543e-7, 2.2433224e+2
-0.427, 6.5018764e-7, -5.6032928e-7, 2.2466557e+2
-0.426, 6.4998238e-7, -5.6017825e-7, 2.2499890e+2
-0.425, 6.4989047e-7, -5.5989869e-7, 2.2533223e+2
-0.424, 6.4995436e-7, -5.5960555e-7, 2.2566556e+2
-0.423, 6.5007663e-7, -5.5931957e-7, 2.2599889e+2
-0.422, 6.5053996e-7, -5.5905440e-7, 2.2633221e+2
-0.421, 6.5063580e-7, -5.5859743e-7, 2.2666554e+2
-0.420, 6.5091137e-7, -5.5777542e-7, 2.2699887e+2
-0.419, 6.5098806e-7, -5.5695511e-7, 2.2733220e+2
-0.418, 6.5087943e-7, -5.5618898e-7, 2.2766553e+2
-0.417, 6.5082190e-7, -5.5572332e-7, 2.2799886e+2
-0.416, 6.5089938e-7, -5.5537902e-7, 2.2833218e+2
-0.415, 6.5055752e-7, -5.5508025e-7, 2.2866551e+2
-0.414, 6.5049761e-7, -5.5486061e-7, 2.2899884e+2
-0.413, 6.4991048e-7, -5.5465932e-7, 2.2933217e+2
-0.412, 6.4918510e-7, -5.5471838e-7, 2.2966550e+2
-0.411, 6.4875223e-7, -5.5479029e-7, 2.2999883e+2
-0.410, 6.4825537e-7, -5.5493808e-7, 2.3033215e+2
-0.409, 6.4747974e-7, -5.5514096e-7, 2.3066548e+2
-0.408, 6.4611692e-7, -5.5529830e-7, 2.3099881e+2
-0.407, 6.4466462e-7, -5.5549322e-7, 2.3133214e+2
-0.406, 6.4395772e-7, -5.5556671e-7, 2.3166547e+2
-0.405, 6.4353515e-7, -5.5567699e-7, 2.3199879e+2
-0.404, 6.4290884e-7, -5.5571212e-7, 2.3233212e+2
-0.403, 6.4199503e-7, -5.5577044e-7, 2.3266545e+2
-0.402, 6.4057315e-7, -5.5573128e-7, 2.3299878e+2
-0.401, 6.3949392e-7, -5.5572730e-7, 2.3333211e+2
-0.400, 6.3899392e-7, -5.5573207e-7, 2.3366544e+2
-0.399, 6.3863524e-7, -5.5565221e-7, 2.3399876e+2
-0.398, 6.3807045e-7, -5.5561549e-7, 2.3433209e+2
-0.397, 6.3741624e-7, -5.5544052e-7, 2.3466542e+2
-0.396, 6.3654954e-7, -5.5526715e-7, 2.3499875e+2
-0.395, 6.3575709e-7, -5.5503716e-7, 2.3533208e+2
-0.394, 6.3511806e-7, -5.5481581e-7, 2.3566541e+2
-0.393, 6.3469395e-7, -5.5454268e-7, 2.3599873e+2
-0.392, 6.3436238e-7, -5.5436851e-7, 2.3633206e+2
-0.391, 6.3416348e-7, -5.5419116e-7, 2.3666539e+2
-0.390, 6.3402530e-7, -5.5402819e-7, 2.3699872e+2
-0.389, 6.3386790e-7, -5.5381412e-7, 2.3733205e+2
-0.388, 6.3360426e-7, -5.5374704e-7, 2.3766537e+2
-0.387, 6.3320334e-7, -5.5379735e-7, 2.3799870e+2
-0.386, 6.3267208e-7, -5.5362966e-7, 2.3833203e+2
-0.385, 6.3184211e-7, -5.5353615e-7, 2.3866536e+2
-0.384, 6.3080688e-7, -5.5338677e-7, 2.3899869e+2
-0.383, 6.2991541e-7, -5.5315354e-7, 2.3933202e+2
-0.382, 6.2940893e-7, -5.5289945e-7, 2.3966534e+2
-0.381, 6.2916376e-7, -5.5254083e-7, 2.3999867e+2
-0.380, 6.2897681e-7, -5.5230362e-7, 2.4033200e+2
-0.379, 6.2871555e-7, -5.5200405e-7, 2.4066533e+2
-0.378, 6.2840326e-7, -5.5173479e-7, 2.4099866e+2
-0.377, 6.2797824e-7, -5.5162383e-7, 2.4133199e+2
-0.376, 6.2753890e-7, -5.5138491e-7, 2.4166531e+2
-0.375, 6.2704765e-7, -5.5118124e-7, 2.4199864e+2
-0.374, 6.2653157e-7, -5.5092409e-7, 2.4233197e+2
-0.373, 6.2611065e-7, -5.5069637e-7, 2.4266530e+2
-0.372, 6.2565374e-7, -5.5055261e-7, 2.4299863e+2
-0.371, 6.2516489e-7, -5.5041437e-7, 2.4333195e+2
-0.370, 6.2473271e-7, -5.5034650e-7, 2.4366528e+2
-0.369, 6.2437800e-7, -5.5033371e-7, 2.4399861e+2
-0.368, 6.2414955e-7, -5.5034087e-7, 2.4433194e+2
-0.367, 6.2379092e-7, -5.5038481e-7, 2.4466527e+2
-0.366, 6.2332839e-7, -5.5045268e-7, 2.4499860e+2
-0.365, 6.2283789e-7, -5.5059894e-7, 2.4533192e+2
-0.364, 6.2210381e-7, -5.5068517e-7, 2.4566525e+2
-0.363, 6.2101748e-7, -5.5072036e-7, 2.4599858e+2
-0.362, 6.2015874e-7, -5.5082342e-7, 2.4633191e+2
-0.361, 6.1950846e-7, -5.5090487e-7, 2.4666524e+2
-0.360, 6.1922805e-7, -5.5092084e-7, 2.4699857e+2
-0.359, 6.1890296e-7, -5.5102231e-7, 2.4733189e+2
-0.358, 6.1843645e-7, -5.5111099e-7, 2.4766522e+2
-0.357, 6.1790928e-7, -5.5124514e-7, 2.4799855e+2
-0.356, 6.1724381e-7, -5.5120199e-7, 2.4833188e+2
-0.355, 6.1662240e-7, -5.5109979e-7, 2.4866521e+2
-0.354, 6.1601685e-7, -5.5082978e-7, 2.4899854e+2
-0.353, 6.1577566e-7, -5.5045831e-7, 2.4933186e+2
-0.352, 6.1560627e-7, -5.5004773e-7, 2.4966519e+2
-0.351, 6.1559672e-7, -5.4965869e-7, 2.4999852e+2
-0.350, 6.1554795e-7, -5.4939511e-7, 2.5033185e+2
-0.349, 6.1540499e-7, -5.4914909e-7, 2.5066518e+2
-0.348, 6.1520132e-7, -5.4886550e-7, 2.5099850e+2
-0.347, 6.1494086e-7, -5.4833032e-7, 2.5133183e+2
-0.346, 6.1474117e-7, -5.4770004e-7, 2.5166516e+2
-0.345, 6.1455182e-7, -5.4719197e-7, 2.5199849e+2
-0.344, 6.1440886e-7, -5.4673029e-7, 2.5233182e+2
-0.343, 6.1429705e-7, -5.4625258e-7, 2.5266515e+2
-0.342, 6.1421719e-7, -5.4584598e-7, 2.5299847e+2
-0.341, 6.1418120e-7, -5.4540743e-7, 2.5333180e+2
-0.340, 6.1423071e-7, -5.4496252e-7, 2.5366513e+2
-0.339, 6.1431859e-7, -5.4456626e-7, 2.5399846e+2
-0.338, 6.1430183e-7, -5.4424436e-7, 2.5433179e+2
-0.337, 6.1429381e-7, -5.4375073e-7, 2.5466512e+2
-0.336, 6.1424589e-7, -5.4324028e-7, 2.5499844e+2
-0.335, 6.1396315e-7, -5.4268270e-7, 2.5533177e+2
-0.334, 6.1367638e-7, -5.4236392e-7, 2.5566510e+2
-0.333, 6.1312517e-7, -5.4202286e-7, 2.5599843e+2
-0.332, 6.1219538e-7, -5.4171056e-7, 2.5633176e+2
-0.331, 6.1115213e-7, -5.4156516e-7, 2.5666510e+2
-0.330, 6.1001617e-7, -5.4136621e-7, 2.5699844e+2
-0.329, 6.0948338e-7, -5.4119613e-7, 2.5733179e+2
-0.328, 6.0896417e-7, -5.4100838e-7, 2.5766513e+2
-0.327, 6.0842814e-7, -5.4077674e-7, 2.5799847e+2
-0.326, 6.0792013e-7, -5.4051549e-7, 2.5833182e+2
-0.325, 6.0716843e-7, -5.4021672e-7, 2.5866516e+2
-0.324, 6.0599893e-7, -5.3979659e-7, 2.5899850e+2
-0.323, 6.0501878e-7, -5.3957535e-7, 2.5933185e+2
-0.322, 6.0458103e-7, -5.3927414e-7, 2.5966519e+2
-0.321, 6.0413134e-7, -5.3863829e-7, 2.5999854e+2
-0.320, 6.0355620e-7, -5.3765575e-7, 2.6033188e+2
-0.319, 6.0254166e-7, -5.3663808e-7, 2.6066522e+2
-0.318, 6.0089133e-7, -5.3608210e-7, 2.6099857e+2
-0.317, 5.9985132e-7, -5.3560603e-7, 2.6133191e+2
-0.316, 5.9919711e-7, -5.3516271e-7, 2.6166525e+2
-0.315, 5.9838709e-7, -5.3479840e-7, 2.6199860e+2
-0.314, 5.9681662e-7, -5.3444614e-7, 2.6233194e+2
-0.313, 5.9502889e-7, -5.3382706e-7, 2.6266528e+2
-0.312, 5.9416215e-7, -5.3267917e-7, 2.6299863e+2
-0.311, 5.9326510e-7, -5.3145220e-7, 2.6333197e+2
-0.310, 5.9107629e-7, -5.3061979e-7, 2.6366531e+2
-0.309, 5.8980066e-7, -5.2991129e-7, 2.6399866e+2
-0.308, 5.8862003e-7, -5.2912844e-7, 2.6433200e+2
-0.307, 5.8609572e-7, -5.2717689e-7, 2.6466534e+2
-0.306, 5.8477769e-7, -5.2592122e-7, 2.6499869e+2
-0.305, 5.8334786e-7, -5.2500013e-7, 2.6533203e+2
-0.304, 5.8069099e-7, -5.2382035e-7, 2.6566537e+2
-0.303, 5.7941048e-7, -5.2158765e-7, 2.6599872e+2
-0.302, 5.7708115e-7, -5.2051161e-7, 2.6633206e+2
-0.301, 5.7481816e-7, -5.1949155e-7, 2.6666541e+2
-0.300, 5.7237372e-7, -5.1706718e-7, 2.6699875e+2
-0.299, 5.6984874e-7, -5.1568122e-7, 2.6733209e+2
-0.298, 5.6643216e-7, -5.1425371e-7, 2.6766544e+2
-0.297, 5.6427700e-7, -5.1141961e-7, 2.6799878e+2
-0.296, 5.6062640e-7, -5.0993538e-7, 2.6833212e+2
-0.295, 5.5791043e-7, -5.0679847e-7, 2.6866547e+2
-0.294, 5.5486220e-7, -5.0509857e-7, 2.6899881e+2
-0.293, 5.5082177e-7, -5.0170286e-7, 2.6933215e+2
-0.292, 5.4696989e-7, -4.9972016e-7, 2.6966550e+2
-0.291, 5.4383139e-7, -4.9618461e-7, 2.6999884e+2
-0.290, 5.3983894e-7, -4.9278327e-7, 2.7033218e+2
-0.289, 5.3559563e-7, -4.9008651e-7, 2.7066553e+2
-0.288, 5.3093294e-7, -4.8614197e-7, 2.7099887e+2
-0.287, 5.2614809e-7, -4.8200570e-7, 2.7133221e+2
-0.286, 5.2129531e-7, -4.7795015e-7, 2.7166556e+2
-0.285, 5.1635061e-7, -4.7394087e-7, 2.7199890e+2
-0.284, 5.1105292e-7, -4.6931177e-7, 2.7233224e+2
-0.283, 5.0586385e-7, -4.6471621e-7, 2.7266559e+2
-0.282, 5.0005565e-7, -4.5938813e-7, 2.7299893e+2
-0.281, 4.9362120e-7, -4.5361034e-7, 2.7333228e+2
-0.280, 4.8734017e-7, -4.4779097e-7, 2.7366562e+2
-0.279, 4.8141777e-7, -4.4219448e-7, 2.7399896e+2
-0.278, 4.7421727e-7, -4.3632480e-7, 2.7433231e+2
-0.277, 4.6716136e-7, -4.2932322e-7, 2.7466565e+2
-0.276, 4.5941610e-7, -4.2282647e-7, 2.7499899e+2
-0.275, 4.5172993e-7, -4.1659652e-7, 2.7533234e+2
-0.274, 4.4303482e-7, -4.0886405e-7, 2.7566568e+2
-0.273, 4.3457140e-7, -4.0214124e-7, 2.7599902e+2
-0.272, 4.2538028e-7, -3.9438078e-7, 2.7633237e+2
-0.271, 4.1633612e-7, -3.8694225e-7, 2.7666571e+2
-0.270, 4.0686299e-7, -3.7877356e-7, 2.7699905e+2
-0.269, 3.9733399e-7, -3.7035650e-7, 2.7733240e+2
-0.268, 3.8724178e-7, -3.6202249e-7, 2.7766574e+2
-0.267, 3.7711763e-7, -3.5325712e-7, 2.7799908e+2
-0.266, 3.6642075e-7, -3.4428325e-7, 2.7833243e+2
-0.265, 3.5602821e-7, -3.3511847e-7, 2.7866577e+2
-0.264, 3.4520986e-7, -3.2593371e-7, 2.7899911e+2
-0.263, 3.3438278e-7, -3.1672343e-7, 2.7933246e+2
-0.262, 3.2355649e-7, -3.0754506e-7, 2.7966580e+2
-0.261, 3.1230761e-7, -2.9777240e-7, 2.7999915e+2
-0.260, 3.0167541e-7, -2.8816990e-7, 2.8033249e+2
-0.259, 2.9057512e-7, -2.7708558e-7, 2.8066583e+2
-0.258, 2.7823268e-7, -2.6710680e-7, 2.8099918e+2
-0.257, 2.6695901e-7, -2.5762807e-7, 2.8133252e+2
-0.256, 2.5626531e-7, -2.4790813e-7, 2.8166586e+2
-0.255, 2.4551809e-7, -2.3844461e-7, 2.8199921e+2
-0.254, 2.3494262e-7, -2.2903140e-7, 2.8233255e+2
-0.253, 2.2459321e-7, -2.1978914e-7, 2.8266589e+2
-0.252, 2.1412956e-7, -2.1044224e-7, 2.8299924e+2
-0.251, 2.0409728e-7, -2.0127428e-7, 2.8333258e+2
-0.250, 1.9415127e-7, -1.9205918e-7, 2.8366592e+2
-0.249, 1.8504240e-7, -1.8303258e-7, 2.8399927e+2
-0.248, 1.7585445e-7, -1.7421050e-7, 2.8433261e+2
-0.247, 1.6713143e-7, -1.6590525e-7, 2.8466595e+2
-0.246, 1.5868878e-7, -1.5775018e-7, 2.8499930e+2
-0.245, 1.5043307e-7, -1.4957594e-7, 2.8533264e+2
-0.244, 1.4284115e-7, -1.4196324e-7, 2.8566599e+2
-0.243, 1.3476755e-7, -1.3402864e-7, 2.8599933e+2
-0.242, 1.2763097e-7, -1.2712212e-7, 2.8633267e+2
-0.241, 1.2020919e-7, -1.1962287e-7, 2.8666602e+2
-0.240, 1.1382987e-7, -1.1326592e-7, 2.8699936e+2
-0.239, 1.0729639e-7, -1.0703997e-7, 2.8733270e+2
-0.238, 1.0096181e-7, -1.0045217e-7, 2.8766605e+2
-0.237, 9.5084943e-8, -9.4544149e-8, 2.8799939e+2
-0.236, 8.9726512e-8, -8.9191310e-8, 2.8833273e+2
-0.235, 8.4654850e-8, -8.4074912e-8, 2.8866608e+2
-0.234, 7.9653489e-8, -7.8996869e-8, 2.8899942e+2
-0.233, 7.4826261e-8, -7.4192805e-8, 2.8933276e+2
-0.232, 7.0202738e-8, -6.9564486e-8, 2.8966611e+2
-0.231, 6.5943475e-8, -6.5239718e-8, 2.8999945e+2
-0.230, 6.1450947e-8, -6.0875003e-8, 2.9033279e+2
-0.229, 5.7936177e-8, -5.7075855e-8, 2.9066614e+2
-0.228, 5.4817612e-8, -5.4070721e-8, 2.9099948e+2
-0.227, 5.0912220e-8, -5.0157343e-8, 2.9133282e+2
-0.226, 4.7403038e-8, -4.6522743e-8, 2.9166617e+2
-0.225, 4.5240650e-8, -4.4330800e-8, 2.9199951e+2
-0.224, 4.1465466e-8, -4.0733752e-8, 2.9233286e+2
-0.223, 3.9434884e-8, -3.8257433e-8, 2.9266620e+2
-0.222, 3.6396202e-8, -3.5566234e-8, 2.9299954e+2
-0.221, 3.4857688e-8, -3.3642696e-8, 2.9333289e+2
-0.220, 3.1720749e-8, -3.0884394e-8, 2.9366623e+2
-0.219, 3.0473007e-8, -2.9638247e-8, 2.9399957e+2
-0.218, 2.8079764e-8, -2.6740157e-8, 2.9433292e+2
-0.217, 2.6505305e-8, -2.5420519e-8, 2.9466626e+2
-0.216, 2.5251168e-8, -2.3766177e-8, 2.9499960e+2
-0.215, 2.2740501e-8, -2.1527905e-8, 2.9533295e+2
-0.214, 2.1495953e-8, -2.0449509e-8, 2.9566629e+2
-0.213, 2.0495840e-8, -1.9305610e-8, 2.9599963e+2
-0.212, 1.8871853e-8, -1.7175177e-8, 2.9633298e+2
-0.211, 1.7105680e-8, -1.6258140e-8, 2.9666632e+2
-0.210, 1.6477815e-8, -1.5487286e-8, 2.9699966e+2
-0.209, 1.5794829e-8, -1.4746787e-8, 2.9733301e+2
-0.208, 1.4743591e-8, -1.3376025e-8, 2.9766635e+2
-0.207, 1.3201884e-8, -1.2211356e-8, 2.9799969e+2
-0.206, 1.2075558e-8, -1.1322277e-8, 2.9833304e+2
-0.205, 1.1641803e-8, -1.0688820e-8, 2.9866638e+2
-0.204, 1.1013138e-8, -1.0346928e-8, 2.9899973e+2
-0.203, 1.0370093e-8, -9.7366355e-9, 2.9933307e+2
-0.202, 9.4187085e-9, -8.6622327e-9, 2.9966641e+2
-0.201, 8.3874419e-9, -7.6469426e-9, 2.9999976e+2
-0.200, 7.6109954e-9, -7.0254664e-9, 3.0033310e+2
-0.199, 7.1101405e-9, -6.6548171e-9, 3.0066644e+2
-0.198, 6.8649051e-9, -6.3241092e-9, 3.0099979e+2
-0.197, 6.5685453e-9, -6.0301462e-9, 3.0133313e+2
-0.196, 6.2681922e-9, -5.7913008e-9, 3.0166647e+2
-0.195, 5.9318919e-9, -5.5796159e-9, 3.0199982e+2
-0.194, 5.4446163e-9, -5.2920437e-9, 3.0233316e+2
-0.193, 4.9253885e-9, -5.0044706e-9, 3.0266650e+2
-0.192, 4.2599781e-9, -4.5763073e-9, 3.0299985e+2
-0.191, 3.4531771e-9, -4.1864867e-9, 3.0333319e+2
-0.190, 2.9195706e-9, -3.7399510e-9, 3.0366653e+2
-0.189, 2.5497204e-9, -3.2878231e-9, 3.0399988e+2
-0.188, 2.2629469e-9, -2.9027956e-9, 3.0433322e+2
-0.187, 2.0624449e-9, -2.5505194e-9, 3.0466656e+2
-0.186, 1.9562028e-9, -2.3220590e-9, 3.0499991e+2
-0.185, 1.8212036e-9, -2.1535096e-9, 3.0533325e+2
-0.184, 1.7397247e-9, -1.9961435e-9, 3.0566660e+2
-0.183, 1.6047254e-9, -1.8435703e-9, 3.0599994e+2
-0.182, 1.4529511e-9, -1.7445176e-9, 3.0633328e+2
-0.181, 1.2508515e-9, -1.6246957e-9, 3.0666663e+2
-0.180, 1.0447579e-9, -1.5248443e-9, 3.0699997e+2
-0.179, 9.1455149e-10, -1.4297855e-9, 3.0733331e+2
-0.178, 7.2922701e-10, -1.3515019e-9, 3.0766666e+2
-0.177, 5.7505622e-10, -1.2660289e-9, 3.0800000e+2
-0.176, 4.4085577e-10, -1.1893430e-9, 3.0833334e+2
-0.175, 1.9082751e-10, -1.1238404e-9, 3.0866669e+2
-0.174, -2.4053036e-11, -1.0455568e-9, 3.0900003e+2
-0.173, -2.3174425e-10, -1.0008232e-9, 3.0933337e+2
-0.172, -4.8416898e-10, -9.5369335e-10, 3.0966672e+2
-0.171, -6.2635758e-10, -9.3611952e-10, 3.1000006e+2
-0.170, -8.0529150e-10, -8.8499547e-10, 3.1033340e+2
-0.169, -9.8582309e-10, -8.4185958e-10, 3.1066675e+2
-0.168, -1.1360000e-9, -8.1629759e-10, 3.1100009e+2
-0.167, -1.3125373e-9, -7.9632728e-10, 3.1133344e+2
-0.166, -1.3828328e-9, -7.5478906e-10, 3.1166678e+2
-0.165, -1.6552280e-9, -7.3641637e-10, 3.1200012e+2
-0.164, -1.7454937e-9, -7.2283651e-10, 3.1233347e+2
-0.163, -1.8365583e-9, -7.0765910e-10, 3.1266681e+2
-0.162, -2.0929771e-9, -6.7331019e-10, 3.1300015e+2
-0.161, -2.1672666e-9, -6.4694938e-10, 3.1333350e+2
-0.160, -2.1696631e-9, -6.2777789e-10, 3.1366684e+2
-0.159, -2.3174436e-9, -6.0301464e-10, 3.1400018e+2
-0.158, -2.3941293e-9, -6.0141703e-10, 3.1433353e+2
-0.157, -2.4188924e-9, -5.7345861e-10, 3.1466687e+2
-0.156, -2.4716142e-9, -5.5508592e-10, 3.1500021e+2
-0.155, -2.5107560e-9, -5.4070731e-10, 3.1533356e+2
-0.154, -2.5586846e-9, -5.2393229e-10, 3.1566690e+2
-0.153, -2.5802527e-9, -5.2153581e-10, 3.1600024e+2
-0.152, -2.6641278e-9, -4.9118098e-10, 3.1633359e+2
-0.151, -2.6992757e-9, -4.6322254e-10, 3.1666693e+2
-0.150, -2.7128555e-9, -4.6402135e-10, 3.1700027e+2
-0.149, -2.7543938e-9, -4.3206883e-10, 3.1733362e+2
-0.148, -2.7695712e-9, -3.9771991e-10, 3.1766696e+2
-0.147, -2.7799558e-9, -3.8334128e-10, 3.1800031e+2
-0.146, -2.8206952e-9, -3.9612227e-10, 3.1833365e+2
-0.145, -2.8262870e-9, -3.4579711e-10, 3.1866699e+2
-0.144, -2.8430620e-9, -3.3381492e-10, 3.1900034e+2
-0.143, -2.8734168e-9, -3.2422914e-10, 3.1933368e+2
-0.142, -2.8686240e-9, -3.1703984e-10, 3.1966702e+2
-0.141, -2.8790084e-9, -2.8508734e-10, 3.2000037e+2
-0.140, -2.8909906e-9, -2.7789804e-10, 3.2033371e+2
-0.139, -2.9077658e-9, -2.3556099e-10, 3.2066705e+2
-0.138, -2.9197480e-9, -2.2277999e-10, 3.2100040e+2
-0.137, -2.9405172e-9, -2.0041324e-10, 3.2133374e+2
-0.136, -2.9373217e-9, -2.0280967e-10, 3.2166708e+2
-0.135, -2.9764637e-9, -1.7405243e-10, 3.2200043e+2
-0.134, -2.9620850e-9, -1.6446669e-10, 3.2233377e+2
-0.133, -2.9908422e-9, -1.3251419e-10, 3.2266711e+2
-0.132, -2.9740672e-9, -8.6183075e-11, 3.2300046e+2
-0.131, -2.9940375e-9, -9.2573574e-11, 3.2333380e+2
-0.130, -3.0195995e-9, -5.9822265e-11, 3.2366714e+2
-0.129, -3.0227947e-9, -7.1005639e-11, 3.2400049e+2
-0.128, -3.0395699e-9, -1.7485209e-11, 3.2433383e+2
-0.127, -3.0619365e-9, 2.6449471e-11, 3.2466718e+2
-0.126, -3.0651319e-9, -4.7042114e-12, 3.2500052e+2
-0.125, -3.0803091e-9, 5.3609093e-11, 3.2533386e+2
-0.124, -3.1194509e-9, 7.1981775e-11, 3.2566721e+2
-0.123, -3.0819067e-9, 1.2070933e-10, 3.2600055e+2
-0.122, -3.1218474e-9, 1.4147845e-10, 3.2633389e+2
-0.121, -3.1290368e-9, 1.8062027e-10, 3.2666724e+2
-0.120, -3.1242438e-9, 2.2375612e-10, 3.2700058e+2
-0.119, -3.1482084e-9, 2.5171457e-10, 3.2733392e+2
-0.118, -3.1553975e-9, 2.9804570e-10, 3.2766727e+2
-0.117, -3.1969358e-9, 2.7567892e-10, 3.2800061e+2
-0.116, -3.1937404e-9, 3.6913997e-10, 3.2833395e+2
-0.115, -3.2320835e-9, 3.7952455e-10, 3.2866730e+2
-0.114, -3.2608409e-9, 3.9230555e-10, 3.2900064e+2
-0.113, -3.2544505e-9, 4.6100340e-10, 3.2933398e+2
-0.112, -3.2736218e-9, 4.9455351e-10, 3.2966733e+2
-0.111, -3.2991838e-9, 5.3928700e-10, 3.3000067e+2
-0.110, -3.2967873e-9, 5.7123950e-10, 3.3033401e+2
-0.109, -3.3471126e-9, 5.9440503e-10, 3.3066736e+2
-0.108, -3.3495091e-9, 6.3434569e-10, 3.3100070e+2
-0.107, -3.3838579e-9, 6.6230410e-10, 3.3133405e+2
-0.106, -3.3950411e-9, 7.2700790e-10, 3.3166739e+2
-0.105, -3.4110177e-9, 7.9730339e-10, 3.3200073e+2
-0.104, -3.4245975e-9, 7.6295448e-10, 3.3233408e+2
-0.103, -3.5028809e-9, 8.2206664e-10, 3.3266742e+2
-0.102, -3.4677332e-9, 8.7798346e-10, 3.3300076e+2
-0.101, -3.5412240e-9, 9.0114899e-10, 3.3333411e+2
-0.100, -3.4589462e-9, 9.5866348e-10, 3.3366745e+2
-0.099, -3.4916976e-9, 9.3709562e-10, 3.3400079e+2
-0.098, -3.5691825e-9, 9.9301245e-10, 3.3433414e+2
-0.097, -3.5699812e-9, 9.7304220e-10, 3.3466748e+2
-0.096, -3.5627921e-9, 1.0529234e-9, 3.3500082e+2
-0.095, -3.6219039e-9, 1.0912664e-9, 3.3533417e+2
-0.094, -3.6195076e-9, 1.1336034e-9, 3.3566751e+2
-0.093, -3.6091230e-9, 1.1479820e-9, 3.3600085e+2
-0.092, -3.6969923e-9, 1.2302598e-9, 3.3633420e+2
-0.091, -3.6618446e-9, 1.2614134e-9, 3.3666754e+2
-0.090, -3.6666374e-9, 1.3005552e-9, 3.3700089e+2
-0.089, -3.7009864e-9, 1.3197267e-9, 3.3733423e+2
-0.088, -3.6842114e-9, 1.2989576e-9, 3.3766757e+2
-0.087, -3.6961934e-9, 1.4179806e-9, 3.3800092e+2
-0.086, -3.7121699e-9, 1.4683058e-9, 3.3833426e+2
-0.085, -3.7249508e-9, 1.4107913e-9, 3.3866760e+2
-0.084, -3.7177614e-9, 1.5162346e-9, 3.3900095e+2
-0.083, -3.7169627e-9, 1.5026548e-9, 3.3933429e+2
-0.082, -3.7648915e-9, 1.5425953e-9, 3.3966763e+2
-0.081, -3.7513117e-9, 1.5649620e-9, 3.4000098e+2
-0.080, -3.7313415e-9, 1.6001098e-9, 3.4033432e+2
-0.079, -3.7672878e-9, 1.6344588e-9, 3.4066766e+2
-0.078, -3.7696841e-9, 1.6424470e-9, 3.4100101e+2
-0.077, -3.7401282e-9, 1.6736006e-9, 3.4133435e+2
-0.076, -3.7561043e-9, 1.7303163e-9, 3.4166769e+2
-0.075, -3.7824655e-9, 1.7135412e-9, 3.4200104e+2
-0.074, -3.7449213e-9, 1.7710557e-9, 3.4233438e+2
-0.073, -3.7920511e-9, 1.7622688e-9, 3.4266772e+2
-0.072, -3.7569032e-9, 1.7718546e-9, 3.4300107e+2
-0.071, -3.7704830e-9, 1.8006118e-9, 3.4333441e+2
-0.070, -3.7656900e-9, 1.8413512e-9, 3.4366776e+2
-0.069, -3.7776724e-9, 1.8541322e-9, 3.4400110e+2
-0.068, -3.7776724e-9, 1.9220312e-9, 3.4433444e+2
-0.067, -3.7664889e-9, 1.9236288e-9, 3.4466779e+2
-0.066, -3.8168140e-9, 1.9284219e-9, 3.4500113e+2
-0.065, -3.7776724e-9, 1.9787469e-9, 3.4533447e+2
-0.064, -3.7776724e-9, 1.9723563e-9, 3.4566782e+2
-0.063, -3.7744772e-9, 1.9787469e-9, 3.4600116e+2
-0.062, -3.7800687e-9, 2.0266757e-9, 3.4633450e+2
-0.061, -3.8160155e-9, 2.0490423e-9, 3.4666785e+2
-0.060, -3.8224059e-9, 2.0674151e-9, 3.4700119e+2
-0.059, -3.7664889e-9, 2.0618234e-9, 3.4733453e+2
-0.058, -3.7872581e-9, 2.0937758e-9, 3.4766788e+2
-0.057, -3.7744772e-9, 2.0770010e-9, 3.4800122e+2
-0.056, -3.7720804e-9, 2.0762021e-9, 3.4833456e+2
-0.055, -3.7864591e-9, 2.1217343e-9, 3.4866791e+2
-0.054, -3.8008379e-9, 2.1241306e-9, 3.4900125e+2
-0.053, -3.8287964e-9, 2.1185391e-9, 3.4933459e+2
-0.052, -3.7752761e-9, 2.1305213e-9, 3.4966794e+2
-0.051, -3.7816665e-9, 2.1313200e-9, 3.5000128e+2
-0.050, -3.7936485e-9, 2.1305213e-9, 3.5033463e+2
-0.049, -3.7880570e-9, 2.1337165e-9, 3.5066797e+2
-0.048, -3.7912522e-9, 2.1568820e-9, 3.5100131e+2
-0.047, -3.8216070e-9, 2.1608761e-9, 3.5133466e+2
-0.046, -3.7473176e-9, 2.1688642e-9, 3.5166800e+2
-0.045, -3.7457202e-9, 2.1752546e-9, 3.5200134e+2
-0.044, -3.7425245e-9, 2.2151954e-9, 3.5233469e+2
-0.043, -3.7465187e-9, 2.2663194e-9, 3.5266803e+2
-0.042, -3.7329388e-9, 2.2655207e-9, 3.5300137e+2
-0.041, -3.7081758e-9, 2.2471480e-9, 3.5333472e+2
-0.040, -3.7329388e-9, 2.3134492e-9, 3.5366806e+2
-0.039, -3.7257495e-9, 2.3102542e-9, 3.5400140e+2
-0.038, -3.7097734e-9, 2.2830944e-9, 3.5433475e+2
-0.037, -3.7385308e-9, 2.3094553e-9, 3.5466809e+2
-0.036, -3.6921994e-9, 2.3254314e-9, 3.5500143e+2
-0.035, -3.7265484e-9, 2.3110529e-9, 3.5533478e+2
-0.034, -3.7233532e-9, 2.3446030e-9, 3.5566812e+2
-0.033, -3.7401282e-9, 2.3613782e-9, 3.5600146e+2
-0.032, -3.7265484e-9, 2.3557862e-9, 3.5633481e+2
-0.031, -3.7089745e-9, 2.3485971e-9, 3.5666815e+2
-0.030, -3.7009864e-9, 2.3829461e-9, 3.5700150e+2
-0.029, -3.7425245e-9, 2.3869402e-9, 3.5733484e+2
-0.028, -3.7025840e-9, 2.3318218e-9, 3.5766818e+2
-0.027, -3.6993888e-9, 2.3685673e-9, 3.5800153e+2
-0.026, -3.6993888e-9, 2.3709639e-9, 3.5833487e+2
-0.025, -3.6826138e-9, 2.3741591e-9, 3.5866821e+2
-0.024, -3.7121699e-9, 2.4236855e-9, 3.5900156e+2
-0.023, -3.7145664e-9, 2.4172950e-9, 3.5933490e+2
-0.022, -3.7009864e-9, 2.4101057e-9, 3.5966824e+2
-0.021, -3.7137675e-9, 2.4220879e-9, 3.6000159e+2
-0.020, -3.7257495e-9, 2.4356677e-9, 3.6033493e+2
-0.019, -3.6682350e-9, 2.4188924e-9, 3.6066827e+2
-0.018, -3.7017853e-9, 2.4636260e-9, 3.6100162e+2
-0.017, -3.7097734e-9, 2.4452533e-9, 3.6133496e+2
-0.016, -3.6890044e-9, 2.4356677e-9, 3.6166830e+2
-0.015, -3.6498624e-9, 2.4612297e-9, 3.6200165e+2
-0.014, -3.6818151e-9, 2.4548392e-9, 3.6233499e+2
-0.013, -3.6850101e-9, 2.4500462e-9, 3.6266833e+2
-0.012, -3.7049805e-9, 2.4788036e-9, 3.6300168e+2
-0.011, -3.6650398e-9, 2.4923834e-9, 3.6333502e+2
-0.010, -3.6594481e-9, 2.4915845e-9, 3.6366837e+2
-0.009, -3.6570518e-9, 2.4804012e-9, 3.6400171e+2
-0.008, -3.6634422e-9, 2.4867917e-9, 3.6433505e+2
-0.007, -3.6586492e-9, 2.4851941e-9, 3.6466840e+2
-0.006, -3.6282943e-9, 2.4923834e-9, 3.6500174e+2
-0.005, -3.6682350e-9, 2.5379157e-9, 3.6533508e+2
-0.004, -3.6554542e-9, 2.5403120e-9, 3.6566843e+2
-0.003, -3.6746257e-9, 2.5275311e-9, 3.6600177e+2
-0.002, -3.6874066e-9, 2.5083595e-9, 3.6633511e+2
-0.001, -3.6530576e-9, 2.5251348e-9, 3.6666846e+2
-0.000, -3.6434720e-9, 2.5475013e-9, 3.6700180e+2
0.001, -3.6977912e-9, 2.5562883e-9, 3.6733514e+2
0.002, -3.6498624e-9, 2.5818503e-9, 3.6766849e+2
0.003, -3.6937970e-9, 2.5562883e-9, 3.6800183e+2
0.004, -3.6921994e-9, 2.5850455e-9, 3.6833517e+2
0.005, -3.6961934e-9, 2.5994242e-9, 3.6866852e+2
0.006, -3.7017853e-9, 2.6209921e-9, 3.6900186e+2
0.007, -3.6953949e-9, 2.6193945e-9, 3.6933521e+2
0.008, -3.7017853e-9, 2.6098086e-9, 3.6966855e+2
0.009, -3.7041816e-9, 2.6050160e-9, 3.7000189e+2
0.010, -3.6898029e-9, 2.6265836e-9, 3.7033524e+2
0.011, -3.6977912e-9, 2.6122051e-9, 3.7066858e+2
0.012, -3.6810162e-9, 2.6329743e-9, 3.7100192e+2
0.013, -3.6866079e-9, 2.6265836e-9, 3.7133527e+2
0.014, -3.7065782e-9, 2.6489506e-9, 3.7166861e+2
0.015, -3.6961934e-9, 2.6497493e-9, 3.7200195e+2
0.016, -3.6914005e-9, 2.6617315e-9, 3.7233530e+2
0.017, -3.7297436e-9, 2.6585363e-9, 3.7266864e+2
0.018, -3.7065782e-9, 2.6617315e-9, 3.7300198e+2
0.019, -3.7081758e-9, 2.6737137e-9, 3.7333533e+2
0.020, -3.7537080e-9, 2.7008733e-9, 3.7366867e+2
0.021, -3.7393293e-9, 2.6689209e-9, 3.7400201e+2
0.022, -3.7521106e-9, 2.6968792e-9, 3.7433536e+2
0.023, -3.7185603e-9, 2.7088614e-9, 3.7466870e+2
0.024, -3.7121699e-9, 2.7200449e-9, 3.7500204e+2
0.025, -3.7760750e-9, 2.7168496e-9, 3.7533539e+2
0.026, -3.7305425e-9, 2.7192462e-9, 3.7566873e+2
0.027, -3.7273473e-9, 2.7112579e-9, 3.7600208e+2
0.028, -3.7369330e-9, 2.7248377e-9, 3.7633542e+2
0.029, -3.7361341e-9, 2.7248377e-9, 3.7666876e+2
0.030, -3.7680867e-9, 2.7232401e-9, 3.7700211e+2
0.031, -3.7489150e-9, 2.7384175e-9, 3.7733545e+2
0.032, -3.7632937e-9, 2.7480032e-9, 3.7766879e+2
0.033, -3.7992405e-9, 2.7320270e-9, 3.7800214e+2
0.034, -3.7441223e-9, 2.7432103e-9, 3.7833548e+2
0.035, -3.7760750e-9, 2.7511986e-9, 3.7866882e+2
0.036, -3.8152166e-9, 2.7615830e-9, 3.7900217e+2
0.037, -3.7872581e-9, 2.7743641e-9, 3.7933551e+2
0.038, -3.8096246e-9, 2.7863463e-9, 3.7966885e+2
0.039, -3.7608974e-9, 2.7519975e-9, 3.8000220e+2
0.040, -3.7632937e-9, 2.7759617e-9, 3.8033554e+2
0.041, -3.7936485e-9, 2.7943343e-9, 3.8066888e+2
0.042, -3.7992405e-9, 2.8031213e-9, 3.8100223e+2
0.043, -3.7928500e-9, 2.7823523e-9, 3.8133557e+2
0.044, -3.8160155e-9, 2.7847487e-9, 3.8166891e+2
0.045, -3.8559560e-9, 2.7975295e-9, 3.8200226e+2
0.046, -3.8958965e-9, 2.8167011e-9, 3.8233560e+2
0.047, -3.8687369e-9, 2.8007250e-9, 3.8266895e+2
0.048, -3.8391810e-9, 2.7863463e-9, 3.8300229e+2
0.049, -3.8990917e-9, 2.8127072e-9, 3.8333563e+2
0.050, -3.9110741e-9, 2.8366713e-9, 3.8366898e+2
0.051, -3.9078789e-9, 2.8318785e-9, 3.8400232e+2
0.052, -3.8990917e-9, 2.8151035e-9, 3.8433566e+2
0.053, -3.9310444e-9, 2.8182987e-9, 3.8466901e+2
0.054, -3.9246539e-9, 2.8238905e-9, 3.8500235e+2
0.055, -3.9390327e-9, 2.8446596e-9, 3.8533569e+2
0.056, -3.9789732e-9, 2.8374703e-9, 3.8566904e+2
0.057, -3.9845651e-9, 2.8494525e-9, 3.8600238e+2
0.058, -3.9598014e-9, 2.8438607e-9, 3.8633572e+2
0.059, -4.0021386e-9, 2.8566418e-9, 3.8666907e+2
0.060, -4.0332924e-9, 2.8726179e-9, 3.8700241e+2
0.061, -4.0181147e-9, 2.8598368e-9, 3.8733575e+2
0.062, -4.0492685e-9, 2.8734168e-9, 3.8766910e+2
0.063, -4.0828190e-9, 2.8965825e-9, 3.8800244e+2
0.064, -4.0772270e-9, 2.9173515e-9, 3.8833578e+2
0.065, -4.0971972e-9, 2.8997775e-9, 3.8866913e+2
0.066, -4.1187653e-9, 2.9053693e-9, 3.8900247e+2
0.067, -4.1299484e-9, 2.9357241e-9, 3.8933582e+2
0.068, -4.1571084e-9, 2.9309313e-9, 3.8966916e+2
0.069, -4.1946526e-9, 2.9229430e-9, 3.9000250e+2
0.070, -4.1906580e-9, 2.9405172e-9, 3.9033585e+2
0.071, -4.2385873e-9, 2.9509015e-9, 3.9066919e+2
0.072, -4.2393857e-9, 2.9333278e-9, 3.9100253e+2
0.073, -4.2497708e-9, 2.9804577e-9, 3.9133588e+2
0.074, -4.2833208e-9, 2.9724694e-9, 3.9166922e+2
0.075, -4.3544151e-9, 2.9660789e-9, 3.9200256e+2
0.076, -4.3520187e-9, 2.9876470e-9, 3.9233591e+2
0.077, -4.3496220e-9, 3.0132090e-9, 3.9266925e+2
0.078, -4.3911603e-9, 3.0291851e-9, 3.9300259e+2
0.079, -4.4239115e-9, 3.0363745e-9, 3.9333594e+2
0.080, -4.4143262e-9, 3.0443625e-9, 3.9366928e+2
0.081, -4.4710418e-9, 3.0547471e-9, 3.9400262e+2
0.082, -4.5157749e-9, 3.0715224e-9, 3.9433597e+2
0.083, -4.5405386e-9, 3.0851022e-9, 3.9466931e+2
0.084, -4.5517217e-9, 3.0771139e-9, 3.9500266e+2
0.085, -4.5996504e-9, 3.0874985e-9, 3.9533600e+2
0.086, -4.6459814e-9, 3.0970844e-9, 3.9566934e+2
0.087, -4.6563660e-9, 3.1074687e-9, 3.9600269e+2
0.088, -4.7226676e-9, 3.1130605e-9, 3.9633603e+2
0.089, -4.7618096e-9, 3.1306344e-9, 3.9666937e+2
0.090, -4.8089390e-9, 3.1346286e-9, 3.9700272e+2
0.091, -4.8696487e-9, 3.1482084e-9, 3.9733606e+2
0.092, -4.8800333e-9, 3.1697762e-9, 3.9766940e+2
0.093, -4.8968083e-9, 3.1721727e-9, 3.9800275e+2
0.094, -4.9463349e-9, 3.1945393e-9, 3.9833609e+2
0.095, -5.0477840e-9, 3.1977347e-9, 3.9866943e+2
0.096, -5.0605653e-9, 3.2344800e-9, 3.9900278e+2
0.097, -5.1716000e-9, 3.2400718e-9, 3.9933612e+2
0.098, -5.2067479e-9, 3.2496574e-9, 3.9966946e+2
0.099, -5.0517781e-9, 3.2368763e-9, 4.0000281e+2
