Dec. 9, 2005   02:23:25
Cyclic Voltammetry
File: d:\ida_biofilms\11_28_18_blankidapyo\50um_pyo_soak_gc.txt
Data Source:  Experiment
Instrument Model:  CHI760B
Header: 
Note: 

Init E (V) = 0.1
High E (V) = 0.1
Low E (V) = -0.5
Init P/N = N
Scan Rate (V/s) = 0.003
Segment = 2
Sample Interval (V) = 0.001
Quiet Time (sec) = 2
Sensitivity (A/V) = 1e-6
2nd E (V) = 0.1
Sens 2 (A/V) = 1e-6

Potential/V, i1/A, i2/A, Time/s

0.100, -1.3171706e-8, -6.8752897e-9, 3.3333334e-1
0.099, -1.2250676e-8, -6.2689907e-9, 6.6666669e-1
0.098, -1.0525240e-8, -5.8256497e-9, 1.0000000e+0
0.097, -9.3933235e-9, -5.4685807e-9, 1.3333334e+0
0.096, -8.8437409e-9, -4.9884950e-9, 1.6666667e+0
0.095, -8.3724405e-9, -4.3590305e-9, 2.0000000e+0
0.094, -8.0049878e-9, -3.7016079e-9, 2.3333333e+0
0.093, -7.7317939e-9, -3.1112857e-9, 2.6666665e+0
0.092, -7.3483637e-9, -2.6783293e-9, 2.9999998e+0
0.091, -6.8674786e-9, -2.2821185e-9, 3.3333330e+0
0.090, -6.2412098e-9, -2.0728295e-9, 3.6666663e+0
0.089, -5.7515375e-9, -1.8747242e-9, 3.9999995e+0
0.088, -5.2051501e-9, -1.6814115e-9, 4.3333330e+0
0.087, -4.8528737e-9, -1.5440157e-9, 4.6666665e+0
0.086, -4.5045918e-9, -1.3938389e-9, 5.0000000e+0
0.085, -4.2753325e-9, -1.2859993e-9, 5.3333335e+0
0.084, -4.0692387e-9, -1.1853489e-9, 5.6666670e+0
0.083, -3.9110741e-9, -1.0926867e-9, 6.0000005e+0
0.082, -3.6738268e-9, -1.0191958e-9, 6.3333340e+0
0.081, -3.5308394e-9, -9.6487662e-10, 6.6666675e+0
0.080, -3.3942424e-9, -8.8180019e-10, 7.0000010e+0
0.079, -3.2544505e-9, -8.3786550e-10, 7.3333344e+0
0.078, -3.1769656e-9, -8.1230350e-10, 7.6666679e+0
0.077, -3.0938889e-9, -7.6357592e-10, 8.0000010e+0
0.076, -3.0188005e-9, -7.1404960e-10, 8.3333340e+0
0.075, -2.9532981e-9, -6.7810307e-10, 8.6666670e+0
0.074, -2.8989788e-9, -6.5573630e-10, 9.0000000e+0
0.073, -2.8294820e-9, -6.2378380e-10, 9.3333330e+0
0.072, -2.7575890e-9, -5.8703847e-10, 9.6666660e+0
0.071, -2.6872935e-9, -5.6946459e-10, 9.9999990e+0
0.070, -2.5922349e-9, -5.1754179e-10, 1.0333332e+1
0.069, -2.4827975e-9, -5.0156551e-10, 1.0666665e+1
0.068, -2.3605793e-9, -4.7680232e-10, 1.0999998e+1
0.067, -2.2423550e-9, -4.4804507e-10, 1.1333331e+1
0.066, -2.0961723e-9, -4.1209855e-10, 1.1666664e+1
0.065, -1.9763506e-9, -3.8414008e-10, 1.1999997e+1
0.064, -1.8836883e-9, -3.4340067e-10, 1.2333330e+1
0.063, -1.6049028e-9, -3.3860778e-10, 1.2666663e+1
0.062, -1.4842820e-9, -3.3461373e-10, 1.2999996e+1
0.061, -1.3908210e-9, -2.5633012e-10, 1.3333329e+1
0.060, -1.0792842e-9, -2.4834199e-10, 1.3666662e+1
0.059, -1.0569174e-9, -1.9562038e-10, 1.3999995e+1
0.058, -9.7623742e-10, -2.0360849e-10, 1.4333328e+1
0.057, -7.2301387e-10, -1.3810589e-10, 1.4666661e+1
0.056, -6.5271838e-10, -1.6526551e-10, 1.4999994e+1
0.055, -4.6339982e-10, -9.4171199e-11, 1.5333327e+1
0.054, -3.7073761e-10, -6.2218702e-11, 1.5666660e+1
0.053, -2.3893357e-10, -2.4674521e-11, 1.5999993e+1
0.052, -9.1952092e-11, -4.0650767e-11, 1.6333326e+1
0.051, 5.2632954e-11, 4.3224532e-11, 1.6666660e+1
0.050, 1.5088772e-11, 4.8816218e-11, 1.6999994e+1
0.049, 1.8443699e-10, 9.1153279e-11, 1.7333328e+1
0.048, 1.8044294e-10, 9.5946147e-11, 1.7666662e+1
0.047, 2.8828262e-10, 1.3109390e-10, 1.7999996e+1
0.046, 3.7215789e-10, 1.7343095e-10, 1.8333330e+1
0.045, 4.1689138e-10, 2.0698107e-10, 1.8666664e+1
0.044, 5.2792631e-10, 1.9579770e-10, 1.8999998e+1
0.043, 5.3591442e-10, 2.5490979e-10, 1.9333332e+1
0.042, 6.1339928e-10, 2.2056088e-10, 1.9666666e+1
0.041, 6.8049949e-10, 2.5890387e-10, 2.0000000e+1
0.040, 7.3961165e-10, 2.6609318e-10, 2.0333334e+1
0.039, 7.6597240e-10, 2.6369673e-10, 2.0666668e+1
0.038, 8.0191898e-10, 3.0363739e-10, 2.1000002e+1
0.037, 8.1469997e-10, 3.3958392e-10, 2.1333336e+1
0.036, 8.8819069e-10, 3.8751266e-10, 2.1666670e+1
0.035, 8.9538005e-10, 3.8751266e-10, 2.2000004e+1
0.034, 9.5529096e-10, 3.8911030e-10, 2.2333338e+1
0.033, 1.0183971e-9, 4.1147702e-10, 2.2666672e+1
0.032, 1.0495508e-9, 4.4822240e-10, 2.3000006e+1
0.031, 1.0910891e-9, 4.5860699e-10, 2.3333340e+1
0.030, 1.1302308e-9, 4.6100340e-10, 2.3666674e+1
0.029, 1.1494024e-9, 5.3449417e-10, 2.4000008e+1
0.028, 1.1893430e-9, 4.9774879e-10, 2.4333342e+1
0.027, 1.2316801e-9, 5.5686089e-10, 2.4666676e+1
0.026, 1.2692242e-9, 6.1437538e-10, 2.5000010e+1
0.025, 1.3115613e-9, 5.7763000e-10, 2.5333344e+1
0.024, 1.3930401e-9, 6.5910888e-10, 2.5666677e+1
0.023, 1.2883957e-9, 6.4712669e-10, 2.6000011e+1
0.022, 1.3834545e-9, 6.6070649e-10, 2.6333345e+1
0.021, 1.2724195e-9, 6.4552907e-10, 2.6666679e+1
0.020, 1.4249926e-9, 6.2475991e-10, 2.7000013e+1
0.019, 1.4050223e-9, 6.5591360e-10, 2.7333347e+1
0.018, 1.4521523e-9, 7.1023287e-10, 2.7666681e+1
0.017, 1.4745191e-9, 7.5256995e-10, 2.8000015e+1
0.016, 1.4952881e-9, 7.5896045e-10, 2.8333349e+1
0.015, 1.5104655e-9, 7.9810225e-10, 2.8666683e+1
0.014, 1.5464121e-9, 7.5736278e-10, 2.9000017e+1
0.013, 1.5512049e-9, 7.8851647e-10, 2.9333351e+1
0.012, 1.5727730e-9, 7.8132717e-10, 2.9666685e+1
0.011, 1.5991337e-9, 7.5496637e-10, 3.0000019e+1
0.010, 1.6878019e-9, 7.0384237e-10, 3.0333353e+1
0.009, 1.6893995e-9, 7.8212598e-10, 3.0666687e+1
0.008, 1.7964403e-9, 6.3434569e-10, 3.1000021e+1
0.007, 1.7069735e-9, 5.6644661e-10, 3.1333355e+1
0.006, 1.6662340e-9, 6.0079552e-10, 3.1666689e+1
0.005, 1.6167077e-9, 6.6310296e-10, 3.2000023e+1
0.004, 1.7956416e-9, 5.9680150e-10, 3.2333355e+1
0.003, 1.5719741e-9, 5.8481936e-10, 3.2666687e+1
0.002, 1.7149615e-9, 5.6005611e-10, 3.3000019e+1
0.001, 1.7309377e-9, 5.7763000e-10, 3.3333351e+1
-0.000, 1.7644879e-9, 5.8961225e-10, 3.3666683e+1
-0.001, 1.7852571e-9, 5.8402050e-10, 3.4000015e+1
-0.002, 1.7812629e-9, 5.7842886e-10, 3.4333347e+1
-0.003, 1.7828606e-9, 5.5925736e-10, 3.4666679e+1
-0.004, 1.8076237e-9, 6.2236355e-10, 3.5000011e+1
-0.005, 1.8467655e-9, 6.6390171e-10, 3.5333344e+1
-0.006, 1.8651383e-9, 6.5671246e-10, 3.5666676e+1
-0.007, 1.8611442e-9, 6.4872430e-10, 3.6000008e+1
-0.008, 1.8763215e-9, 6.6230410e-10, 3.6333340e+1
-0.009, 1.9034812e-9, 7.1502576e-10, 3.6666672e+1
-0.010, 1.9106705e-9, 6.8706735e-10, 3.7000004e+1
-0.011, 1.9098716e-9, 7.0224476e-10, 3.7333336e+1
-0.012, 1.9226527e-9, 7.4617945e-10, 3.7666668e+1
-0.013, 1.9426230e-9, 7.7493667e-10, 3.8000000e+1
-0.014, 1.9546054e-9, 8.1887136e-10, 3.8333332e+1
-0.015, 1.9641910e-9, 8.3484764e-10, 3.8666664e+1
-0.016, 1.9865578e-9, 7.8292484e-10, 3.8999996e+1
-0.017, 2.0065281e-9, 8.1088325e-10, 3.9333328e+1
-0.018, 1.9985400e-9, 8.1567614e-10, 3.9666660e+1
-0.019, 2.0113211e-9, 8.0688917e-10, 3.9999992e+1
-0.020, 2.0552557e-9, 7.8532125e-10, 4.0333324e+1
-0.021, 2.0249007e-9, 8.1088325e-10, 4.0666656e+1
-0.022, 2.0408770e-9, 7.5017348e-10, 4.0999989e+1
-0.023, 2.0512614e-9, 7.5736278e-10, 4.1333321e+1
-0.024, 2.0736284e-9, 7.7014384e-10, 4.1666653e+1
-0.025, 2.1039832e-9, 8.3804286e-10, 4.1999985e+1
-0.026, 2.0927999e-9, 8.0049867e-10, 4.2333317e+1
-0.027, 2.1023856e-9, 7.7893070e-10, 4.2666649e+1
-0.028, 2.1399296e-9, 8.1887136e-10, 4.2999981e+1
-0.029, 2.1495155e-9, 8.1807250e-10, 4.3333313e+1
-0.030, 2.2150179e-9, 8.3964052e-10, 4.3666645e+1
-0.031, 2.2230062e-9, 8.1647489e-10, 4.3999977e+1
-0.032, 2.2333906e-9, 8.4523216e-10, 4.4333309e+1
-0.033, 2.2477693e-9, 8.9076446e-10, 4.4666641e+1
-0.034, 2.2677398e-9, 8.9395974e-10, 4.4999973e+1
-0.035, 2.3092779e-9, 8.7718466e-10, 4.5333305e+1
-0.036, 2.3380353e-9, 8.8756918e-10, 4.5666637e+1
-0.037, 2.3763782e-9, 8.9635616e-10, 4.5999969e+1
-0.038, 2.3835673e-9, 8.3325002e-10, 4.6333302e+1
-0.039, 2.4394844e-9, 8.4363455e-10, 4.6666634e+1
-0.040, 2.4458751e-9, 7.9730339e-10, 4.6999966e+1
-0.041, 2.4810227e-9, 8.4283575e-10, 4.7333298e+1
-0.042, 2.5225608e-9, 7.9330936e-10, 4.7666630e+1
-0.043, 2.5792763e-9, 7.7573548e-10, 4.7999962e+1
-0.044, 2.6232112e-9, 7.6535095e-10, 4.8333294e+1
-0.045, 2.6256077e-9, 7.7333906e-10, 4.8666626e+1
-0.046, 2.6559626e-9, 7.5576517e-10, 4.8999958e+1
-0.047, 2.7110805e-9, 7.1662337e-10, 4.9333290e+1
-0.048, 2.7630034e-9, 7.2700790e-10, 4.9666622e+1
-0.049, 2.8213167e-9, 7.3899015e-10, 4.9999954e+1
-0.050, 2.8772336e-9, 7.4777706e-10, 5.0333286e+1
-0.051, 2.9690970e-9, 7.4218537e-10, 5.0666618e+1
-0.052, 3.0218186e-9, 7.5097228e-10, 5.0999950e+1
-0.053, 3.0553688e-9, 7.1981865e-10, 5.1333282e+1
-0.054, 3.1264629e-9, 7.1342815e-10, 5.1666615e+1
-0.055, 3.1999539e-9, 7.0464118e-10, 5.1999947e+1
-0.056, 3.3277636e-9, 7.5256995e-10, 5.2333279e+1
-0.057, 3.3269649e-9, 7.0943401e-10, 5.2666611e+1
-0.058, 3.4244201e-9, 7.1742218e-10, 5.2999943e+1
-0.059, 3.5290644e-9, 7.0224476e-10, 5.3333275e+1
-0.060, 3.5865788e-9, 6.5591360e-10, 5.3666607e+1
-0.061, 3.6393006e-9, 6.6390171e-10, 5.3999939e+1
-0.062, 3.7359569e-9, 6.3754096e-10, 5.4333271e+1
-0.063, 3.8230277e-9, 6.6310296e-10, 5.4666603e+1
-0.064, 3.8693586e-9, 6.3354688e-10, 5.4999935e+1
-0.065, 4.0826413e-9, 6.1437538e-10, 5.5333267e+1
-0.066, 4.0754524e-9, 6.1038130e-10, 5.5666599e+1
-0.067, 4.2152442e-9, 6.0478966e-10, 5.5999931e+1
-0.068, 4.2408064e-9, 5.9999677e-10, 5.6333263e+1
-0.069, 4.2999182e-9, 5.9200866e-10, 5.6666595e+1
-0.070, 4.4580832e-9, 6.0558841e-10, 5.6999928e+1
-0.071, 4.5914850e-9, 5.9760030e-10, 5.7333260e+1
-0.072, 4.5970765e-9, 5.6405020e-10, 5.7666592e+1
-0.073, 4.7041171e-9, 6.0958250e-10, 5.7999924e+1
-0.074, 4.7983773e-9, 5.2011556e-10, 5.8333256e+1
-0.075, 4.8510991e-9, 5.2011556e-10, 5.8666588e+1
-0.076, 4.9301816e-9, 5.7523358e-10, 5.8999920e+1
-0.077, 5.0452105e-9, 5.6564786e-10, 5.9333252e+1
-0.078, 5.1866000e-9, 5.1292620e-10, 5.9666584e+1
-0.079, 5.2057714e-9, 5.2251198e-10, 5.9999916e+1
-0.080, 5.2465112e-9, 5.4887273e-10, 6.0333248e+1
-0.081, 5.3495577e-9, 5.0653570e-10, 6.0666580e+1
-0.082, 5.4070721e-9, 5.2331078e-10, 6.0999912e+1
-0.083, 5.4182561e-9, 5.1452381e-10, 6.1333244e+1
-0.084, 5.5492611e-9, 5.0733456e-10, 6.1666576e+1
-0.085, 5.5876037e-9, 5.0973092e-10, 6.1999908e+1
-0.086, 5.6291425e-9, 4.5541174e-10, 6.2333241e+1
-0.087, 5.6714793e-9, 4.9055943e-10, 6.2666573e+1
-0.088, 5.7297926e-9, 4.9535231e-10, 6.2999905e+1
-0.089, 5.7593486e-9, 4.5141768e-10, 6.3333237e+1
-0.090, 5.8384311e-9, 4.4103310e-10, 6.3666569e+1
-0.091, 5.8687859e-9, 4.7058912e-10, 6.3999901e+1
-0.092, 5.9382828e-9, 4.2345921e-10, 6.4333237e+1
-0.093, 5.9462706e-9, 3.9550080e-10, 6.4666573e+1
-0.094, 6.0245542e-9, 3.7313405e-10, 6.4999908e+1
-0.095, 6.0828675e-9, 3.9949485e-10, 6.5333244e+1
-0.096, 6.1371868e-9, 3.6834116e-10, 6.5666580e+1
-0.097, 6.1675416e-9, 3.7792691e-10, 6.5999916e+1
-0.098, 6.1962990e-9, 3.7233522e-10, 6.6333252e+1
-0.099, 6.2322454e-9, 3.3319342e-10, 6.6666588e+1
-0.100, 6.3137242e-9, 3.1002786e-10, 6.6999924e+1
-0.101, 6.3544636e-9, 3.1402192e-10, 6.7333260e+1
-0.102, 6.4215642e-9, 2.8047181e-10, 6.7666595e+1
-0.103, 6.4463270e-9, 2.5730623e-10, 6.7999931e+1
-0.104, 6.4503216e-9, 2.2535375e-10, 6.8333267e+1
-0.105, 6.5254100e-9, 2.2695137e-10, 6.8666603e+1
-0.106, 6.5645516e-9, 2.2056088e-10, 6.8999939e+1
-0.107, 6.6204686e-9, 1.5505827e-10, 6.9333275e+1
-0.108, 6.6795804e-9, 1.6304640e-10, 6.9666611e+1
-0.109, 6.7115327e-9, 1.4067963e-10, 6.9999947e+1
-0.110, 6.7698460e-9, 1.1352002e-10, 7.0333282e+1
-0.111, 6.7994024e-9, 1.2230696e-10, 7.0666618e+1
-0.112, 6.8513253e-9, 1.1911171e-10, 7.0999954e+1
-0.113, 6.8936621e-9, 6.9585337e-11, 7.1333290e+1
-0.114, 6.9048456e-9, 6.2396033e-11, 7.1666626e+1
-0.115, 6.9423893e-9, 4.0828094e-11, 7.1999962e+1
-0.116, 6.9975079e-9, 2.7248285e-11, 7.2333298e+1
-0.117, 7.0398452e-9, 1.5266097e-11, 7.2666634e+1
-0.118, 7.0701995e-9, 6.4791618e-12, 7.2999969e+1
-0.119, 7.1125368e-9, -6.1419890e-11, 7.3333305e+1
-0.120, 7.1676549e-9, -8.0591388e-11, 7.3666641e+1
-0.121, 7.2195778e-9, -7.0206826e-11, 7.3999977e+1
-0.122, 7.2986599e-9, -9.4970011e-11, 7.4333313e+1
-0.123, 7.3489854e-9, -1.4849043e-10, 7.4666649e+1
-0.124, 7.4232749e-9, -1.6686313e-10, 7.4999985e+1
-0.125, 7.4496356e-9, -1.7165599e-10, 7.5333321e+1
-0.126, 7.6109954e-9, -2.0121205e-10, 7.5666656e+1
-0.127, 7.7060545e-9, -2.1638949e-10, 7.5999992e+1
-0.128, 7.7539832e-9, -2.4035388e-10, 7.6333328e+1
-0.129, 7.9544851e-9, -2.2038356e-10, 7.6666664e+1
-0.130, 8.0127984e-9, -2.4674437e-10, 7.7000000e+1
-0.131, 8.1406091e-9, -2.7470279e-10, 7.7333336e+1
-0.132, 8.3395122e-9, -2.9147787e-10, 7.7666672e+1
-0.133, 8.3906357e-9, -3.0026481e-10, 7.8000008e+1
-0.134, 8.6278842e-9, -3.2183273e-10, 7.8333344e+1
-0.135, 8.8707228e-9, -3.7695078e-10, 7.8666679e+1
-0.136, 8.9865502e-9, -3.7615197e-10, 7.9000015e+1
-0.137, 9.1215506e-9, -3.9692111e-10, 7.9333351e+1
-0.138, 9.2813117e-9, -4.1848902e-10, 7.9666687e+1
-0.139, 9.5792689e-9, -4.1369616e-10, 8.0000023e+1
-0.140, 9.6615471e-9, -4.5044152e-10, 8.0333359e+1
-0.141, 9.8332924e-9, -4.8958337e-10, 8.0666695e+1
-0.142, 1.0016220e-8, -4.9038212e-10, 8.1000031e+1
-0.143, 1.0155213e-8, -5.1594412e-10, 8.1333366e+1
-0.144, 1.0272639e-8, -5.1674293e-10, 8.1666702e+1
-0.145, 1.0442786e-8, -5.4949423e-10, 8.2000038e+1
-0.146, 1.0560210e-8, -5.7026334e-10, 8.2333374e+1
-0.147, 1.0655270e-8, -5.7505622e-10, 8.2666710e+1
-0.148, 1.0807044e-8, -6.0541111e-10, 8.3000046e+1
-0.149, 1.0924469e-8, -6.2058853e-10, 8.3333382e+1
-0.150, 1.1044292e-8, -6.3736366e-10, 8.3666718e+1
-0.151, 1.1186479e-8, -6.4295530e-10, 8.4000053e+1
-0.152, 1.1283136e-8, -6.5333983e-10, 8.4333389e+1
-0.153, 1.1390975e-8, -6.6532208e-10, 8.4666725e+1
-0.154, 1.1481242e-8, -6.8928646e-10, 8.5000061e+1
-0.155, 1.1602662e-8, -6.9008521e-10, 8.5333397e+1
-0.156, 1.1705708e-8, -7.3002587e-10, 8.5666733e+1
-0.157, 1.1805559e-8, -7.5558781e-10, 8.6000069e+1
-0.158, 1.1948547e-8, -7.7316170e-10, 8.6333405e+1
-0.159, 1.2056387e-8, -7.9233320e-10, 8.6666740e+1
-0.160, 1.2184197e-8, -8.1869400e-10, 8.7000076e+1
-0.161, 1.2593987e-8, -8.6822038e-10, 8.7333412e+1
-0.162, 1.2800081e-8, -8.7061680e-10, 8.7666748e+1
-0.163, 1.3173925e-8, -9.2094199e-10, 8.8000084e+1
-0.164, 1.3713123e-8, -9.6727315e-10, 8.8333420e+1
-0.165, 1.4033447e-8, -9.8484698e-10, 8.8666756e+1
-0.166, 1.4471197e-8, -1.0599355e-9, 8.9000092e+1
-0.167, 1.4866608e-8, -1.1038701e-9, 8.9333427e+1
-0.168, 1.5112644e-8, -1.1701714e-9, 8.9666763e+1
-0.169, 1.5467316e-8, -1.2508515e-9, 9.0000099e+1
-0.170, 1.5674207e-8, -1.3339280e-9, 9.0333435e+1
-0.171, 1.5924236e-8, -1.4297855e-9, 9.0666771e+1
-0.172, 1.6197429e-8, -1.5312347e-9, 9.1000107e+1
-0.173, 1.6433878e-8, -1.6614411e-9, 9.1333443e+1
-0.174, 1.6604025e-8, -1.7764701e-9, 9.1666779e+1
-0.175, 1.6761392e-8, -1.9146646e-9, 9.2000114e+1
-0.176, 1.7002632e-8, -2.0536579e-9, 9.2333450e+1
-0.177, 1.7491507e-8, -2.2557576e-9, 9.2666786e+1
-0.178, 1.8189668e-8, -2.4842177e-9, 9.3000122e+1
-0.179, 1.8950935e-8, -2.7574116e-9, 9.3333458e+1
-0.180, 1.9870368e-8, -3.0561675e-9, 9.3666794e+1
-0.181, 2.0334479e-8, -3.4627630e-9, 9.4000130e+1
-0.182, 2.0863293e-8, -3.8613703e-9, 9.4333466e+1
-0.183, 2.1310628e-8, -4.3134984e-9, 9.4666801e+1
-0.184, 2.1555863e-8, -4.7320761e-9, 9.5000137e+1
-0.185, 2.1988020e-8, -5.0755649e-9, 9.5333473e+1
-0.186, 2.3044851e-8, -5.3567470e-9, 9.5666809e+1
-0.187, 2.4333334e-8, -5.5828111e-9, 9.6000145e+1
-0.188, 2.5319867e-8, -5.7936975e-9, 9.6333481e+1
-0.189, 2.5898206e-8, -6.0589036e-9, 9.6666817e+1
-0.190, 2.6563619e-8, -6.3616530e-9, 9.7000153e+1
-0.191, 2.7157935e-8, -6.7586630e-9, 9.7333488e+1
-0.192, 2.8342573e-8, -7.1980097e-9, 9.7666824e+1
-0.193, 2.9841146e-8, -8.0735081e-9, 9.8000160e+1
-0.194, 3.0712648e-8, -9.1359293e-9, 9.8333496e+1
-0.195, 3.1348502e-8, -1.0040982e-8, 9.8666832e+1
-0.196, 3.2560305e-8, -1.0473940e-8, 9.9000168e+1
-0.197, 3.4663575e-8, -1.0890919e-8, 9.9333504e+1
-0.198, 3.5776321e-8, -1.1756033e-8, 9.9666840e+1
-0.199, 3.6570341e-8, -1.2915110e-8, 1.0000018e+2
-0.200, 3.8624091e-8, -1.4333801e-8, 1.0033351e+2
-0.201, 4.0537241e-8, -1.5266814e-8, 1.0066685e+2
-0.202, 4.1477445e-8, -1.5975360e-8, 1.0100018e+2
-0.203, 4.4333998e-8, -1.6950709e-8, 1.0133352e+2
-0.204, 4.5805411e-8, -1.9003657e-8, 1.0166685e+2
-0.205, 4.7400640e-8, -2.0330486e-8, 1.0200019e+2
-0.206, 5.0354647e-8, -2.1396101e-8, 1.0233353e+2
-0.207, 5.2059310e-8, -2.3662333e-8, 1.0266686e+2
-0.208, 5.5200246e-8, -2.5347028e-8, 1.0300020e+2
-0.209, 5.7316296e-8, -2.6783292e-8, 1.0333353e+2
-0.210, 6.0434857e-8, -2.9778040e-8, 1.0366687e+2
-0.211, 6.3913689e-8, -3.1024186e-8, 1.0400021e+2
-0.212, 6.6629646e-8, -3.4181891e-8, 1.0433354e+2
-0.213, 7.0025401e-8, -3.5905728e-8, 1.0466688e+2
-0.214, 7.3910826e-8, -3.9356600e-8, 1.0500021e+2
-0.215, 7.7034180e-8, -4.1517385e-8, 1.0533355e+2
-0.216, 8.1116113e-8, -4.4997012e-8, 1.0566689e+2
-0.217, 8.5428105e-8, -4.8527763e-8, 1.0600022e+2
-0.218, 9.0086772e-8, -5.1437038e-8, 1.0633356e+2
-0.219, 9.4987492e-8, -5.5288911e-8, 1.0666689e+2
-0.220, 1.0015341e-7, -5.9597703e-8, 1.0700023e+2
-0.221, 1.0594400e-7, -6.4143748e-8, 1.0733356e+2
-0.222, 1.1184563e-7, -6.8937418e-8, 1.0766690e+2
-0.223, 1.1829364e-7, -7.3570533e-8, 1.0800024e+2
-0.224, 1.2462903e-7, -7.8563112e-8, 1.0833357e+2
-0.225, 1.3210430e-7, -8.4035776e-8, 1.0866691e+2
-0.226, 1.3903481e-7, -8.9511630e-8, 1.0900024e+2
-0.227, 1.4710201e-7, -9.5545857e-8, 1.0933358e+2
-0.228, 1.5538009e-7, -1.0274555e-7, 1.0966692e+2
-0.229, 1.6398650e-7, -1.0908174e-7, 1.1000025e+2
-0.230, 1.7357866e-7, -1.1653705e-7, 1.1033359e+2
-0.231, 1.8357260e-7, -1.2433985e-7, 1.1066692e+2
-0.232, 1.9362724e-7, -1.3268824e-7, 1.1100026e+2
-0.233, 2.0480742e-7, -1.4102625e-7, 1.1133360e+2
-0.234, 2.1604193e-7, -1.5048897e-7, 1.1166693e+2
-0.235, 2.2830449e-7, -1.5965294e-7, 1.1200027e+2
-0.236, 2.4062777e-7, -1.6985858e-7, 1.1233360e+2
-0.237, 2.5311400e-7, -1.8016564e-7, 1.1266694e+2
-0.238, 2.6714355e-7, -1.9138497e-7, 1.1300027e+2
-0.239, 2.8155253e-7, -2.0287989e-7, 1.1333361e+2
-0.240, 2.9703190e-7, -2.1511610e-7, 1.1366695e+2
-0.241, 3.1261436e-7, -2.2808001e-7, 1.1400028e+2
-0.242, 3.2843641e-7, -2.4109428e-7, 1.1433362e+2
-0.243, 3.4519630e-7, -2.5447756e-7, 1.1466695e+2
-0.244, 3.6268230e-7, -2.6854707e-7, 1.1500029e+2
-0.245, 3.8075623e-7, -2.8408795e-7, 1.1533363e+2
-0.246, 3.9874391e-7, -2.9981896e-7, 1.1566696e+2
-0.247, 4.1730110e-7, -3.1534148e-7, 1.1600030e+2
-0.248, 4.3622654e-7, -3.3126420e-7, 1.1633363e+2
-0.249, 4.5577988e-7, -3.4778364e-7, 1.1666697e+2
-0.250, 4.7526612e-7, -3.6478639e-7, 1.1700031e+2
-0.251, 4.9575885e-7, -3.8205749e-7, 1.1733364e+2
-0.252, 5.1599437e-7, -3.9952434e-7, 1.1766698e+2
-0.253, 5.3693765e-7, -4.1734424e-7, 1.1800031e+2
-0.254, 5.5818367e-7, -4.3564583e-7, 1.1833365e+2
-0.255, 5.7931703e-7, -4.5375489e-7, 1.1866698e+2
-0.256, 6.0045761e-7, -4.7207968e-7, 1.1900032e+2
-0.257, 6.2197842e-7, -4.9057059e-7, 1.1933366e+2
-0.258, 6.4295676e-7, -5.0896961e-7, 1.1966699e+2
-0.259, 6.6439856e-7, -5.2784634e-7, 1.2000033e+2
-0.260, 6.8620847e-7, -5.4660006e-7, 1.2033366e+2
-0.261, 7.0689771e-7, -5.6466280e-7, 1.2066700e+2
-0.262, 7.2775231e-7, -5.8249066e-7, 1.2100034e+2
-0.263, 7.4841199e-7, -6.0034893e-7, 1.2133367e+2
-0.264, 7.6880332e-7, -6.1798914e-7, 1.2166701e+2
-0.265, 7.8920255e-7, -6.3582820e-7, 1.2200034e+2
-0.266, 8.1009472e-7, -6.5228772e-7, 1.2233368e+2
-0.267, 8.2868070e-7, -6.6937196e-7, 1.2266702e+2
-0.268, 8.4869095e-7, -6.8555352e-7, 1.2300035e+2
-0.269, 8.6685674e-7, -7.0202259e-7, 1.2333369e+2
-0.270, 8.8600427e-7, -7.1731426e-7, 1.2366702e+2
-0.271, 9.0353581e-7, -7.3288390e-7, 1.2400036e+2
-0.272, 9.2300769e-7, -7.4679599e-7, 1.2433369e+2
-0.273, 9.3956862e-7, -7.6118744e-7, 1.2466703e+2
-0.274, 9.5733981e-7, -7.7434782e-7, 1.2500037e+2
-0.275, 9.7190457e-7, -7.8776873e-7, 1.2533370e+2
-0.276, 9.8701889e-7, -7.9997056e-7, 1.2566704e+2
-0.277, 1.0004270e-6, -8.1371178e-7, 1.2600037e+2
-0.278, 1.0140004e-6, -8.2544307e-7, 1.2633371e+2
-0.279, 1.0266920e-6, -8.3740611e-7, 1.2666705e+2
-0.280, 1.0389808e-6, -8.4892974e-7, 1.2700038e+2
-0.281, 1.0503751e-6, -8.5942298e-7, 1.2733372e+2
-0.282, 1.0611391e-6, -8.7076211e-7, 1.2766705e+2
-0.283, 1.0719111e-6, -8.8138393e-7, 1.2800038e+2
-0.284, 1.0810287e-6, -8.9133954e-7, 1.2833371e+2
-0.285, 1.0895193e-6, -9.0055545e-7, 1.2866704e+2
-0.286, 1.0982526e-6, -9.1056290e-7, 1.2900037e+2
-0.287, 1.1060196e-6, -9.2073259e-7, 1.2933369e+2
-0.288, 1.1132192e-6, -9.2945646e-7, 1.2966702e+2
-0.289, 1.1206681e-6, -9.3696212e-7, 1.3000035e+2
-0.290, 1.1277473e-6, -9.4501496e-7, 1.3033368e+2
-0.291, 1.1342792e-6, -9.5111466e-7, 1.3066701e+2
-0.292, 1.1412232e-6, -9.5684607e-7, 1.3100034e+2
-0.293, 1.1471296e-6, -9.6248812e-7, 1.3133366e+2
-0.294, 1.1523746e-6, -9.6843132e-7, 1.3166699e+2
-0.295, 1.1580094e-6, -9.7504062e-7, 1.3200032e+2
-0.296, 1.1630972e-6, -9.7935742e-7, 1.3233365e+2
-0.297, 1.1674498e-6, -9.8430451e-7, 1.3266698e+2
-0.298, 1.1720151e-6, -9.8903104e-7, 1.3300031e+2
-0.299, 1.1767664e-6, -9.9391741e-7, 1.3333363e+2
-0.300, 1.1811367e-6, -9.9857766e-7, 1.3366696e+2
-0.301, 1.1849821e-6, -1.0014039e-6, 1.3400029e+2
-0.302, 1.1871039e-6, -1.0054682e-6, 1.3433362e+2
-0.303, 1.1909046e-6, -1.0098217e-6, 1.3466695e+2
-0.304, 1.1937564e-6, -1.0127885e-6, 1.3500027e+2
-0.305, 1.1967678e-6, -1.0155197e-6, 1.3533360e+2
-0.306, 1.2005974e-6, -1.0205363e-6, 1.3566693e+2
-0.307, 1.2055037e-6, -1.0244280e-6, 1.3600026e+2
-0.308, 1.2067483e-6, -1.0252564e-6, 1.3633359e+2
-0.309, 1.2073298e-6, -1.0291642e-6, 1.3666692e+2
-0.310, 1.2095145e-6, -1.0306380e-6, 1.3700024e+2
-0.311, 1.2108940e-6, -1.0337942e-6, 1.3733357e+2
-0.312, 1.2125372e-6, -1.0366116e-6, 1.3766690e+2
-0.313, 1.2157652e-6, -1.0384840e-6, 1.3800023e+2
-0.314, 1.2171711e-6, -1.0395112e-6, 1.3833356e+2
-0.315, 1.2195212e-6, -1.0419149e-6, 1.3866689e+2
-0.316, 1.2206987e-6, -1.0436978e-6, 1.3900021e+2
-0.317, 1.2215023e-6, -1.0448226e-6, 1.3933354e+2
-0.318, 1.2224689e-6, -1.0476352e-6, 1.3966687e+2
-0.319, 1.2241647e-6, -1.0492599e-6, 1.4000020e+2
-0.320, 1.2253533e-6, -1.0502840e-6, 1.4033353e+2
-0.321, 1.2260595e-6, -1.0523921e-6, 1.4066685e+2
-0.322, 1.2268639e-6, -1.0536742e-6, 1.4100018e+2
-0.323, 1.2291604e-6, -1.0543507e-6, 1.4133351e+2
-0.324, 1.2304594e-6, -1.0549579e-6, 1.4166684e+2
-0.325, 1.2314746e-6, -1.0566185e-6, 1.4200017e+2
-0.326, 1.2343423e-6, -1.0565387e-6, 1.4233350e+2
-0.327, 1.2350486e-6, -1.0579678e-6, 1.4266682e+2
-0.328, 1.2359600e-6, -1.0594040e-6, 1.4300015e+2
-0.329, 1.2366453e-6, -1.0615840e-6, 1.4333348e+2
-0.330, 1.2371214e-6, -1.0634676e-6, 1.4366681e+2
-0.331, 1.2375583e-6, -1.0646290e-6, 1.4400014e+2
-0.332, 1.2379954e-6, -1.0666181e-6, 1.4433347e+2
-0.333, 1.2388588e-6, -1.0685472e-6, 1.4466679e+2
-0.334, 1.2394684e-6, -1.0694123e-6, 1.4500012e+2
-0.335, 1.2395235e-6, -1.0713208e-6, 1.4533345e+2
-0.336, 1.2401778e-6, -1.0729295e-6, 1.4566678e+2
-0.337, 1.2401761e-6, -1.0736461e-6, 1.4600011e+2
-0.338, 1.2400658e-6, -1.0743219e-6, 1.4633344e+2
-0.339, 1.2403455e-6, -1.0754211e-6, 1.4666676e+2
-0.340, 1.2407297e-6, -1.0765466e-6, 1.4700009e+2
-0.341, 1.2410317e-6, -1.0771176e-6, 1.4733342e+2
-0.342, 1.2437197e-6, -1.0789142e-6, 1.4766675e+2
-0.343, 1.2435136e-6, -1.0783216e-6, 1.4800008e+2
-0.344, 1.2442380e-6, -1.0787361e-6, 1.4833340e+2
-0.345, 1.2450823e-6, -1.0789901e-6, 1.4866673e+2
-0.346, 1.2460538e-6, -1.0789390e-6, 1.4900006e+2
-0.347, 1.2475620e-6, -1.0790477e-6, 1.4933339e+2
-0.348, 1.2493232e-6, -1.0790149e-6, 1.4966672e+2
-0.349, 1.2502371e-6, -1.0793799e-6, 1.5000005e+2
-0.350, 1.2521399e-6, -1.0803905e-6, 1.5033337e+2
-0.351, 1.2549630e-6, -1.0794830e-6, 1.5066670e+2
-0.352, 1.2557473e-6, -1.0796564e-6, 1.5100003e+2
-0.353, 1.2579663e-6, -1.0790117e-6, 1.5133336e+2
-0.354, 1.2597151e-6, -1.0789079e-6, 1.5166669e+2
-0.355, 1.2604595e-6, -1.0786706e-6, 1.5200002e+2
-0.356, 1.2611417e-6, -1.0785875e-6, 1.5233334e+2
-0.357, 1.2629590e-6, -1.0788616e-6, 1.5266667e+2
-0.358, 1.2645983e-6, -1.0785141e-6, 1.5300000e+2
-0.359, 1.2649369e-6, -1.0793943e-6, 1.5333333e+2
-0.360, 1.2657181e-6, -1.0788959e-6, 1.5366666e+2
-0.361, 1.2652691e-6, -1.0788871e-6, 1.5399998e+2
-0.362, 1.2655944e-6, -1.0791388e-6, 1.5433331e+2
-0.363, 1.2655728e-6, -1.0792730e-6, 1.5466664e+2
-0.364, 1.2655175e-6, -1.0795558e-6, 1.5499997e+2
-0.365, 1.2653850e-6, -1.0804088e-6, 1.5533330e+2
-0.366, 1.2655784e-6, -1.0816095e-6, 1.5566663e+2
-0.367, 1.2653123e-6, -1.0827885e-6, 1.5599995e+2
-0.368, 1.2652653e-6, -1.0831679e-6, 1.5633328e+2
-0.369, 1.2651262e-6, -1.0846018e-6, 1.5666661e+2
-0.370, 1.2681450e-6, -1.0859462e-6, 1.5699994e+2
-0.371, 1.2654465e-6, -1.0856227e-6, 1.5733327e+2
-0.372, 1.2647803e-6, -1.0868999e-6, 1.5766660e+2
-0.373, 1.2651830e-6, -1.0876693e-6, 1.5799992e+2
-0.374, 1.2642204e-6, -1.0880686e-6, 1.5833325e+2
-0.375, 1.2646829e-6, -1.0883010e-6, 1.5866658e+2
-0.376, 1.2645055e-6, -1.0884297e-6, 1.5899991e+2
-0.377, 1.2645392e-6, -1.0885343e-6, 1.5933324e+2
-0.378, 1.2649122e-6, -1.0887261e-6, 1.5966656e+2
-0.379, 1.2653650e-6, -1.0888243e-6, 1.5999989e+2
-0.380, 1.2659993e-6, -1.0883986e-6, 1.6033322e+2
-0.381, 1.2677575e-6, -1.0880839e-6, 1.6066655e+2
-0.382, 1.2693558e-6, -1.0878417e-6, 1.6099988e+2
-0.383, 1.2701076e-6, -1.0873425e-6, 1.6133321e+2
-0.384, 1.2704862e-6, -1.0874272e-6, 1.6166653e+2
-0.385, 1.2728475e-6, -1.0870453e-6, 1.6199986e+2
-0.386, 1.2737694e-6, -1.0870015e-6, 1.6233319e+2
-0.387, 1.2744196e-6, -1.0870478e-6, 1.6266652e+2
-0.388, 1.2751993e-6, -1.0873570e-6, 1.6299985e+2
-0.389, 1.2772371e-6, -1.0876157e-6, 1.6333318e+2
-0.390, 1.2780350e-6, -1.0865717e-6, 1.6366650e+2
-0.391, 1.2780487e-6, -1.0865293e-6, 1.6399983e+2
-0.392, 1.2781732e-6, -1.0871804e-6, 1.6433316e+2
-0.393, 1.2788921e-6, -1.0876748e-6, 1.6466649e+2
-0.394, 1.2794769e-6, -1.0878970e-6, 1.6499982e+2
-0.395, 1.2800847e-6, -1.0878698e-6, 1.6533315e+2
-0.396, 1.2807957e-6, -1.0876294e-6, 1.6566647e+2
-0.397, 1.2827657e-6, -1.0876796e-6, 1.6599980e+2
-0.398, 1.2847315e-6, -1.0873570e-6, 1.6633313e+2
-0.399, 1.2854975e-6, -1.0862434e-6, 1.6666646e+2
-0.400, 1.2885953e-6, -1.0852696e-6, 1.6699979e+2
-0.401, 1.2899037e-6, -1.0851730e-6, 1.6733311e+2
-0.402, 1.2920710e-6, -1.0847800e-6, 1.6766644e+2
-0.403, 1.2946143e-6, -1.0836121e-6, 1.6799977e+2
-0.404, 1.2977202e-6, -1.0833533e-6, 1.6833310e+2
-0.405, 1.2995557e-6, -1.0825992e-6, 1.6866643e+2
-0.406, 1.3011359e-6, -1.0824371e-6, 1.6899976e+2
-0.407, 1.3020529e-6, -1.0818635e-6, 1.6933308e+2
-0.408, 1.3020034e-6, -1.0839412e-6, 1.6966641e+2
-0.409, 1.3030970e-6, -1.0842081e-6, 1.6999974e+2
-0.410, 1.3019499e-6, -1.0872810e-6, 1.7033307e+2
-0.411, 1.3027047e-6, -1.0880918e-6, 1.7066640e+2
-0.412, 1.3016599e-6, -1.0886174e-6, 1.7099973e+2
-0.413, 1.3003873e-6, -1.0893012e-6, 1.7133305e+2
-0.414, 1.3003042e-6, -1.0906265e-6, 1.7166638e+2
-0.415, 1.3001046e-6, -1.0922624e-6, 1.7199971e+2
-0.416, 1.2999943e-6, -1.0931739e-6, 1.7233304e+2
-0.417, 1.3000342e-6, -1.0937251e-6, 1.7266637e+2
-0.418, 1.2999784e-6, -1.0942123e-6, 1.7299969e+2
-0.419, 1.2997020e-6, -1.0951469e-6, 1.7333302e+2
-0.420, 1.2998066e-6, -1.0965912e-6, 1.7366635e+2
-0.421, 1.2999976e-6, -1.0970305e-6, 1.7399968e+2
-0.422, 1.3004641e-6, -1.0974700e-6, 1.7433301e+2
-0.423, 1.3022429e-6, -1.0977583e-6, 1.7466634e+2
-0.424, 1.3035091e-6, -1.0978813e-6, 1.7499966e+2
-0.425, 1.3038870e-6, -1.0978101e-6, 1.7533299e+2
-0.426, 1.3045229e-6, -1.0977966e-6, 1.7566632e+2
-0.427, 1.3053113e-6, -1.0970912e-6, 1.7599965e+2
-0.428, 1.3067220e-6, -1.0975401e-6, 1.7633298e+2
-0.429, 1.3094100e-6, -1.0945702e-6, 1.7666631e+2
-0.430, 1.3109677e-6, -1.0933639e-6, 1.7699963e+2
-0.431, 1.3128154e-6, -1.0928911e-6, 1.7733296e+2
-0.432, 1.3145008e-6, -1.0925236e-6, 1.7766629e+2
-0.433, 1.3159530e-6, -1.0916601e-6, 1.7799962e+2
-0.434, 1.3181809e-6, -1.0905234e-6, 1.7833295e+2
-0.435, 1.3191651e-6, -1.0907606e-6, 1.7866628e+2
-0.436, 1.3197673e-6, -1.0908756e-6, 1.7899960e+2
-0.437, 1.3203305e-6, -1.0917607e-6, 1.7933293e+2
-0.438, 1.3208354e-6, -1.0925229e-6, 1.7966626e+2
-0.439, 1.3210151e-6, -1.0931324e-6, 1.7999959e+2
-0.440, 1.3211118e-6, -1.0936244e-6, 1.8033292e+2
-0.441, 1.3208465e-6, -1.0945342e-6, 1.8066624e+2
-0.442, 1.3215839e-6, -1.0959449e-6, 1.8099957e+2
-0.443, 1.3213044e-6, -1.0968548e-6, 1.8133290e+2
-0.444, 1.3207707e-6, -1.0977255e-6, 1.8166623e+2
-0.445, 1.3215312e-6, -1.0981488e-6, 1.8199956e+2
-0.446, 1.3215966e-6, -1.0983381e-6, 1.8233289e+2
-0.447, 1.3223892e-6, -1.0984700e-6, 1.8266621e+2
-0.448, 1.3230624e-6, -1.0987703e-6, 1.8299954e+2
-0.449, 1.3232981e-6, -1.0996578e-6, 1.8333287e+2
-0.450, 1.3250084e-6, -1.1012482e-6, 1.8366620e+2
-0.451, 1.3240035e-6, -1.1022331e-6, 1.8399953e+2
-0.452, 1.3232861e-6, -1.1028538e-6, 1.8433286e+2
-0.453, 1.3224929e-6, -1.1036318e-6, 1.8466618e+2
-0.454, 1.3220831e-6, -1.1045457e-6, 1.8499951e+2
-0.455, 1.3213538e-6, -1.1055657e-6, 1.8533284e+2
-0.456, 1.3208314e-6, -1.1072193e-6, 1.8566617e+2
-0.457, 1.3207515e-6, -1.1075861e-6, 1.8599950e+2
-0.458, 1.3206126e-6, -1.1080317e-6, 1.8633282e+2
-0.459, 1.3206493e-6, -1.1099226e-6, 1.8666615e+2
-0.460, 1.3226239e-6, -1.1103435e-6, 1.8699948e+2
-0.461, 1.3215105e-6, -1.1110091e-6, 1.8733281e+2
-0.462, 1.3223132e-6, -1.1116424e-6, 1.8766614e+2
-0.463, 1.3230505e-6, -1.1120682e-6, 1.8799947e+2
-0.464, 1.3235817e-6, -1.1124284e-6, 1.8833279e+2
-0.465, 1.3241552e-6, -1.1128334e-6, 1.8866612e+2
-0.466, 1.3252248e-6, -1.1134629e-6, 1.8899945e+2
-0.467, 1.3282795e-6, -1.1132591e-6, 1.8933278e+2
-0.468, 1.3292478e-6, -1.1137377e-6, 1.8966611e+2
-0.469, 1.3298132e-6, -1.1134765e-6, 1.8999944e+2
-0.470, 1.3302925e-6, -1.1136785e-6, 1.9033276e+2
-0.471, 1.3315426e-6, -1.1137105e-6, 1.9066609e+2
-0.472, 1.3323846e-6, -1.1136490e-6, 1.9099942e+2
-0.473, 1.3331675e-6, -1.1146244e-6, 1.9133275e+2
-0.474, 1.3329294e-6, -1.1141003e-6, 1.9166608e+2
-0.475, 1.3321314e-6, -1.1142290e-6, 1.9199940e+2
-0.476, 1.3326290e-6, -1.1145324e-6, 1.9233273e+2
-0.477, 1.3329102e-6, -1.1141731e-6, 1.9266606e+2
-0.478, 1.3339614e-6, -1.1140676e-6, 1.9299939e+2
-0.479, 1.3352188e-6, -1.1127129e-6, 1.9333272e+2
-0.480, 1.3376512e-6, -1.1114092e-6, 1.9366605e+2
-0.481, 1.3391792e-6, -1.1104986e-6, 1.9399937e+2
-0.482, 1.3423115e-6, -1.1079998e-6, 1.9433270e+2
-0.483, 1.3439761e-6, -1.1068129e-6, 1.9466603e+2
-0.484, 1.3477402e-6, -1.1041168e-6, 1.9499936e+2
-0.485, 1.3512830e-6, -1.1031079e-6, 1.9533269e+2
-0.486, 1.3547321e-6, -1.1003057e-6, 1.9566602e+2
-0.487, 1.3583356e-6, -1.0983366e-6, 1.9599934e+2
-0.488, 1.3623265e-6, -1.0971808e-6, 1.9633267e+2
-0.489, 1.3646518e-6, -1.0950342e-6, 1.9666600e+2
-0.490, 1.3678463e-6, -1.0942579e-6, 1.9699933e+2
-0.491, 1.3698098e-6, -1.0938896e-6, 1.9733266e+2
-0.492, 1.3719354e-6, -1.0938752e-6, 1.9766599e+2
-0.493, 1.3726575e-6, -1.0944575e-6, 1.9799931e+2
-0.494, 1.3732790e-6, -1.0944016e-6, 1.9833264e+2
-0.495, 1.3732703e-6, -1.0948042e-6, 1.9866597e+2
-0.496, 1.3730115e-6, -1.0967510e-6, 1.9899930e+2
-0.497, 1.3726503e-6, -1.0980682e-6, 1.9933263e+2
-0.498, 1.3717613e-6, -1.0991106e-6, 1.9966595e+2
-0.499, 1.3690070e-6, -1.1017132e-6, 1.9999928e+2
-0.500, 1.3637236e-6, -1.1028283e-6, 2.0033261e+2
-0.499, 1.3604605e-6, -1.1042487e-6, 2.0066594e+2
-0.498, 1.3577741e-6, -1.1066130e-6, 2.0099927e+2
-0.497, 1.3537201e-6, -1.1074086e-6, 2.0133260e+2
-0.496, 1.3514027e-6, -1.1077602e-6, 2.0166592e+2
-0.495, 1.3484272e-6, -1.1080389e-6, 2.0199925e+2
-0.494, 1.3464613e-6, -1.1082027e-6, 2.0233258e+2
-0.493, 1.3435313e-6, -1.1086285e-6, 2.0266591e+2
-0.492, 1.3414815e-6, -1.1089096e-6, 2.0299924e+2
-0.491, 1.3391129e-6, -1.1093850e-6, 2.0333257e+2
-0.490, 1.3380625e-6, -1.1091940e-6, 2.0366589e+2
-0.489, 1.3362117e-6, -1.1091062e-6, 2.0399922e+2
-0.488, 1.3341148e-6, -1.1091286e-6, 2.0433255e+2
-0.487, 1.3334143e-6, -1.1108388e-6, 2.0466588e+2
-0.486, 1.3322656e-6, -1.1094417e-6, 2.0499921e+2
-0.485, 1.3326498e-6, -1.1107533e-6, 2.0533253e+2
-0.484, 1.3311497e-6, -1.1089743e-6, 2.0566586e+2
-0.483, 1.3290256e-6, -1.1079735e-6, 2.0599919e+2
-0.482, 1.3281709e-6, -1.1079615e-6, 2.0633252e+2
-0.481, 1.3269935e-6, -1.1078329e-6, 2.0666585e+2
-0.480, 1.3249356e-6, -1.1077682e-6, 2.0699918e+2
-0.479, 1.3239076e-6, -1.1077450e-6, 2.0733250e+2
-0.478, 1.3233214e-6, -1.1076099e-6, 2.0766583e+2
-0.477, 1.3230673e-6, -1.1072154e-6, 2.0799916e+2
-0.476, 1.3231887e-6, -1.1065739e-6, 2.0833249e+2
-0.475, 1.3235793e-6, -1.1050865e-6, 2.0866582e+2
-0.474, 1.3238957e-6, -1.1041543e-6, 2.0899915e+2
-0.473, 1.3238047e-6, -1.1037039e-6, 2.0933247e+2
-0.472, 1.3229546e-6, -1.1040369e-6, 2.0966580e+2
-0.471, 1.3224641e-6, -1.1040169e-6, 2.0999913e+2
-0.470, 1.3191788e-6, -1.1044235e-6, 2.1033246e+2
-0.469, 1.3164819e-6, -1.1055738e-6, 2.1066579e+2
-0.468, 1.3139569e-6, -1.1067544e-6, 2.1099911e+2
-0.467, 1.3115820e-6, -1.1075884e-6, 2.1133244e+2
-0.466, 1.3089826e-6, -1.1077410e-6, 2.1166577e+2
-0.465, 1.3062730e-6, -1.1079320e-6, 2.1199910e+2
-0.464, 1.3046330e-6, -1.1080031e-6, 2.1233243e+2
-0.463, 1.3034428e-6, -1.1080406e-6, 2.1266576e+2
-0.462, 1.3015568e-6, -1.1078353e-6, 2.1299908e+2
-0.461, 1.3003234e-6, -1.1073743e-6, 2.1333241e+2
-0.460, 1.2998706e-6, -1.1074886e-6, 2.1366574e+2
-0.459, 1.3016455e-6, -1.1060978e-6, 2.1399907e+2
-0.458, 1.3001454e-6, -1.1044427e-6, 2.1433240e+2
-0.457, 1.3003458e-6, -1.1032006e-6, 2.1466573e+2
-0.456, 1.2997124e-6, -1.1028324e-6, 2.1499905e+2
-0.455, 1.2999832e-6, -1.1011939e-6, 2.1533238e+2
-0.454, 1.2997587e-6, -1.0995756e-6, 2.1566571e+2
-0.453, 1.2996037e-6, -1.0989701e-6, 2.1599904e+2
-0.452, 1.2993809e-6, -1.0982440e-6, 2.1633237e+2
-0.451, 1.2990573e-6, -1.0979516e-6, 2.1666570e+2
-0.450, 1.2992386e-6, -1.0977614e-6, 2.1699902e+2
-0.449, 1.2998195e-6, -1.0977294e-6, 2.1733235e+2
-0.448, 1.2977338e-6, -1.0976544e-6, 2.1766568e+2
-0.447, 1.2952071e-6, -1.0977758e-6, 2.1799901e+2
-0.446, 1.2946384e-6, -1.0978557e-6, 2.1833234e+2
-0.445, 1.2957304e-6, -1.0977407e-6, 2.1866566e+2
-0.444, 1.2943764e-6, -1.0963004e-6, 2.1899899e+2
-0.443, 1.2943149e-6, -1.0946701e-6, 2.1933232e+2
-0.442, 1.2943259e-6, -1.0934302e-6, 2.1966565e+2
-0.441, 1.2951241e-6, -1.0915354e-6, 2.1999898e+2
-0.440, 1.2950105e-6, -1.0896783e-6, 2.2033231e+2
-0.439, 1.2949706e-6, -1.0887509e-6, 2.2066563e+2
-0.438, 1.2947878e-6, -1.0881254e-6, 2.2099896e+2
-0.437, 1.2948141e-6, -1.0876469e-6, 2.2133229e+2
-0.436, 1.2947518e-6, -1.0868920e-6, 2.2166562e+2
-0.435, 1.2949315e-6, -1.0855924e-6, 2.2199895e+2
-0.434, 1.2948029e-6, -1.0846626e-6, 2.2233228e+2
-0.433, 1.2946847e-6, -1.0841873e-6, 2.2266560e+2
-0.432, 1.2945145e-6, -1.0838517e-6, 2.2299893e+2
-0.431, 1.2941870e-6, -1.0833086e-6, 2.2333226e+2
-0.430, 1.2939106e-6, -1.0834364e-6, 2.2366559e+2
-0.429, 1.2937948e-6, -1.0830249e-6, 2.2399892e+2
-0.428, 1.2938779e-6, -1.0822756e-6, 2.2433224e+2
-0.427, 1.2942294e-6, -1.0808043e-6, 2.2466557e+2
-0.426, 1.2942135e-6, -1.0798584e-6, 2.2499890e+2
-0.425, 1.2937917e-6, -1.0799998e-6, 2.2533223e+2
-0.424, 1.2925655e-6, -1.0805046e-6, 2.2566556e+2
-0.423, 1.2900667e-6, -1.0815814e-6, 2.2599889e+2
-0.422, 1.2892160e-6, -1.0823460e-6, 2.2633221e+2
-0.421, 1.2871518e-6, -1.0828867e-6, 2.2666554e+2
-0.420, 1.2847611e-6, -1.0838189e-6, 2.2699887e+2
-0.419, 1.2834231e-6, -1.0842623e-6, 2.2733220e+2
-0.418, 1.2807143e-6, -1.0853342e-6, 2.2766553e+2
-0.417, 1.2791414e-6, -1.0867187e-6, 2.2799886e+2
-0.416, 1.2760707e-6, -1.0875742e-6, 2.2833218e+2
-0.415, 1.2758926e-6, -1.0883330e-6, 2.2866551e+2
-0.414, 1.2743940e-6, -1.0881478e-6, 2.2899884e+2
-0.413, 1.2727429e-6, -1.0882525e-6, 2.2933217e+2
-0.412, 1.2710478e-6, -1.0879911e-6, 2.2966550e+2
-0.411, 1.2702609e-6, -1.0879025e-6, 2.2999883e+2
-0.410, 1.2701674e-6, -1.0878011e-6, 2.3033215e+2
-0.409, 1.2689165e-6, -1.0867706e-6, 2.3066548e+2
-0.408, 1.2679980e-6, -1.0863304e-6, 2.3099881e+2
-0.407, 1.2666823e-6, -1.0858855e-6, 2.3133214e+2
-0.406, 1.2658331e-6, -1.0860684e-6, 2.3166547e+2
-0.405, 1.2656893e-6, -1.0852328e-6, 2.3199879e+2
-0.404, 1.2650471e-6, -1.0847208e-6, 2.3233212e+2
-0.403, 1.2642795e-6, -1.0847856e-6, 2.3266545e+2
-0.402, 1.2634990e-6, -1.0852808e-6, 2.3299878e+2
-0.401, 1.2622728e-6, -1.0848773e-6, 2.3333211e+2
-0.400, 1.2607424e-6, -1.0847911e-6, 2.3366544e+2
-0.399, 1.2604404e-6, -1.0853112e-6, 2.3399876e+2
-0.398, 1.2600825e-6, -1.0841281e-6, 2.3433209e+2
-0.397, 1.2593365e-6, -1.0839605e-6, 2.3466542e+2
-0.396, 1.2578626e-6, -1.0843742e-6, 2.3499875e+2
-0.395, 1.2573610e-6, -1.0844396e-6, 2.3533208e+2
-0.394, 1.2571836e-6, -1.0853887e-6, 2.3566541e+2
-0.393, 1.2550555e-6, -1.0846873e-6, 2.3599873e+2
-0.392, 1.2539923e-6, -1.0845833e-6, 2.3633206e+2
-0.391, 1.2522821e-6, -1.0844317e-6, 2.3666539e+2
-0.390, 1.2508985e-6, -1.0844668e-6, 2.3699872e+2
-0.389, 1.2504624e-6, -1.0843311e-6, 2.3733205e+2
-0.388, 1.2499727e-6, -1.0840282e-6, 2.3766537e+2
-0.387, 1.2494974e-6, -1.0839764e-6, 2.3799870e+2
-0.386, 1.2494887e-6, -1.0832206e-6, 2.3833203e+2
-0.385, 1.2494663e-6, -1.0821877e-6, 2.3866536e+2
-0.384, 1.2492858e-6, -1.0817940e-6, 2.3899869e+2
-0.383, 1.2493944e-6, -1.0828652e-6, 2.3933202e+2
-0.382, 1.2486875e-6, -1.0830313e-6, 2.3966534e+2
-0.381, 1.2462887e-6, -1.0834979e-6, 2.3999867e+2
-0.380, 1.2449131e-6, -1.0842679e-6, 2.4033200e+2
-0.379, 1.2432204e-6, -1.0847911e-6, 2.4066533e+2
-0.378, 1.2412130e-6, -1.0851170e-6, 2.4099866e+2
-0.377, 1.2405117e-6, -1.0854997e-6, 2.4133199e+2
-0.376, 1.2398062e-6, -1.0868233e-6, 2.4166531e+2
-0.375, 1.2396792e-6, -1.0873897e-6, 2.4199864e+2
-0.374, 1.2388357e-6, -1.0877947e-6, 2.4233197e+2
-0.373, 1.2360902e-6, -1.0879688e-6, 2.4266530e+2
-0.372, 1.2357211e-6, -1.0878521e-6, 2.4299863e+2
-0.371, 1.2353936e-6, -1.0877276e-6, 2.4333195e+2
-0.370, 1.2355614e-6, -1.0880887e-6, 2.4366528e+2
-0.369, 1.2376327e-6, -1.0865182e-6, 2.4399861e+2
-0.368, 1.2367803e-6, -1.0849972e-6, 2.4433194e+2
-0.367, 1.2377182e-6, -1.0838812e-6, 2.4466527e+2
-0.366, 1.2388540e-6, -1.0825041e-6, 2.4499860e+2
-0.365, 1.2396537e-6, -1.0816661e-6, 2.4533192e+2
-0.364, 1.2393716e-6, -1.0797243e-6, 2.4566525e+2
-0.363, 1.2383956e-6, -1.0789319e-6, 2.4599858e+2
-0.362, 1.2371230e-6, -1.0786371e-6, 2.4633191e+2
-0.361, 1.2364153e-6, -1.0785884e-6, 2.4666524e+2
-0.360, 1.2360375e-6, -1.0785061e-6, 2.4699857e+2
-0.359, 1.2356501e-6, -1.0783192e-6, 2.4733189e+2
-0.358, 1.2346875e-6, -1.0783167e-6, 2.4766522e+2
-0.357, 1.2340380e-6, -1.0784397e-6, 2.4799855e+2
-0.356, 1.2313716e-6, -1.0782784e-6, 2.4833188e+2
-0.355, 1.2304290e-6, -1.0782944e-6, 2.4866521e+2
-0.354, 1.2295608e-6, -1.0783823e-6, 2.4899854e+2
-0.353, 1.2284927e-6, -1.0784182e-6, 2.4933186e+2
-0.352, 1.2265500e-6, -1.0783143e-6, 2.4966519e+2
-0.351, 1.2256321e-6, -1.0781945e-6, 2.4999852e+2
-0.350, 1.2245185e-6, -1.0780540e-6, 2.5033185e+2
-0.349, 1.2229298e-6, -1.0778606e-6, 2.5066518e+2
-0.348, 1.2219895e-6, -1.0770499e-6, 2.5099850e+2
-0.347, 1.2212220e-6, -1.0762534e-6, 2.5133183e+2
-0.346, 1.2211292e-6, -1.0768023e-6, 2.5166516e+2
-0.345, 1.2210389e-6, -1.0750568e-6, 2.5199849e+2
-0.344, 1.2199869e-6, -1.0746135e-6, 2.5233182e+2
-0.343, 1.2195962e-6, -1.0744490e-6, 2.5266515e+2
-0.342, 1.2173635e-6, -1.0740574e-6, 2.5299847e+2
-0.341, 1.2163412e-6, -1.0738986e-6, 2.5333180e+2
-0.340, 1.2156677e-6, -1.0737187e-6, 2.5366513e+2
-0.339, 1.2146172e-6, -1.0737635e-6, 2.5399846e+2
-0.338, 1.2123023e-6, -1.0735503e-6, 2.5433179e+2
-0.337, 1.2109475e-6, -1.0734879e-6, 2.5466512e+2
-0.336, 1.2101152e-6, -1.0734041e-6, 2.5499844e+2
-0.335, 1.2097446e-6, -1.0742435e-6, 2.5533177e+2
-0.334, 1.2076700e-6, -1.0732659e-6, 2.5566510e+2
-0.333, 1.2060716e-6, -1.0721907e-6, 2.5599843e+2
-0.332, 1.2052160e-6, -1.0701266e-6, 2.5633176e+2
-0.331, 1.2040794e-6, -1.0691352e-6, 2.5666510e+2
-0.330, 1.2035857e-6, -1.0683963e-6, 2.5699844e+2
-0.329, 1.2023419e-6, -1.0674993e-6, 2.5733179e+2
-0.328, 1.2022022e-6, -1.0671894e-6, 2.5766513e+2
-0.327, 1.2033046e-6, -1.0652801e-6, 2.5799847e+2
-0.326, 1.2020599e-6, -1.0637536e-6, 2.5833182e+2
-0.325, 1.2019976e-6, -1.0628445e-6, 2.5866516e+2
-0.324, 1.2020176e-6, -1.0604577e-6, 2.5899850e+2
-0.323, 1.2019018e-6, -1.0588121e-6, 2.5933185e+2
-0.322, 1.2016998e-6, -1.0565132e-6, 2.5966519e+2
-0.321, 1.2017293e-6, -1.0541447e-6, 2.5999854e+2
-0.320, 1.2012891e-6, -1.0519592e-6, 2.6033188e+2
-0.319, 1.2008459e-6, -1.0496665e-6, 2.6066522e+2
-0.318, 1.2005039e-6, -1.0484212e-6, 2.6099857e+2
-0.317, 1.1990979e-6, -1.0454256e-6, 2.6133191e+2
-0.316, 1.1980212e-6, -1.0440214e-6, 2.6166525e+2
-0.315, 1.1974277e-6, -1.0417982e-6, 2.6199860e+2
-0.314, 1.1963238e-6, -1.0395720e-6, 2.6233194e+2
-0.313, 1.1930574e-6, -1.0376197e-6, 2.6266528e+2
-0.312, 1.1911475e-6, -1.0352951e-6, 2.6299863e+2
-0.311, 1.1881391e-6, -1.0338948e-6, 2.6333197e+2
-0.310, 1.1858920e-6, -1.0311294e-6, 2.6366531e+2
-0.309, 1.1821185e-6, -1.0295261e-6, 2.6399866e+2
-0.308, 1.1798058e-6, -1.0272335e-6, 2.6433200e+2
-0.307, 1.1761314e-6, -1.0247029e-6, 2.6466534e+2
-0.306, 1.1722275e-6, -1.0232769e-6, 2.6499869e+2
-0.305, 1.1680121e-6, -1.0197438e-6, 2.6533203e+2
-0.304, 1.1644248e-6, -1.0166708e-6, 2.6566537e+2
-0.303, 1.1604371e-6, -1.0140994e-6, 2.6599872e+2
-0.302, 1.1562736e-6, -1.0103282e-6, 2.6633206e+2
-0.301, 1.1517748e-6, -1.0076210e-6, 2.6666541e+2
-0.300, 1.1474691e-6, -1.0041973e-6, 2.6699875e+2
-0.299, 1.1427904e-6, -1.0010333e-6, 2.6733209e+2
-0.298, 1.1420651e-6, -9.9772774e-7, 2.6766544e+2
-0.297, 1.1338406e-6, -9.9185172e-7, 2.6799878e+2
-0.296, 1.1271106e-6, -9.8670819e-7, 2.6833212e+2
-0.295, 1.1197080e-6, -9.8211899e-7, 2.6866547e+2
-0.294, 1.1130619e-6, -9.7707687e-7, 2.6899881e+2
-0.293, 1.1053119e-6, -9.7207953e-7, 2.6933215e+2
-0.292, 1.0979060e-6, -9.6673546e-7, 2.6966550e+2
-0.291, 1.0897046e-6, -9.6122847e-7, 2.6999884e+2
-0.290, 1.0814952e-6, -9.5549058e-7, 2.7033218e+2
-0.289, 1.0730853e-6, -9.4875338e-7, 2.7066553e+2
-0.288, 1.0637009e-6, -9.4192194e-7, 2.7099887e+2
-0.287, 1.0539146e-6, -9.3523983e-7, 2.7133221e+2
-0.286, 1.0432952e-6, -9.2752816e-7, 2.7166556e+2
-0.285, 1.0322397e-6, -9.2035242e-7, 2.7199890e+2
-0.284, 1.0207704e-6, -9.1101748e-7, 2.7233224e+2
-0.283, 1.0087897e-6, -9.0194220e-7, 2.7266559e+2
-0.282, 9.9630108e-7, -8.9282929e-7, 2.7299893e+2
-0.281, 9.8291616e-7, -8.8332666e-7, 2.7333228e+2
-0.280, 9.6908707e-7, -8.7344370e-7, 2.7366562e+2
-0.279, 9.5489065e-7, -8.6310467e-7, 2.7399896e+2
-0.278, 9.4052081e-7, -8.5205716e-7, 2.7433231e+2
-0.277, 9.2593689e-7, -8.3964522e-7, 2.7466565e+2
-0.276, 9.0953648e-7, -8.2673154e-7, 2.7499899e+2
-0.275, 8.9361055e-7, -8.1330995e-7, 2.7533234e+2
-0.274, 8.7646083e-7, -7.9923564e-7, 2.7566568e+2
-0.273, 8.6077779e-7, -7.8421880e-7, 2.7599902e+2
-0.272, 8.4244101e-7, -7.6955496e-7, 2.7633237e+2
-0.271, 8.2416420e-7, -7.5346776e-7, 2.7666571e+2
-0.270, 8.0521158e-7, -7.3783656e-7, 2.7699905e+2
-0.269, 7.8581081e-7, -7.2199293e-7, 2.7733240e+2
-0.268, 7.6541795e-7, -7.0519786e-7, 2.7766574e+2
-0.267, 7.4514247e-7, -6.8913454e-7, 2.7799908e+2
-0.266, 7.2489098e-7, -6.7135619e-7, 2.7833243e+2
-0.265, 7.0368333e-7, -6.5378316e-7, 2.7866577e+2
-0.264, 6.8246766e-7, -6.3595598e-7, 2.7899911e+2
-0.263, 6.6105872e-7, -6.1783174e-7, 2.7933246e+2
-0.262, 6.3958339e-7, -5.9926498e-7, 2.7966580e+2
-0.261, 6.1763848e-7, -5.8086516e-7, 2.7999915e+2
-0.260, 5.9631736e-7, -5.6202515e-7, 2.8033249e+2
-0.259, 5.7476376e-7, -5.4348152e-7, 2.8066583e+2
-0.258, 5.5288115e-7, -5.2476292e-7, 2.8099918e+2
-0.257, 5.3139627e-7, -5.0614824e-7, 2.8133252e+2
-0.256, 5.0959824e-7, -4.8772682e-7, 2.8166586e+2
-0.255, 4.8818532e-7, -4.6920633e-7, 2.8199921e+2
-0.254, 4.6802649e-7, -4.5118512e-7, 2.8233255e+2
-0.253, 4.4713914e-7, -4.3324781e-7, 2.8266589e+2
-0.252, 4.2653375e-7, -4.1516668e-7, 2.8299924e+2
-0.251, 4.0626549e-7, -3.9736511e-7, 2.8333258e+2
-0.250, 3.8665146e-7, -3.8016989e-7, 2.8366592e+2
-0.249, 3.6814458e-7, -3.6341402e-7, 2.8399927e+2
-0.248, 3.5012417e-7, -3.4647042e-7, 2.8433261e+2
-0.247, 3.3187530e-7, -3.3043983e-7, 2.8466595e+2
-0.246, 3.1498683e-7, -3.1453229e-7, 2.8499930e+2
-0.245, 2.9796811e-7, -2.9898740e-7, 2.8533264e+2
-0.244, 2.8126814e-7, -2.8339457e-7, 2.8566599e+2
-0.243, 2.6502588e-7, -2.6797989e-7, 2.8599933e+2
-0.242, 2.4981489e-7, -2.5384730e-7, 2.8633267e+2
-0.241, 2.3625506e-7, -2.4068049e-7, 2.8666602e+2
-0.240, 2.2311779e-7, -2.2789868e-7, 2.8699936e+2
-0.239, 2.0966260e-7, -2.1519996e-7, 2.8733270e+2
-0.238, 1.9752625e-7, -2.0331683e-7, 2.8766605e+2
-0.237, 1.8611043e-7, -1.9192497e-7, 2.8799939e+2
-0.236, 1.7491266e-7, -1.8088059e-7, 2.8833273e+2
-0.235, 1.6460399e-7, -1.7040257e-7, 2.8866608e+2
-0.234, 1.5506457e-7, -1.6043019e-7, 2.8899942e+2
-0.233, 1.4584867e-7, -1.5099462e-7, 2.8933276e+2
-0.232, 1.3715521e-7, -1.4172360e-7, 2.8966611e+2
-0.231, 1.2884357e-7, -1.3296143e-7, 2.8999945e+2
-0.230, 1.2127960e-7, -1.2464740e-7, 2.9033279e+2
-0.229, 1.1373562e-7, -1.1679666e-7, 2.9066614e+2
-0.228, 1.0711106e-7, -1.0919836e-7, 2.9099948e+2
-0.227, 1.0033234e-7, -1.0283742e-7, 2.9133282e+2
-0.226, 9.4476249e-8, -9.5646506e-8, 2.9166617e+2
-0.225, 8.9136989e-8, -8.9450118e-8, 2.9199951e+2
-0.224, 8.4095689e-8, -8.3889589e-8, 2.9233286e+2
-0.223, 7.9124675e-8, -7.8420122e-8, 2.9266620e+2
-0.222, 7.4489172e-8, -7.3369236e-8, 2.9299954e+2
-0.221, 6.9983066e-8, -6.8794428e-8, 2.9333289e+2
-0.220, 6.5759743e-8, -6.4026317e-8, 2.9366623e+2
-0.219, 6.1742519e-8, -5.9507439e-8, 2.9399957e+2
-0.218, 5.8611970e-8, -5.5196249e-8, 2.9433292e+2
-0.217, 5.5049266e-8, -5.1381921e-8, 2.9466626e+2
-0.216, 5.1124704e-8, -4.8546937e-8, 2.9499960e+2
-0.215, 4.8809746e-8, -4.4975444e-8, 2.9533295e+2
-0.214, 4.5804612e-8, -4.1653188e-8, 2.9566629e+2
-0.213, 4.2805869e-8, -3.9535532e-8, 2.9599963e+2
-0.212, 4.0579579e-8, -3.6242032e-8, 2.9633298e+2
-0.211, 3.7649539e-8, -3.4631626e-8, 2.9666632e+2
-0.210, 3.5625344e-8, -3.1802230e-8, 2.9699966e+2
-0.209, 3.3597960e-8, -3.0139901e-8, 2.9733301e+2
-0.208, 3.1212707e-8, -2.8433638e-8, 2.9766635e+2
-0.207, 2.9689371e-8, -2.6113886e-8, 2.9799969e+2
-0.206, 2.7431927e-8, -2.5031495e-8, 2.9833304e+2
-0.205, 2.6239301e-8, -2.3362777e-8, 2.9866638e+2
-0.204, 2.4953213e-8, -2.1431248e-8, 2.9899973e+2
-0.203, 2.2674200e-8, -2.0419952e-8, 2.9933307e+2
-0.202, 2.1392905e-8, -1.9689837e-8, 2.9966641e+2
-0.201, 2.0517406e-8, -1.7894907e-8, 2.9999976e+2
-0.200, 1.9060373e-8, -1.6593640e-8, 3.0033310e+2
-0.199, 1.7187160e-8, -1.5834770e-8, 3.0066644e+2
-0.198, 1.6565682e-8, -1.5320333e-8, 3.0099979e+2
-0.197, 1.5910658e-8, -1.4756372e-8, 3.0133313e+2
-0.196, 1.5198914e-8, -1.3777028e-8, 3.0166647e+2
-0.195, 1.4072588e-8, -1.2804075e-8, 3.0199982e+2
-0.194, 1.2530881e-8, -1.1944553e-8, 3.0233316e+2
-0.193, 1.1857483e-8, -1.1204853e-8, 3.0266650e+2
-0.192, 1.1394970e-8, -1.0715979e-8, 3.0299985e+2
-0.191, 1.0777488e-8, -1.0470744e-8, 3.0333319e+2
-0.190, 1.0239887e-8, -1.0248674e-8, 3.0366653e+2
-0.189, 9.4394776e-9, -9.9091793e-9, 3.0399988e+2
-0.188, 8.3674712e-9, -9.3372297e-9, 3.0433322e+2
-0.187, 7.6229778e-9, -8.6861967e-9, 3.0466656e+2
-0.186, 7.1237203e-9, -8.0040117e-9, 3.0499991e+2
-0.185, 6.8113843e-9, -7.4712032e-9, 3.0533325e+2
-0.184, 6.5629537e-9, -7.0749926e-9, 3.0566660e+2
-0.183, 6.2913577e-9, -6.8081891e-9, 3.0599994e+2
-0.182, 5.9670398e-9, -6.5717409e-9, 3.0633328e+2
-0.181, 5.6059766e-9, -6.3744339e-9, 3.0666663e+2
-0.180, 5.2337303e-9, -6.2090799e-9, 3.0699997e+2
-0.179, 4.8822528e-9, -6.0573058e-9, 3.0733331e+2
-0.178, 3.9987662e-9, -5.9390812e-9, 3.0766666e+2
-0.177, 3.4180294e-9, -5.8384311e-9, 3.0800000e+2
-0.176, 3.0002505e-9, -5.7321889e-9, 3.0833334e+2
-0.175, 2.4322950e-9, -5.6195568e-9, 3.0866669e+2
-0.174, 2.2357871e-9, -5.5380776e-9, 3.0900003e+2
-0.173, 2.0400781e-9, -5.4478120e-9, 3.0933337e+2
-0.172, 1.9170610e-9, -5.3359783e-9, 3.0966672e+2
-0.171, 1.7948427e-9, -5.2273395e-9, 3.1000006e+2
-0.170, 1.6965889e-9, -5.1107132e-9, 3.1033340e+2
-0.169, 1.5496073e-9, -4.9996780e-9, 3.1066675e+2
-0.168, 1.4225962e-9, -4.9126072e-9, 3.1100009e+2
-0.167, 1.2668278e-9, -4.7871942e-9, 3.1133344e+2
-0.166, 1.1741655e-9, -4.6386153e-9, 3.1166678e+2
-0.165, 1.0072138e-9, -4.5419588e-9, 3.1200012e+2
-0.164, 8.9458119e-10, -4.3893853e-9, 3.1233347e+2
-0.163, 7.5878309e-10, -4.3071076e-9, 3.1266681e+2
-0.162, 5.6866573e-10, -4.1529367e-9, 3.1300015e+2
-0.161, 4.7919874e-10, -3.9971684e-9, 3.1333350e+2
-0.160, 3.3621134e-10, -3.8254240e-9, 3.1366684e+2
-0.159, 1.0695220e-10, -3.7056018e-9, 3.1400018e+2
-0.158, -4.0029282e-11, -3.5426442e-9, 3.1433353e+2
-0.157, -1.6704045e-10, -3.4100414e-9, 3.1466687e+2
-0.156, -4.8337018e-10, -3.3381484e-9, 3.1500021e+2
-0.155, -5.0014520e-10, -3.2143324e-9, 3.1533356e+2
-0.154, -7.6295448e-10, -3.0633567e-9, 3.1566690e+2
-0.153, -9.1872288e-10, -3.0082388e-9, 3.1600024e+2
-0.152, -1.0329531e-9, -2.8948073e-9, 3.1633359e+2
-0.151, -1.2342537e-9, -2.8269083e-9, 3.1666693e+2
-0.150, -1.3508804e-9, -2.7685949e-9, 3.1700027e+2
-0.149, -1.4555248e-9, -2.6559626e-9, 3.1733362e+2
-0.148, -1.6895769e-9, -2.5888622e-9, 3.1766696e+2
-0.147, -1.8996644e-9, -2.5529159e-9, 3.1800031e+2
-0.146, -1.9867350e-9, -2.4866142e-9, 3.1833365e+2
-0.145, -2.0690127e-9, -2.3795734e-9, 3.1866699e+2
-0.144, -2.1528881e-9, -2.3396327e-9, 3.1900034e+2
-0.143, -2.2902837e-9, -2.2733313e-9, 3.1933368e+2
-0.142, -2.3422067e-9, -2.2230062e-9, 3.1966702e+2
-0.141, -2.4340701e-9, -2.1734798e-9, 3.2000037e+2
-0.140, -2.5331226e-9, -2.1135689e-9, 3.2033371e+2
-0.139, -2.5307263e-9, -2.0568531e-9, 3.2066705e+2
-0.138, -2.6593350e-9, -2.0001374e-9, 3.2100040e+2
-0.137, -2.6713172e-9, -1.9562028e-9, 3.2133374e+2
-0.136, -2.7384175e-9, -1.9306410e-9, 3.2166708e+2
-0.135, -2.7735652e-9, -1.8883037e-9, 3.2200043e+2
-0.134, -2.7967306e-9, -1.8347833e-9, 3.2233377e+2
-0.133, -2.8302809e-9, -1.7924463e-9, 3.2266711e+2
-0.132, -2.8925882e-9, -1.7437187e-9, 3.2300046e+2
-0.131, -2.9045704e-9, -1.7149615e-9, 3.2333380e+2
-0.130, -2.9053693e-9, -1.6710268e-9, 3.2366714e+2
-0.129, -2.9293337e-9, -1.6278909e-9, 3.2400049e+2
-0.128, -2.9628837e-9, -1.5911457e-9, 3.2433383e+2
-0.127, -3.0172029e-9, -1.5567967e-9, 3.2466718e+2
-0.126, -3.0355756e-9, -1.4880988e-9, 3.2500052e+2
-0.125, -3.0363745e-9, -1.4833059e-9, 3.2533386e+2
-0.124, -3.0835046e-9, -1.4761166e-9, 3.2566721e+2
-0.123, -3.0922913e-9, -1.4154069e-9, 3.2600055e+2
-0.122, -3.1322320e-9, -1.3938389e-9, 3.2633389e+2
-0.121, -3.1506047e-9, -1.3355257e-9, 3.2666724e+2
-0.120, -3.1897465e-9, -1.3179517e-9, 3.2700058e+2
-0.119, -3.2304859e-9, -1.2979815e-9, 3.2733392e+2
-0.118, -3.2560479e-9, -1.2652301e-9, 3.2766727e+2
-0.117, -3.3151601e-9, -1.2021240e-9, 3.2800061e+2
-0.116, -3.3079708e-9, -1.1677750e-9, 3.2833395e+2
-0.115, -3.3495091e-9, -1.1533965e-9, 3.2866730e+2
-0.114, -3.4182068e-9, -1.1078641e-9, 3.2900064e+2
-0.113, -3.4325853e-9, -1.0807045e-9, 3.2933398e+2
-0.112, -3.4501595e-9, -1.0495508e-9, 3.2966733e+2
-0.111, -3.5595966e-9, -1.0160006e-9, 3.3000067e+2
-0.110, -3.5635908e-9, -9.9203634e-10, 3.3033401e+2
-0.109, -3.6235017e-9, -9.7366359e-10, 3.3066736e+2
-0.108, -3.6961934e-9, -9.4011354e-10, 3.3100070e+2
-0.107, -3.7177614e-9, -9.3771713e-10, 3.3133405e+2
-0.106, -3.7441223e-9, -8.9857527e-10, 3.3166739e+2
-0.105, -3.7720804e-9, -8.6822038e-10, 3.3200073e+2
-0.104, -3.8240033e-9, -8.4345725e-10, 3.3233408e+2
-0.103, -3.9086774e-9, -8.2907858e-10, 3.3266742e+2
-0.102, -3.9038848e-9, -8.0112017e-10, 3.3300076e+2
-0.101, -3.9374348e-9, -8.0112017e-10, 3.3333411e+2
-0.100, -3.9653933e-9, -7.7955220e-10, 3.3366745e+2
-0.099, -4.0221089e-9, -7.5878309e-10, 3.3400079e+2
-0.098, -4.0668424e-9, -7.3801398e-10, 3.3433414e+2
-0.097, -4.0556594e-9, -7.2044010e-10, 3.3466748e+2
-0.096, -4.0716350e-9, -7.0446388e-10, 3.3500082e+2
-0.095, -4.1331440e-9, -6.9168288e-10, 3.3533417e+2
-0.094, -4.1523154e-9, -6.8209710e-10, 3.3566751e+2
-0.093, -4.1658952e-9, -6.6212680e-10, 3.3600085e+2
-0.092, -4.1858654e-9, -6.6212680e-10, 3.3633420e+2
-0.091, -4.2298005e-9, -6.2618027e-10, 3.3666754e+2
-0.090, -4.2178181e-9, -6.2218619e-10, 3.3700089e+2
-0.089, -4.2673443e-9, -6.0221589e-10, 3.3733423e+2
-0.088, -4.2305990e-9, -5.8384320e-10, 3.3766757e+2
-0.087, -4.2649480e-9, -5.7425747e-10, 3.3800092e+2
-0.086, -4.2729358e-9, -5.6307409e-10, 3.3833426e+2
-0.085, -4.3112789e-9, -5.4310378e-10, 3.3866760e+2
-0.084, -4.2801251e-9, -5.2393229e-10, 3.3900095e+2
-0.083, -4.3296517e-9, -5.2393229e-10, 3.3933429e+2
-0.082, -4.3863673e-9, -4.9677262e-10, 3.3966763e+2
-0.081, -4.3448294e-9, -4.9277860e-10, 3.4000098e+2
-0.080, -4.3663970e-9, -4.7760113e-10, 3.4033432e+2
-0.079, -4.4334971e-9, -4.6641779e-10, 3.4066766e+2
-0.078, -4.3791779e-9, -4.4644746e-10, 3.4100101e+2
-0.077, -4.3903619e-9, -4.3366646e-10, 3.4133435e+2
-0.076, -4.3855688e-9, -4.1449497e-10, 3.4166769e+2
-0.075, -4.3871662e-9, -4.2727596e-10, 3.4200104e+2
-0.074, -4.4151247e-9, -3.7215789e-10, 3.4233438e+2
-0.073, -4.4454795e-9, -3.9212822e-10, 3.4266772e+2
-0.072, -4.3991482e-9, -3.6656619e-10, 3.4300107e+2
-0.071, -4.4023438e-9, -3.3541253e-10, 3.4333441e+2
-0.070, -4.3807757e-9, -3.0825292e-10, 3.4366776e+2
-0.069, -4.4494737e-9, -3.1863748e-10, 3.4400110e+2
-0.068, -4.3975512e-9, -3.0425887e-10, 3.4433444e+2
-0.067, -4.4135269e-9, -2.7230634e-10, 3.4466779e+2
-0.066, -4.4167225e-9, -2.3076811e-10, 3.4500113e+2
-0.065, -4.3943555e-9, -2.1958475e-10, 3.4533447e+2
-0.064, -4.3871662e-9, -1.8044294e-10, 3.4566782e+2
-0.063, -4.4239115e-9, -1.6766194e-10, 3.4600116e+2
-0.062, -4.3767816e-9, -1.5727737e-10, 3.4633450e+2
-0.061, -4.3815747e-9, -1.3650826e-10, 3.4666785e+2
-0.060, -4.3831725e-9, -1.1573913e-10, 3.4700119e+2
-0.059, -4.3408352e-9, -9.0975949e-11, 3.4733453e+2
-0.058, -4.3496220e-9, -4.7840079e-11, 3.4766788e+2
-0.057, -4.3600066e-9, -4.3846021e-11, 3.4800122e+2
-0.056, -4.3128767e-9, -4.1449580e-11, 3.4833456e+2
-0.055, -4.3016932e-9, 2.1656597e-11, 3.4866791e+2
-0.054, -4.3240598e-9, 2.9644721e-11, 3.4900125e+2
-0.053, -4.3144741e-9, 5.9200776e-11, 3.4933459e+2
-0.052, -4.2769304e-9, 3.0443533e-11, 3.4966794e+2
-0.051, -4.2857171e-9, 9.9141396e-11, 3.5000128e+2
-0.050, -4.2729358e-9, 1.0712952e-10, 3.5033463e+2
-0.049, -4.2497708e-9, 1.3349033e-10, 3.5066797e+2
-0.048, -4.2513681e-9, 1.3349033e-10, 3.5100131e+2
-0.047, -4.2833208e-9, 1.6464401e-10, 3.5133466e+2
-0.046, -4.2465751e-9, 2.1816443e-10, 3.5166800e+2
-0.045, -4.2242085e-9, 1.9340125e-10, 3.5200134e+2
-0.044, -4.2242085e-9, 2.6050148e-10, 3.5233469e+2
-0.043, -4.2010431e-9, 2.3573832e-10, 3.5266803e+2
-0.042, -4.2010431e-9, 2.8606351e-10, 3.5300137e+2
-0.041, -4.2329957e-9, 3.2840056e-10, 3.5333472e+2
-0.040, -4.1922559e-9, 3.3159581e-10, 3.5366806e+2
-0.039, -4.1690909e-9, 3.0603381e-10, 3.5400140e+2
-0.038, -4.1491202e-9, 3.7712811e-10, 3.5433475e+2
-0.037, -4.1371377e-9, 4.0908063e-10, 3.5466809e+2
-0.036, -4.1483212e-9, 3.7792691e-10, 3.5500143e+2
-0.035, -4.1555106e-9, 4.1227585e-10, 3.5533478e+2
-0.034, -4.1379371e-9, 4.2905091e-10, 3.5566812e+2
-0.033, -4.1051855e-9, 4.7458321e-10, 3.5600146e+2
-0.032, -4.0892094e-9, 4.7857729e-10, 3.5633481e+2
-0.031, -4.1539128e-9, 5.5925736e-10, 3.5666815e+2
-0.030, -4.1003925e-9, 5.7842886e-10, 3.5700150e+2
-0.029, -4.1019903e-9, 5.8402050e-10, 3.5733484e+2
-0.028, -4.0884105e-9, 6.0718608e-10, 3.5766818e+2
-0.027, -4.0644457e-9, 6.2475991e-10, 3.5800153e+2
-0.026, -4.0852153e-9, 6.6230410e-10, 3.5833487e+2
-0.025, -4.0868131e-9, 6.5112071e-10, 3.5866821e+2
-0.024, -4.0660435e-9, 6.7109107e-10, 3.5900156e+2
-0.023, -4.0548600e-9, 6.6070649e-10, 3.5933490e+2
-0.022, -4.0221089e-9, 6.5990768e-10, 3.5966824e+2
-0.021, -4.0580557e-9, 6.7907918e-10, 3.6000159e+2
-0.020, -4.0660435e-9, 7.3339840e-10, 3.6033493e+2
-0.019, -4.0556594e-9, 7.5656398e-10, 3.6066827e+2
-0.018, -4.0484700e-9, 7.9570583e-10, 3.6100162e+2
-0.017, -4.0452748e-9, 8.1168200e-10, 3.6133496e+2
-0.016, -4.0213104e-9, 8.1727375e-10, 3.6166830e+2
-0.015, -4.0484700e-9, 8.2925589e-10, 3.6200165e+2
-0.014, -4.0492685e-9, 8.5721430e-10, 3.6233499e+2
-0.013, -4.0093280e-9, 8.5641555e-10, 3.6266833e+2
-0.012, -4.0165173e-9, 8.3804286e-10, 3.6300168e+2
-0.011, -4.0237067e-9, 9.1233238e-10, 3.6333502e+2
-0.010, -3.9981445e-9, 9.3070512e-10, 3.6366837e+2
-0.009, -4.0388843e-9, 9.2750985e-10, 3.6400171e+2
-0.008, -3.9853636e-9, 9.6265751e-10, 3.6433505e+2
-0.007, -4.0005412e-9, 9.5626707e-10, 3.6466840e+2
-0.006, -3.9821688e-9, 1.0561186e-9, 3.6500174e+2
-0.005, -4.0197126e-9, 1.0305566e-9, 3.6533508e+2
-0.004, -3.9789732e-9, 1.0401424e-9, 3.6566843e+2
-0.003, -3.9813695e-9, 1.0385448e-9, 3.6600177e+2
-0.002, -3.9973460e-9, 1.0872723e-9, 3.6633511e+2
-0.001, -3.9733816e-9, 1.1144319e-9, 3.6666846e+2
-0.000, -3.9661923e-9, 1.1048462e-9, 3.6700180e+2
0.001, -4.0061328e-9, 1.1104379e-9, 3.6733514e+2
0.002, -3.9901566e-9, 1.1647571e-9, 3.6766849e+2
0.003, -3.9797721e-9, 1.1232190e-9, 3.6800183e+2
0.004, -4.0005412e-9, 1.1304081e-9, 3.6833517e+2
0.005, -3.9917540e-9, 1.1543726e-9, 3.6866852e+2
0.006, -3.9957482e-9, 1.1879226e-9, 3.6900186e+2
0.007, -4.0069317e-9, 1.1711475e-9, 3.6933521e+2
0.008, -3.9925530e-9, 1.1927156e-9, 3.6966855e+2
0.009, -3.9853636e-9, 1.2350526e-9, 3.7000189e+2
0.010, -3.9741801e-9, 1.2190763e-9, 3.7033524e+2
0.011, -3.9765764e-9, 1.2901707e-9, 3.7066858e+2
0.012, -3.9701864e-9, 1.2502300e-9, 3.7100192e+2
0.013, -3.9821688e-9, 1.2781884e-9, 3.7133527e+2
0.014, -4.0013397e-9, 1.3333066e-9, 3.7166861e+2
0.015, -4.0013397e-9, 1.3428922e-9, 3.7200195e+2
0.016, -3.9693875e-9, 1.3532769e-9, 3.7233530e+2
0.017, -4.0452748e-9, 1.3748448e-9, 3.7266864e+2
0.018, -4.0037360e-9, 1.3636614e-9, 3.7300198e+2
0.019, -3.9933519e-9, 1.3564722e-9, 3.7333533e+2
0.020, -4.0085291e-9, 1.3820340e-9, 3.7366867e+2
0.021, -3.9829673e-9, 1.4163830e-9, 3.7400201e+2
0.022, -3.9989434e-9, 1.4770928e-9, 3.7433536e+2
0.023, -4.0149195e-9, 1.4427438e-9, 3.7466870e+2
0.024, -4.0013397e-9, 1.4419450e-9, 3.7500204e+2
0.025, -4.0221089e-9, 1.4603178e-9, 3.7533539e+2
0.026, -4.0061328e-9, 1.5505836e-9, 3.7566873e+2
0.027, -4.0173163e-9, 1.5194298e-9, 3.7600208e+2
0.028, -4.0221089e-9, 1.5274179e-9, 3.7633542e+2
0.029, -4.0053338e-9, 1.5633645e-9, 3.7666876e+2
0.030, -4.0380854e-9, 1.5601692e-9, 3.7700211e+2
0.031, -4.0428785e-9, 1.5929205e-9, 3.7733545e+2
0.032, -4.0540615e-9, 1.6264707e-9, 3.7766879e+2
0.033, -4.0508663e-9, 1.6336600e-9, 3.7800214e+2
0.034, -4.0356891e-9, 1.5809384e-9, 3.7833548e+2
0.035, -4.0692387e-9, 1.6041040e-9, 3.7866882e+2
0.036, -4.0804222e-9, 1.5801395e-9, 3.7900217e+2
0.037, -4.0804222e-9, 1.5977134e-9, 3.7933551e+2
0.038, -4.0748307e-9, 1.6360565e-9, 3.7966885e+2
0.039, -4.0820201e-9, 1.6400504e-9, 3.8000220e+2
0.040, -4.0668424e-9, 1.6616185e-9, 3.8033554e+2
0.041, -4.1203627e-9, 1.6743994e-9, 3.8066888e+2
0.042, -4.1099781e-9, 1.7175353e-9, 3.8100223e+2
0.043, -4.1019903e-9, 1.7606712e-9, 3.8133557e+2
0.044, -4.1555106e-9, 1.8093987e-9, 3.8166891e+2
0.045, -4.1746824e-9, 1.8078010e-9, 3.8200226e+2
0.046, -4.1770787e-9, 1.7726534e-9, 3.8233560e+2
0.047, -4.1722856e-9, 1.7998130e-9, 3.8266895e+2
0.048, -4.1658952e-9, 1.8269726e-9, 3.8300229e+2
0.049, -4.1938537e-9, 1.8517358e-9, 3.8333563e+2
0.050, -4.2082324e-9, 1.8405524e-9, 3.8366898e+2
0.051, -4.2154218e-9, 1.8573274e-9, 3.8400232e+2
0.052, -4.2154218e-9, 1.8916764e-9, 3.8433566e+2
0.053, -4.2162203e-9, 1.9156408e-9, 3.8466901e+2
0.054, -4.2178181e-9, 1.9699600e-9, 3.8500235e+2
0.055, -4.2290011e-9, 1.9507886e-9, 3.8533569e+2
0.056, -4.2665458e-9, 1.9779482e-9, 3.8566904e+2
0.057, -4.2809245e-9, 2.0003148e-9, 3.8600238e+2
0.058, -4.2753325e-9, 2.0378590e-9, 3.8633572e+2
0.059, -4.3344448e-9, 2.0290720e-9, 3.8666907e+2
0.060, -4.3320485e-9, 2.0857878e-9, 3.8700241e+2
0.061, -4.3687938e-9, 2.0905808e-9, 3.8733575e+2
0.062, -4.3472257e-9, 2.1113498e-9, 3.8766910e+2
0.063, -4.3831725e-9, 2.1145450e-9, 3.8800244e+2
0.064, -4.4135269e-9, 2.1321189e-9, 3.8833578e+2
0.065, -4.4846211e-9, 2.1480950e-9, 3.8866913e+2
0.066, -4.4478758e-9, 2.1640714e-9, 3.8900247e+2
0.067, -4.4726396e-9, 2.1760536e-9, 3.8933582e+2
0.068, -4.5285562e-9, 2.1960240e-9, 3.8966916e+2
0.069, -4.5453308e-9, 2.1792490e-9, 3.9000250e+2
0.070, -4.6108335e-9, 2.1584798e-9, 3.9033585e+2
0.071, -4.6523723e-9, 2.2479467e-9, 3.9066919e+2
0.072, -4.6268100e-9, 2.2215860e-9, 3.9100253e+2
0.073, -4.7274606e-9, 2.2351658e-9, 3.9133588e+2
0.074, -4.7578150e-9, 2.2391597e-9, 3.9166922e+2
0.075, -4.8041464e-9, 2.2798994e-9, 3.9200256e+2
0.076, -4.8800333e-9, 2.2886861e-9, 3.9233591e+2
0.077, -4.9143827e-9, 2.3182420e-9, 3.9266925e+2
0.078, -5.0565712e-9, 2.3342184e-9, 3.9300259e+2
0.079, -4.9894706e-9, 2.3493958e-9, 3.9333594e+2
0.080, -5.0821334e-9, 2.3853426e-9, 3.9366928e+2
0.081, -5.1907714e-9, 2.3621767e-9, 3.9400262e+2
0.082, -5.1668070e-9, 2.4300759e-9, 3.9433597e+2
0.083, -5.2562741e-9, 2.4596321e-9, 3.9466931e+2
0.084, -5.3912736e-9, 2.4907856e-9, 3.9500266e+2
0.085, -5.3912736e-9, 2.5187441e-9, 3.9533600e+2
0.086, -5.5358589e-9, 2.5435074e-9, 3.9566934e+2
0.087, -5.5781957e-9, 2.5634774e-9, 3.9600269e+2
0.088, -5.6500888e-9, 2.5818503e-9, 3.9633603e+2
0.089, -5.6868341e-9, 2.6161993e-9, 3.9666937e+2
0.090, -5.8513892e-9, 2.6489506e-9, 3.9700272e+2
0.091, -5.9712111e-9, 2.6673233e-9, 3.9733606e+2
0.092, -6.0063590e-9, 2.7080624e-9, 3.9766940e+2
0.093, -6.1038139e-9, 2.7184472e-9, 3.9800275e+2
0.094, -6.2515944e-9, 2.7288316e-9, 3.9833609e+2
0.095, -6.3594343e-9, 2.7799558e-9, 3.9866943e+2
0.096, -6.4193446e-9, 2.8286833e-9, 3.9900278e+2
0.097, -6.6158528e-9, 2.8310798e-9, 3.9933612e+2
0.098, -6.6749650e-9, 2.8814049e-9, 3.9966946e+2
0.099, -6.4672738e-9, 2.8997775e-9, 4.0000281e+2
