Dec. 9, 2005   00:47:53
Cyclic Voltammetry
File: d:\ida_biofilms\11_28_18_blankidapyo\5um_pyo_soak_gc.txt
Data Source:  Experiment
Instrument Model:  CHI760B
Header: 
Note: 

Init E (V) = 0.1
High E (V) = 0.1
Low E (V) = -0.5
Init P/N = N
Scan Rate (V/s) = 0.003
Segment = 2
Sample Interval (V) = 0.001
Quiet Time (sec) = 2
Sensitivity (A/V) = 1e-7
2nd E (V) = 0.1
Sens 2 (A/V) = 1e-7

Potential/V, i1/A, i2/A, Time/s

0.100, -1.0410212e-8, -8.4338527e-9, 3.3333334e-1
0.099, -8.9153938e-9, -7.4680084e-9, 6.6666669e-1
0.098, -7.7393825e-9, -6.7446835e-9, 1.0000000e+0
0.097, -6.8884076e-9, -6.0957284e-9, 1.3333334e+0
0.096, -6.2079795e-9, -5.5553318e-9, 1.6666667e+0
0.095, -5.5810712e-9, -5.0717310e-9, 2.0000000e+0
0.094, -5.1346949e-9, -4.6901385e-9, 2.3333333e+0
0.093, -4.7003010e-9, -4.4258912e-9, 2.6666665e+0
0.092, -4.2304396e-9, -4.0836001e-9, 2.9999998e+0
0.091, -3.8627461e-9, -3.8236663e-9, 3.3333330e+0
0.090, -3.6593684e-9, -3.5793897e-9, 3.6666663e+0
0.089, -3.3263434e-9, -3.4197070e-9, 3.9999995e+0
0.088, -3.1460516e-9, -3.1592142e-9, 4.3333330e+0
0.087, -2.8203757e-9, -3.0416292e-9, 4.6666665e+0
0.086, -2.6803439e-9, -2.9321119e-9, 5.0000000e+0
0.085, -2.4048337e-9, -2.7184297e-9, 5.3333335e+0
0.084, -2.2473079e-9, -2.5990070e-9, 5.6666670e+0
0.083, -2.0388178e-9, -2.5263152e-9, 6.0000005e+0
0.082, -1.8467033e-9, -2.4031384e-9, 6.3333340e+0
0.081, -1.7502068e-9, -2.2421776e-9, 6.6666675e+0
0.080, -1.5462700e-9, -2.1420066e-9, 7.0000010e+0
0.079, -1.3586290e-9, -2.0745867e-9, 7.3333344e+0
0.078, -1.2813040e-9, -2.0153947e-9, 7.6666679e+0
0.077, -1.2019020e-9, -1.9343951e-9, 8.0000010e+0
0.076, -9.8414576e-10, -1.8102597e-9, 8.3333340e+0
0.075, -9.0729996e-10, -1.7258253e-9, 8.6666670e+0
0.074, -8.1232115e-10, -1.6665533e-9, 9.0000000e+0
0.073, -7.5768242e-10, -1.6314056e-9, 9.3333330e+0
0.072, -7.1598444e-10, -1.5964976e-9, 9.6666660e+0
0.071, -5.5262728e-10, -1.5763676e-9, 9.9999990e+0
0.070, -4.1507181e-10, -1.5366666e-9, 1.0333332e+1
0.069, -3.5827621e-10, -1.5021578e-9, 1.0666665e+1
0.068, -3.1841549e-10, -1.4591817e-9, 1.0999998e+1
0.067, -2.9900435e-10, -1.3943980e-9, 1.1333331e+1
0.066, -2.4420582e-10, -1.3578924e-9, 1.1666664e+1
0.065, -2.0722081e-10, -1.3050109e-9, 1.1999997e+1
0.064, -1.3277149e-10, -1.2676266e-9, 1.2333330e+1
0.063, 3.6017574e-11, -1.2330379e-9, 1.2666663e+1
0.062, 6.9967102e-11, -1.1947748e-9, 1.2999996e+1
0.061, 1.2093133e-10, -1.1674555e-9, 1.3333329e+1
0.060, 1.8563513e-10, -1.1453283e-9, 1.3666662e+1
0.059, 1.9657886e-10, -1.1190474e-9, 1.3999995e+1
0.058, 2.2629469e-10, -1.1021924e-9, 1.4333328e+1
0.057, 2.9714933e-10, -1.0824618e-9, 1.4666661e+1
0.056, 3.4451891e-10, -1.0669648e-9, 1.4999994e+1
0.055, 4.3486459e-10, -1.0437993e-9, 1.5333327e+1
0.054, 5.2169552e-10, -1.0489116e-9, 1.5666660e+1
0.053, 5.7210059e-10, -1.0132847e-9, 1.5999993e+1
0.052, 5.8520111e-10, -9.9115760e-10, 1.6333326e+1
0.051, 6.2106781e-10, -9.8660435e-10, 1.6666660e+1
0.050, 6.6420364e-10, -9.5624941e-10, 1.6999994e+1
0.049, 6.8537215e-10, -9.3092706e-10, 1.7333328e+1
0.048, 6.9927153e-10, -8.8587404e-10, 1.7666662e+1
0.047, 7.4080975e-10, -8.7772617e-10, 1.7999996e+1
0.046, 7.4120915e-10, -8.3946305e-10, 1.8333330e+1
0.045, 7.6645162e-10, -8.0798984e-10, 1.8666664e+1
0.044, 8.3163476e-10, -8.0687151e-10, 1.8999998e+1
0.043, 8.3818502e-10, -7.6078005e-10, 1.9333332e+1
0.042, 8.3051643e-10, -7.6293688e-10, 1.9666666e+1
0.041, 9.5537078e-10, -7.6469425e-10, 2.0000000e+1
0.040, 9.7574049e-10, -7.5814399e-10, 2.0333334e+1
0.039, 9.6479669e-10, -7.4656120e-10, 2.0666668e+1
0.038, 1.0401248e-9, -7.2754947e-10, 2.1000002e+1
0.037, 1.0645684e-9, -7.1868261e-10, 2.1333336e+1
0.036, 1.0954025e-9, -7.1708500e-10, 2.1666670e+1
0.035, 1.1335060e-9, -6.9927153e-10, 2.2000004e+1
0.034, 1.1509999e-9, -6.9911171e-10, 2.2333338e+1
0.033, 1.1478047e-9, -6.8720946e-10, 2.2666672e+1
0.032, 1.1549940e-9, -6.8673012e-10, 2.3000006e+1
0.031, 1.1741655e-9, -6.8321537e-10, 2.3333340e+1
0.030, 1.1807956e-9, -6.8537215e-10, 2.3666674e+1
0.029, 1.1823933e-9, -6.8233663e-10, 2.4000008e+1
0.028, 1.2188990e-9, -6.6683975e-10, 2.4333342e+1
0.027, 1.2241711e-9, -6.6516226e-10, 2.4666676e+1
0.026, 1.2810466e-9, -6.6795808e-10, 2.5000010e+1
0.025, 1.2916708e-9, -6.3304995e-10, 2.5333344e+1
0.024, 1.3373629e-9, -6.7075390e-10, 2.5666677e+1
0.023, 1.3998300e-9, -6.4998479e-10, 2.6000011e+1
0.022, 1.3858508e-9, -6.2386363e-10, 2.6333345e+1
0.021, 1.2665082e-9, -6.7331007e-10, 2.6666679e+1
0.020, 1.3753864e-9, -6.2993460e-10, 2.7000013e+1
0.019, 1.3874484e-9, -6.3880140e-10, 2.7333347e+1
0.018, 1.4906549e-9, -6.3999961e-10, 2.7666681e+1
0.017, 1.4691669e-9, -6.2370387e-10, 2.8000015e+1
0.016, 1.4884183e-9, -6.3209138e-10, 2.8333349e+1
0.015, 1.5520037e-9, -6.2418315e-10, 2.8666683e+1
0.014, 1.5703764e-9, -6.1875122e-10, 2.9000017e+1
0.013, 1.5495274e-9, -6.1635480e-10, 2.9333351e+1
0.012, 1.6080804e-9, -6.0605010e-10, 2.9666685e+1
0.011, 1.5917047e-9, -6.0772759e-10, 3.0000019e+1
0.010, 1.6127933e-9, -6.1451749e-10, 3.0333353e+1
0.009, 1.6261336e-9, -6.0413297e-10, 3.0666687e+1
0.008, 1.6220596e-9, -5.9239041e-10, 3.1000021e+1
0.007, 1.6423494e-9, -6.0109745e-10, 3.1333355e+1
0.006, 1.6450653e-9, -5.9766259e-10, 3.1666689e+1
0.005, 1.6628789e-9, -5.7984906e-10, 3.2000023e+1
0.004, 1.6596837e-9, -6.0333416e-10, 3.2333355e+1
0.003, 1.6502576e-9, -6.0301458e-10, 3.2666687e+1
0.002, 1.6760594e-9, -5.5868055e-10, 3.3000019e+1
0.001, 1.6635180e-9, -5.8480165e-10, 3.3333351e+1
-0.000, 1.6743019e-9, -4.9533472e-10, 3.3666683e+1
-0.001, 1.7061746e-9, -5.9654426e-10, 3.4000015e+1
-0.002, 1.7195146e-9, -5.7537569e-10, 3.4333347e+1
-0.003, 1.7247869e-9, -3.0609604e-10, 3.4666679e+1
-0.004, 1.7015415e-9, -6.7410888e-10, 3.5000011e+1
-0.005, 1.6269323e-9, -6.2769789e-10, 3.5333344e+1
-0.006, 1.7065740e-9, -5.9742289e-10, 3.5666676e+1
-0.007, 1.7005828e-9, -5.9486671e-10, 3.6000008e+1
-0.008, 1.7236685e-9, -5.7505617e-10, 3.6333340e+1
-0.009, 1.7276627e-9, -5.7841121e-10, 3.6666672e+1
-0.010, 1.7914876e-9, -5.7457689e-10, 3.7000004e+1
-0.011, 1.7958014e-9, -5.2824572e-10, 3.7333336e+1
-0.012, 1.7298194e-9, -6.1228084e-10, 3.7666668e+1
-0.013, 1.7591357e-9, -5.8592003e-10, 3.8000000e+1
-0.014, 1.8299104e-9, -5.8568039e-10, 3.8333332e+1
-0.015, 1.8068249e-9, -5.7098226e-10, 3.8666664e+1
-0.016, 1.8208839e-9, -5.7377808e-10, 3.8999996e+1
-0.017, 1.8917385e-9, -5.7178101e-10, 3.9333328e+1
-0.018, 1.8430111e-9, -5.6539051e-10, 3.9666660e+1
-0.019, 1.8754429e-9, -5.6626925e-10, 3.9999992e+1
-0.020, 1.9374307e-9, -5.6930471e-10, 4.0333324e+1
-0.021, 1.9111497e-9, -5.3799132e-10, 4.0666656e+1
-0.022, 1.9446200e-9, -5.4573979e-10, 4.0999989e+1
-0.023, 1.9807262e-9, -5.4078714e-10, 4.1333321e+1
-0.024, 1.9970221e-9, -5.5037286e-10, 4.1666653e+1
-0.025, 1.9871169e-9, -5.6339350e-10, 4.1999985e+1
-0.026, 1.9895132e-9, -5.5684329e-10, 4.2333317e+1
-0.027, 2.0004571e-9, -5.5644384e-10, 4.2666649e+1
-0.028, 2.0369626e-9, -5.6802663e-10, 4.2999981e+1
-0.029, 1.9822441e-9, -5.4965393e-10, 4.3333313e+1
-0.030, 2.0530988e-9, -5.4725752e-10, 4.3666645e+1
-0.031, 2.0754654e-9, -5.3527532e-10, 4.3999977e+1
-0.032, 2.0717910e-9, -5.3974863e-10, 4.4333309e+1
-0.033, 2.1069386e-9, -5.3879007e-10, 4.4666641e+1
-0.034, 2.0989506e-9, -5.1658311e-10, 4.4999973e+1
-0.035, 2.1315423e-9, -5.3223981e-10, 4.5333305e+1
-0.036, 2.1387314e-9, -5.0508020e-10, 4.5666637e+1
-0.037, 2.1178026e-9, -3.1536226e-10, 4.5999969e+1
-0.038, 2.1174031e-9, -5.8224547e-10, 4.6333302e+1
-0.039, 2.1223558e-9, -5.0619853e-10, 4.6666634e+1
-0.040, 2.1162050e-9, -5.2744697e-10, 4.6999966e+1
-0.041, 2.1475184e-9, -5.1019261e-10, 4.7333298e+1
-0.042, 2.1507136e-9, -5.0268378e-10, 4.7666630e+1
-0.043, 2.1632551e-9, -4.9996784e-10, 4.7999962e+1
-0.044, 2.1629354e-9, -4.9773113e-10, 4.8333294e+1
-0.045, 2.1726809e-9, -4.8782584e-10, 4.8666626e+1
-0.046, 2.1719619e-9, -4.8495014e-10, 4.8999958e+1
-0.047, 2.1923316e-9, -4.9110099e-10, 4.9333290e+1
-0.048, 2.1835449e-9, -4.9581400e-10, 4.9666622e+1
-0.049, 2.2209292e-9, -4.7704191e-10, 4.9999954e+1
-0.050, 2.2011186e-9, -4.8614834e-10, 5.0333286e+1
-0.051, 2.2027962e-9, -4.7704191e-10, 5.0666618e+1
-0.052, 2.2525621e-9, -4.7776078e-10, 5.0999950e+1
-0.053, 2.2335505e-9, -4.7824011e-10, 5.1333282e+1
-0.054, 2.2498463e-9, -4.7105081e-10, 5.1666615e+1
-0.055, 2.2830768e-9, -4.7600346e-10, 5.1999947e+1
-0.056, 2.2667010e-9, -4.8582888e-10, 5.2333279e+1
-0.057, 2.3163076e-9, -4.8654780e-10, 5.2666611e+1
-0.058, 2.3060027e-9, -4.9397669e-10, 5.2999943e+1
-0.059, 2.3274109e-9, -4.8550930e-10, 5.3333275e+1
-0.060, 2.3359583e-9, -4.9197968e-10, 5.3666607e+1
-0.061, 2.3241358e-9, -4.8662763e-10, 5.3999939e+1
-0.062, 2.3774964e-9, -4.8750637e-10, 5.4333271e+1
-0.063, 2.4065732e-9, -4.9829030e-10, 5.4666603e+1
-0.064, 2.3727835e-9, -4.9837018e-10, 5.4999935e+1
-0.065, 2.4521054e-9, -4.9837018e-10, 5.5333267e+1
-0.066, 2.4383660e-9, -5.0500032e-10, 5.5666599e+1
-0.067, 2.4483511e-9, -4.9789090e-10, 5.5999931e+1
-0.068, 2.5129752e-9, -5.0396187e-10, 5.6333263e+1
-0.069, 2.4954812e-9, -5.0012761e-10, 5.6666595e+1
-0.070, 2.5201643e-9, -4.9884946e-10, 5.6999928e+1
-0.071, 2.5380578e-9, -5.0587901e-10, 5.7333260e+1
-0.072, 2.5272739e-9, -4.9988791e-10, 5.7666592e+1
-0.073, 2.5424511e-9, -5.1051213e-10, 5.7999924e+1
-0.074, 2.5521170e-9, -4.9429627e-10, 5.8333256e+1
-0.075, 2.5775191e-9, -5.1210974e-10, 5.8666588e+1
-0.076, 2.5926965e-9, -5.0691751e-10, 5.8999920e+1
-0.077, 2.5803149e-9, -5.1258908e-10, 5.9333252e+1
-0.078, 2.6046787e-9, -5.0931392e-10, 5.9666584e+1
-0.079, 2.6196965e-9, -5.1370741e-10, 5.9999916e+1
-0.080, 2.6192970e-9, -5.1434640e-10, 6.0333248e+1
-0.081, 2.6392672e-9, -5.1139082e-10, 6.0666580e+1
-0.082, 2.6398264e-9, -5.1897958e-10, 6.0999912e+1
-0.083, 2.6466962e-9, -5.1698251e-10, 6.1333244e+1
-0.084, 2.6645097e-9, -5.2241445e-10, 6.1666576e+1
-0.085, 2.6632316e-9, -5.2273397e-10, 6.1999908e+1
-0.086, 2.6747347e-9, -5.2768656e-10, 6.2333241e+1
-0.087, 2.6901517e-9, -5.3423688e-10, 6.2666573e+1
-0.088, 2.6772908e-9, -5.2529014e-10, 6.2999905e+1
-0.089, 2.6864770e-9, -5.3080196e-10, 6.3333237e+1
-0.090, 2.7140361e-9, -5.3974863e-10, 6.3666569e+1
-0.091, 2.7197076e-9, -5.4166582e-10, 6.3999901e+1
-0.092, 2.7149947e-9, -5.3926941e-10, 6.4333237e+1
-0.093, 2.7457490e-9, -5.3847055e-10, 6.4666573e+1
-0.094, 2.7514204e-9, -5.3407706e-10, 6.4999908e+1
-0.095, 2.7722695e-9, -5.3200017e-10, 6.5333244e+1
-0.096, 2.7615654e-9, -5.2880494e-10, 6.5666580e+1
-0.097, 2.8174025e-9, -5.1842042e-10, 6.5999916e+1
-0.098, 2.7975120e-9, -5.3144100e-10, 6.6333252e+1
-0.099, 2.8174025e-9, -5.2544991e-10, 6.6666588e+1
-0.100, 2.8694052e-9, -5.2329313e-10, 6.6999924e+1
-0.101, 2.8772336e-9, -5.2361265e-10, 6.7333260e+1
-0.102, 2.9333103e-9, -5.2073690e-10, 6.7666595e+1
-0.103, 2.9480083e-9, -5.2241445e-10, 6.7999931e+1
-0.104, 2.9435350e-9, -5.1690263e-10, 6.8333267e+1
-0.105, 2.9652625e-9, -5.1035237e-10, 6.8666603e+1
-0.106, 3.0131115e-9, -5.1858018e-10, 6.8999939e+1
-0.107, 3.0073599e-9, -5.1290860e-10, 6.9333275e+1
-0.108, 3.0399516e-9, -5.0691751e-10, 6.9666611e+1
-0.109, 3.0398717e-9, -5.1474586e-10, 6.9999947e+1
-0.110, 3.0850844e-9, -5.1202986e-10, 7.0333282e+1
-0.111, 3.0834868e-9, -5.0875476e-10, 7.0666618e+1
-0.112, 3.0940310e-9, -5.0811566e-10, 7.0999954e+1
-0.113, 3.1203919e-9, -5.0827542e-10, 7.1333290e+1
-0.114, 3.1151197e-9, -4.9693233e-10, 7.1666626e+1
-0.115, 3.1227883e-9, -4.9397669e-10, 7.1999962e+1
-0.116, 3.1427589e-9, -4.9437610e-10, 7.2333298e+1
-0.117, 3.1402025e-9, -5.0340271e-10, 7.2666634e+1
-0.118, 3.1464331e-9, -5.0683757e-10, 7.2999969e+1
-0.119, 3.1793441e-9, -4.9821042e-10, 7.3333305e+1
-0.120, 3.1726342e-9, -4.9924886e-10, 7.3666641e+1
-0.121, 3.1921252e-9, -5.1314825e-10, 7.3999977e+1
-0.122, 3.1943619e-9, -5.0116600e-10, 7.4333313e+1
-0.123, 3.2227998e-9, -5.0971333e-10, 7.4666649e+1
-0.124, 3.2548320e-9, -5.1139082e-10, 7.4999985e+1
-0.125, 3.2644178e-9, -5.1586418e-10, 7.5333321e+1
-0.126, 3.2964502e-9, -5.1985827e-10, 7.5666656e+1
-0.127, 3.3587575e-9, -5.1610383e-10, 7.5999992e+1
-0.128, 3.3594765e-9, -5.2920435e-10, 7.6333328e+1
-0.129, 3.4397574e-9, -5.3239957e-10, 7.6666664e+1
-0.130, 3.4331269e-9, -5.3879007e-10, 7.7000000e+1
-0.131, 3.4301713e-9, -5.3319837e-10, 7.7333336e+1
-0.132, 3.5000676e-9, -5.4597937e-10, 7.7666672e+1
-0.133, 3.4979106e-9, -5.3998833e-10, 7.8000008e+1
-0.134, 3.5344963e-9, -5.4565991e-10, 7.8333344e+1
-0.135, 3.5543868e-9, -5.5452670e-10, 7.8666679e+1
-0.136, 3.5648511e-9, -5.5684329e-10, 7.9000015e+1
-0.137, 3.5731589e-9, -5.5820121e-10, 7.9333351e+1
-0.138, 3.5946470e-9, -5.6475152e-10, 7.9666687e+1
-0.139, 3.6087859e-9, -5.6387278e-10, 8.0000023e+1
-0.140, 3.6100640e-9, -5.6786686e-10, 8.0333359e+1
-0.141, 3.6220462e-9, -5.6491128e-10, 8.0666695e+1
-0.142, 3.6337886e-9, -5.6778698e-10, 8.1000031e+1
-0.143, 3.6450520e-9, -5.7617450e-10, 8.1333366e+1
-0.144, 3.6739689e-9, -5.7761235e-10, 8.1666702e+1
-0.145, 3.7095960e-9, -5.7497629e-10, 8.2000038e+1
-0.146, 3.7250929e-9, -5.7489641e-10, 8.2333374e+1
-0.147, 3.7392320e-9, -5.7976918e-10, 8.2666710e+1
-0.148, 3.8415595e-9, -5.8504135e-10, 8.3000046e+1
-0.149, 3.8412402e-9, -5.8544075e-10, 8.3333382e+1
-0.150, 3.8843764e-9, -5.9470701e-10, 8.3666718e+1
-0.151, 3.9192045e-9, -5.9941996e-10, 8.4000053e+1
-0.152, 3.9478816e-9, -6.1036370e-10, 8.4333389e+1
-0.153, 3.9951717e-9, -6.1427791e-10, 8.4666725e+1
-0.154, 4.0401442e-9, -6.1931038e-10, 8.5000061e+1
-0.155, 4.0607540e-9, -6.2258554e-10, 8.5333397e+1
-0.156, 4.0874344e-9, -6.2618016e-10, 8.5666733e+1
-0.157, 4.1094812e-9, -6.2865646e-10, 8.6000069e+1
-0.158, 4.1223420e-9, -6.3816236e-10, 8.6333405e+1
-0.159, 4.1464663e-9, -6.3880140e-10, 8.6666740e+1
-0.160, 4.1722683e-9, -6.4127770e-10, 8.7000076e+1
-0.161, 4.2686050e-9, -6.4966527e-10, 8.7333412e+1
-0.162, 4.3037525e-9, -6.4654987e-10, 8.7666748e+1
-0.163, 4.3289954e-9, -6.5294037e-10, 8.8000084e+1
-0.164, 4.4508139e-9, -6.6012967e-10, 8.8333420e+1
-0.165, 4.4892365e-9, -6.6068884e-10, 8.8666756e+1
-0.166, 4.5302162e-9, -6.6939593e-10, 8.9000092e+1
-0.167, 4.5724731e-9, -6.7746392e-10, 8.9333427e+1
-0.168, 4.5831774e-9, -6.8481298e-10, 8.9666763e+1
-0.169, 4.6101771e-9, -6.9352007e-10, 9.0000099e+1
-0.170, 4.6430082e-9, -6.9328038e-10, 9.0333435e+1
-0.171, 4.6833484e-9, -7.1380984e-10, 9.0666771e+1
-0.172, 4.7772089e-9, -7.2635126e-10, 9.1000107e+1
-0.173, 4.7943032e-9, -7.4712037e-10, 9.1333443e+1
-0.174, 4.9191575e-9, -7.6046053e-10, 9.1666779e+1
-0.175, 5.0087845e-9, -7.7635687e-10, 9.2000114e+1
-0.176, 5.0534381e-9, -8.0048107e-10, 9.2333450e+1
-0.177, 5.0950559e-9, -8.4928842e-10, 9.2666786e+1
-0.178, 5.1315623e-9, -8.6845997e-10, 9.3000122e+1
-0.179, 5.2012181e-9, -9.0512542e-10, 9.3333458e+1
-0.180, 5.3429274e-9, -9.2996855e-10, 9.3666794e+1
-0.181, 5.4267231e-9, -9.6974939e-10, 9.4000130e+1
-0.182, 5.5117964e-9, -9.9698882e-10, 9.4333466e+1
-0.183, 5.5702700e-9, -1.0262253e-9, 9.4666801e+1
-0.184, 5.5969500e-9, -1.0488318e-9, 9.5000137e+1
-0.185, 5.6700413e-9, -1.0651275e-9, 9.5333473e+1
-0.186, 5.7765233e-9, -1.0970800e-9, 9.5666809e+1
-0.187, 5.9372440e-9, -1.1238402e-9, 9.6000145e+1
-0.188, 6.0358176e-9, -1.1585087e-9, 9.6333481e+1
-0.189, 6.0779151e-9, -1.2037215e-9, 9.6666817e+1
-0.190, 6.2130741e-9, -1.2650703e-9, 9.7000153e+1
-0.191, 6.3309789e-9, -1.3468686e-9, 9.7333488e+1
-0.192, 6.4932175e-9, -1.4388919e-9, 9.7666824e+1
-0.193, 6.6137584e-9, -1.5085483e-9, 9.8000160e+1
-0.194, 6.6699943e-9, -1.5528026e-9, 9.8333496e+1
-0.195, 6.8282398e-9, -1.6056839e-9, 9.8666832e+1
-0.196, 6.9985466e-9, -1.6481009e-9, 9.9000168e+1
-0.197, 7.0696409e-9, -1.7144023e-9, 9.9333504e+1
-0.198, 7.2550446e-9, -1.8549133e-9, 9.9666840e+1
-0.199, 7.4855020e-9, -1.9917499e-9, 1.0000018e+2
-0.200, 7.5595521e-9, -2.0650810e-9, 1.0033351e+2
-0.201, 7.7342523e-9, -2.1479178e-9, 1.0066685e+2
-0.202, 8.0028135e-9, -2.2677396e-9, 1.0100018e+2
-0.203, 8.1799891e-9, -2.4703983e-9, 1.0133352e+2
-0.204, 8.3840863e-9, -2.5708891e-9, 1.0166685e+2
-0.205, 8.5776390e-9, -2.6707405e-9, 1.0200019e+2
-0.206, 8.8961256e-9, -2.8925706e-9, 1.0233353e+2
-0.207, 9.0838466e-9, -3.0450640e-9, 1.0266686e+2
-0.208, 9.4236610e-9, -3.1665635e-9, 1.0300020e+2
-0.209, 9.6773629e-9, -3.4519789e-9, 1.0333353e+2
-0.210, 9.9836281e-9, -3.5917711e-9, 1.0366687e+2
-0.211, 1.0383673e-8, -3.8461927e-9, 1.0400021e+2
-0.212, 1.0684825e-8, -4.0717776e-9, 1.0433354e+2
-0.213, 1.0989812e-8, -4.3859503e-9, 1.0466688e+2
-0.214, 1.1428600e-8, -4.6035469e-9, 1.0500021e+2
-0.215, 1.1877612e-8, -4.9714002e-9, 1.0533355e+2
-0.216, 1.2304498e-8, -5.2510640e-9, 1.0566689e+2
-0.217, 1.2758942e-8, -5.5685923e-9, 1.0600022e+2
-0.218, 1.3216901e-8, -5.9899659e-9, 1.0633356e+2
-0.219, 1.3731896e-8, -6.4204455e-9, 1.0666689e+2
-0.220, 1.4322618e-8, -6.8307959e-9, 1.0700023e+2
-0.221, 1.4858941e-8, -7.2521695e-9, 1.0733356e+2
-0.222, 1.5437999e-8, -7.6967082e-9, 1.0766690e+2
-0.223, 1.6149821e-8, -8.2547587e-9, 1.0800024e+2
-0.224, 1.6810199e-8, -8.7768619e-9, 1.0833357e+2
-0.225, 1.7515791e-8, -9.3560812e-9, 1.0866691e+2
-0.226, 1.8320833e-8, -9.9302673e-9, 1.0900024e+2
-0.227, 1.9117088e-8, -1.0553821e-8, 1.0933358e+2
-0.228, 2.0002494e-8, -1.1230655e-8, 1.0966692e+2
-0.229, 2.0888377e-8, -1.1927698e-8, 1.1000025e+2
-0.230, 2.1850147e-8, -1.2719001e-8, 1.1033359e+2
-0.231, 2.2860565e-8, -1.3508707e-8, 1.1066692e+2
-0.232, 2.3878092e-8, -1.4368549e-8, 1.1100026e+2
-0.233, 2.4964077e-8, -1.5298925e-8, 1.1133360e+2
-0.234, 2.6204791e-8, -1.6210372e-8, 1.1166693e+2
-0.235, 2.7367783e-8, -1.7186121e-8, 1.1200027e+2
-0.236, 2.8816748e-8, -1.8198055e-8, 1.1233360e+2
-0.237, 3.0163307e-8, -1.9273017e-8, 1.1266694e+2
-0.238, 3.1552680e-8, -2.0434252e-8, 1.1300027e+2
-0.239, 3.2933109e-8, -2.1607228e-8, 1.1333361e+2
-0.240, 3.4435356e-8, -2.2832765e-8, 1.1366695e+2
-0.241, 3.6093212e-8, -2.4126201e-8, 1.1400028e+2
-0.242, 3.7752823e-8, -2.5459341e-8, 1.1433362e+2
-0.243, 3.9392148e-8, -2.6850794e-8, 1.1466695e+2
-0.244, 4.1187317e-8, -2.8427646e-8, 1.1500029e+2
-0.245, 4.2934399e-8, -2.9998194e-8, 1.1533363e+2
-0.246, 4.4739156e-8, -3.1525843e-8, 1.1566696e+2
-0.247, 4.6688978e-8, -3.3145991e-8, 1.1600030e+2
-0.248, 4.8634405e-8, -3.4776850e-8, 1.1633363e+2
-0.249, 5.0608190e-8, -3.6475122e-8, 1.1666697e+2
-0.250, 5.2687504e-8, -3.8186258e-8, 1.1700031e+2
-0.251, 5.4766648e-8, -3.9966572e-8, 1.1733364e+2
-0.252, 5.6821751e-8, -4.1777717e-8, 1.1766698e+2
-0.253, 5.8850738e-8, -4.3602448e-8, 1.1800031e+2
-0.254, 6.1002019e-8, -4.5465836e-8, 1.1833365e+2
-0.255, 6.3111358e-8, -4.7367248e-8, 1.1866698e+2
-0.256, 6.5225663e-8, -4.9285116e-8, 1.1900032e+2
-0.257, 6.7592381e-8, -5.1223118e-8, 1.1933366e+2
-0.258, 6.9641011e-8, -5.3111989e-8, 1.1966699e+2
-0.259, 7.1754670e-8, -5.5025865e-8, 1.2000033e+2
-0.260, 7.3939589e-8, -5.6956910e-8, 1.2033366e+2
-0.261, 7.6031831e-8, -5.8873905e-8, 1.2066700e+2
-0.262, 7.8104357e-8, -6.0769246e-8, 1.2100034e+2
-0.263, 8.0214654e-8, -6.2708203e-8, 1.2133367e+2
-0.264, 8.2239161e-8, -6.4643089e-8, 1.2166701e+2
-0.265, 8.4278291e-8, -6.6405022e-8, 1.2200034e+2
-0.266, 8.6186738e-8, -6.8246450e-8, 1.2233368e+2
-0.267, 8.8213163e-8, -6.9926827e-8, 1.2266702e+2
-0.268, 9.0020876e-8, -7.1662811e-8, 1.2300035e+2
-0.269, 9.2019505e-8, -7.3301734e-8, 1.2333369e+2
-0.270, 9.3830415e-8, -7.5000727e-8, 1.2366702e+2
-0.271, 9.5557446e-8, -7.6550904e-8, 1.2400036e+2
-0.272, 9.7207469e-8, -7.8134867e-8, 1.2433369e+2
-0.273, 9.8925639e-8, -7.9595658e-8, 1.2466703e+2
-0.274, 1.0041767e-7, -8.1080486e-8, 1.2500037e+2
-0.275, 1.0190713e-7, -8.2434077e-8, 1.2533370e+2
-0.276, 1.0354269e-7, -8.3784542e-8, 1.2566704e+2
-0.277, 1.0490140e-7, -8.5099394e-8, 1.2600037e+2
-0.278, 1.0628957e-7, -8.6356401e-8, 1.2633371e+2
-0.279, 1.0761880e-7, -8.7528981e-8, 1.2666705e+2
-0.280, 1.0883602e-7, -8.8729678e-8, 1.2700038e+2
-0.281, 1.1009519e-7, -8.9883159e-8, 1.2733372e+2
-0.282, 1.1127216e-7, -9.0969621e-8, 1.2766705e+2
-0.283, 1.1237987e-7, -9.2096109e-8, 1.2800038e+2
-0.284, 1.1342600e-7, -9.3088794e-8, 1.2833371e+2
-0.285, 1.1442012e-7, -9.3963251e-8, 1.2866704e+2
-0.286, 1.1566938e-7, -9.5124889e-8, 1.2900037e+2
-0.287, 1.1668219e-7, -9.5717922e-8, 1.2933369e+2
-0.288, 1.1745864e-7, -9.6471602e-8, 1.2966702e+2
-0.289, 1.1841578e-7, -9.7157780e-8, 1.3000035e+2
-0.290, 1.1916578e-7, -9.7904675e-8, 1.3033368e+2
-0.291, 1.2003457e-7, -9.8557543e-8, 1.3066701e+2
-0.292, 1.2081765e-7, -9.9144827e-8, 1.3100034e+2
-0.293, 1.2159913e-7, -9.9764314e-8, 1.3133366e+2
-0.294, 1.2236215e-7, -1.0049554e-7, 1.3166699e+2
-0.295, 1.2311662e-7, -1.0096245e-7, 1.3200032e+2
-0.296, 1.2367309e-7, -1.0148695e-7, 1.3233365e+2
-0.297, 1.2427675e-7, -1.0202560e-7, 1.3266698e+2
-0.298, 1.2485805e-7, -1.0256215e-7, 1.3300031e+2
-0.299, 1.2545547e-7, -1.0308657e-7, 1.3333363e+2
-0.300, 1.2597184e-7, -1.0356593e-7, 1.3366696e+2
-0.301, 1.2639536e-7, -1.0410754e-7, 1.3400029e+2
-0.302, 1.2682160e-7, -1.0455631e-7, 1.3433362e+2
-0.303, 1.2720216e-7, -1.0500915e-7, 1.3466695e+2
-0.304, 1.2756617e-7, -1.0542430e-7, 1.3500027e+2
-0.305, 1.2802573e-7, -1.0586021e-7, 1.3533360e+2
-0.306, 1.2842594e-7, -1.0616863e-7, 1.3566693e+2
-0.307, 1.2883613e-7, -1.0675153e-7, 1.3600026e+2
-0.308, 1.2935297e-7, -1.0684970e-7, 1.3633359e+2
-0.309, 1.2951833e-7, -1.0699476e-7, 1.3666692e+2
-0.310, 1.2992147e-7, -1.0727754e-7, 1.3700024e+2
-0.311, 1.3016623e-7, -1.0745607e-7, 1.3733357e+2
-0.312, 1.3042521e-7, -1.0778439e-7, 1.3766690e+2
-0.313, 1.3061573e-7, -1.0799359e-7, 1.3800023e+2
-0.314, 1.3090769e-7, -1.0833021e-7, 1.3833356e+2
-0.315, 1.3103238e-7, -1.0857761e-7, 1.3866689e+2
-0.316, 1.3136270e-7, -1.0886342e-7, 1.3900021e+2
-0.317, 1.3151559e-7, -1.0906567e-7, 1.3933354e+2
-0.318, 1.3190061e-7, -1.0934359e-7, 1.3966687e+2
-0.319, 1.3215391e-7, -1.0944743e-7, 1.4000020e+2
-0.320, 1.3239979e-7, -1.0974954e-7, 1.4033353e+2
-0.321, 1.3274847e-7, -1.0987624e-7, 1.4066685e+2
-0.322, 1.3291144e-7, -1.1005805e-7, 1.4100018e+2
-0.323, 1.3316482e-7, -1.1026446e-7, 1.4133351e+2
-0.324, 1.3362141e-7, -1.1112382e-7, 1.4166684e+2
-0.325, 1.3421725e-7, -1.1081843e-7, 1.4200017e+2
-0.326, 1.3403368e-7, -1.1086700e-7, 1.4233350e+2
-0.327, 1.3413474e-7, -1.1092077e-7, 1.4266682e+2
-0.328, 1.3423059e-7, -1.1111209e-7, 1.4300015e+2
-0.329, 1.3436440e-7, -1.1127216e-7, 1.4333348e+2
-0.330, 1.3446974e-7, -1.1137752e-7, 1.4366681e+2
-0.331, 1.3466411e-7, -1.1162788e-7, 1.4400014e+2
-0.332, 1.3489871e-7, -1.1186432e-7, 1.4433347e+2
-0.333, 1.3501278e-7, -1.1199740e-7, 1.4466679e+2
-0.334, 1.3510744e-7, -1.1216380e-7, 1.4500012e+2
-0.335, 1.3525690e-7, -1.1225270e-7, 1.4533345e+2
-0.336, 1.3535372e-7, -1.1234193e-7, 1.4566678e+2
-0.337, 1.3544727e-7, -1.1255769e-7, 1.4600011e+2
-0.338, 1.3557052e-7, -1.1271346e-7, 1.4633344e+2
-0.339, 1.3569506e-7, -1.1282106e-7, 1.4666676e+2
-0.340, 1.3576367e-7, -1.1293849e-7, 1.4700009e+2
-0.341, 1.3600068e-7, -1.1322142e-7, 1.4733342e+2
-0.342, 1.3591456e-7, -1.1333334e-7, 1.4766675e+2
-0.343, 1.3602441e-7, -1.1337168e-7, 1.4800008e+2
-0.344, 1.3594141e-7, -1.1339692e-7, 1.4833340e+2
-0.345, 1.3600355e-7, -1.1349142e-7, 1.4866673e+2
-0.346, 1.3627930e-7, -1.1391104e-7, 1.4900006e+2
-0.347, 1.3635048e-7, -1.1376566e-7, 1.4933339e+2
-0.348, 1.3636709e-7, -1.1380288e-7, 1.4966672e+2
-0.349, 1.3649330e-7, -1.1380415e-7, 1.5000005e+2
-0.350, 1.3659795e-7, -1.1383164e-7, 1.5033337e+2
-0.351, 1.3676610e-7, -1.1386391e-7, 1.5066670e+2
-0.352, 1.3680301e-7, -1.1394611e-7, 1.5100003e+2
-0.353, 1.3693050e-7, -1.1421699e-7, 1.5133336e+2
-0.354, 1.3720984e-7, -1.1417752e-7, 1.5166669e+2
-0.355, 1.3729155e-7, -1.1419326e-7, 1.5200002e+2
-0.356, 1.3736081e-7, -1.1421083e-7, 1.5233334e+2
-0.357, 1.3767036e-7, -1.1423152e-7, 1.5266667e+2
-0.358, 1.3777269e-7, -1.1424621e-7, 1.5300000e+2
-0.359, 1.3803613e-7, -1.1435917e-7, 1.5333333e+2
-0.360, 1.3811898e-7, -1.1433704e-7, 1.5366666e+2
-0.361, 1.3824686e-7, -1.1440503e-7, 1.5399998e+2
-0.362, 1.3829927e-7, -1.1451039e-7, 1.5433331e+2
-0.363, 1.3841229e-7, -1.1459051e-7, 1.5466664e+2
-0.364, 1.3856670e-7, -1.1466168e-7, 1.5499997e+2
-0.365, 1.3873613e-7, -1.1470194e-7, 1.5533330e+2
-0.366, 1.3879300e-7, -1.1474116e-7, 1.5566663e+2
-0.367, 1.3885403e-7, -1.1477256e-7, 1.5599995e+2
-0.368, 1.3913642e-7, -1.1478910e-7, 1.5633328e+2
-0.369, 1.3928275e-7, -1.1478182e-7, 1.5666661e+2
-0.370, 1.3944843e-7, -1.1487265e-7, 1.5699994e+2
-0.371, 1.3973856e-7, -1.1485898e-7, 1.5733327e+2
-0.372, 1.3987508e-7, -1.1482280e-7, 1.5766660e+2
-0.373, 1.4015211e-7, -1.1481553e-7, 1.5799992e+2
-0.374, 1.4032888e-7, -1.1479812e-7, 1.5833325e+2
-0.375, 1.4072231e-7, -1.1471096e-7, 1.5866658e+2
-0.376, 1.4091657e-7, -1.1466305e-7, 1.5899991e+2
-0.377, 1.4120238e-7, -1.1455201e-7, 1.5933324e+2
-0.378, 1.4132620e-7, -1.1441669e-7, 1.5966656e+2
-0.379, 1.4158535e-7, -1.1453427e-7, 1.5999989e+2
-0.380, 1.4174645e-7, -1.1457310e-7, 1.6033322e+2
-0.381, 1.4177665e-7, -1.1464083e-7, 1.6066655e+2
-0.382, 1.4181563e-7, -1.1471944e-7, 1.6099988e+2
-0.383, 1.4178561e-7, -1.1485970e-7, 1.6133321e+2
-0.384, 1.4173008e-7, -1.1515503e-7, 1.6166653e+2
-0.385, 1.4174350e-7, -1.1539691e-7, 1.6199986e+2
-0.386, 1.4171577e-7, -1.1560221e-7, 1.6233319e+2
-0.387, 1.4169517e-7, -1.1571180e-7, 1.6266652e+2
-0.388, 1.4168614e-7, -1.1592860e-7, 1.6299985e+2
-0.389, 1.4162200e-7, -1.1612511e-7, 1.6333318e+2
-0.390, 1.4158334e-7, -1.1628663e-7, 1.6366650e+2
-0.391, 1.4158653e-7, -1.1662900e-7, 1.6399983e+2
-0.392, 1.4158286e-7, -1.1672653e-7, 1.6433316e+2
-0.393, 1.4159141e-7, -1.1690706e-7, 1.6466649e+2
-0.394, 1.4163415e-7, -1.1714408e-7, 1.6499982e+2
-0.395, 1.4171539e-7, -1.1722403e-7, 1.6533315e+2
-0.396, 1.4190094e-7, -1.1737612e-7, 1.6566647e+2
-0.397, 1.4198865e-7, -1.1734369e-7, 1.6599980e+2
-0.398, 1.4223126e-7, -1.1730272e-7, 1.6633313e+2
-0.399, 1.4245931e-7, -1.1730391e-7, 1.6666646e+2
-0.400, 1.4281318e-7, -1.1725894e-7, 1.6699979e+2
-0.401, 1.4315660e-7, -1.1719864e-7, 1.6733311e+2
-0.402, 1.4330413e-7, -1.1718074e-7, 1.6766644e+2
-0.403, 1.4359618e-7, -1.1717243e-7, 1.6799977e+2
-0.404, 1.4383711e-7, -1.1721644e-7, 1.6833310e+2
-0.405, 1.4411853e-7, -1.1722427e-7, 1.6866643e+2
-0.406, 1.4421006e-7, -1.1718960e-7, 1.6899976e+2
-0.407, 1.4438054e-7, -1.1709847e-7, 1.6933308e+2
-0.408, 1.4458688e-7, -1.1711563e-7, 1.6966641e+2
-0.409, 1.4469087e-7, -1.1710557e-7, 1.6999974e+2
-0.410, 1.4477898e-7, -1.1708880e-7, 1.7033307e+2
-0.411, 1.4490496e-7, -1.1711476e-7, 1.7066640e+2
-0.412, 1.4497006e-7, -1.1719040e-7, 1.7099973e+2
-0.413, 1.4508269e-7, -1.1719599e-7, 1.7133305e+2
-0.414, 1.4499946e-7, -1.1739698e-7, 1.7166638e+2
-0.415, 1.4500185e-7, -1.1751752e-7, 1.7199971e+2
-0.416, 1.4481397e-7, -1.1766378e-7, 1.7233304e+2
-0.417, 1.4469830e-7, -1.1774405e-7, 1.7266637e+2
-0.418, 1.4458647e-7, -1.1794288e-7, 1.7299969e+2
-0.419, 1.4450634e-7, -1.1817917e-7, 1.7333302e+2
-0.420, 1.4449732e-7, -1.1829763e-7, 1.7366635e+2
-0.421, 1.4420472e-7, -1.1839852e-7, 1.7399968e+2
-0.422, 1.4415120e-7, -1.1858145e-7, 1.7433301e+2
-0.423, 1.4407428e-7, -1.1864065e-7, 1.7466634e+2
-0.424, 1.4416463e-7, -1.1872037e-7, 1.7499966e+2
-0.425, 1.4418156e-7, -1.1883556e-7, 1.7533299e+2
-0.426, 1.4420783e-7, -1.1880465e-7, 1.7566632e+2
-0.427, 1.4417293e-7, -1.1882205e-7, 1.7599965e+2
-0.428, 1.4430825e-7, -1.1892446e-7, 1.7633298e+2
-0.429, 1.4429627e-7, -1.1877413e-7, 1.7666631e+2
-0.430, 1.4445179e-7, -1.1875991e-7, 1.7699963e+2
-0.431, 1.4448638e-7, -1.1883867e-7, 1.7733296e+2
-0.432, 1.4448854e-7, -1.1897719e-7, 1.7766629e+2
-0.433, 1.4455412e-7, -1.1907616e-7, 1.7799962e+2
-0.434, 1.4459167e-7, -1.1910547e-7, 1.7833295e+2
-0.435, 1.4461196e-7, -1.1914214e-7, 1.7866628e+2
-0.436, 1.4496997e-7, -1.1914454e-7, 1.7899960e+2
-0.437, 1.4494123e-7, -1.1904405e-7, 1.7933293e+2
-0.438, 1.4508086e-7, -1.1891568e-7, 1.7966626e+2
-0.439, 1.4520364e-7, -1.1877324e-7, 1.7999959e+2
-0.440, 1.4548849e-7, -1.1910899e-7, 1.8033292e+2
-0.441, 1.4567573e-7, -1.1884059e-7, 1.8066624e+2
-0.442, 1.4568715e-7, -1.1875112e-7, 1.8099957e+2
-0.443, 1.4569483e-7, -1.1879067e-7, 1.8133290e+2
-0.444, 1.4573853e-7, -1.1885665e-7, 1.8166623e+2
-0.445, 1.4571432e-7, -1.1893860e-7, 1.8199956e+2
-0.446, 1.4580259e-7, -1.1898669e-7, 1.8233289e+2
-0.447, 1.4593901e-7, -1.1906210e-7, 1.8266621e+2
-0.448, 1.4609201e-7, -1.1901257e-7, 1.8299954e+2
-0.449, 1.4622827e-7, -1.1893142e-7, 1.8333287e+2
-0.450, 1.4656042e-7, -1.1879873e-7, 1.8366620e+2
-0.451, 1.4667991e-7, -1.1870295e-7, 1.8399953e+2
-0.452, 1.4705176e-7, -1.1861164e-7, 1.8433286e+2
-0.453, 1.4720554e-7, -1.1855013e-7, 1.8466618e+2
-0.454, 1.4760319e-7, -1.1857778e-7, 1.8499951e+2
-0.455, 1.4789451e-7, -1.1817183e-7, 1.8533284e+2
-0.456, 1.4807250e-7, -1.1803811e-7, 1.8566617e+2
-0.457, 1.4813511e-7, -1.1797875e-7, 1.8599950e+2
-0.458, 1.4820284e-7, -1.1805495e-7, 1.8633282e+2
-0.459, 1.4820085e-7, -1.1805831e-7, 1.8666615e+2
-0.460, 1.4836014e-7, -1.1812868e-7, 1.8699948e+2
-0.461, 1.4815717e-7, -1.1817670e-7, 1.8733281e+2
-0.462, 1.4810668e-7, -1.1822159e-7, 1.8766614e+2
-0.463, 1.4807928e-7, -1.1828055e-7, 1.8799947e+2
-0.464, 1.4807785e-7, -1.1836155e-7, 1.8833279e+2
-0.465, 1.4807569e-7, -1.1836394e-7, 1.8866612e+2
-0.466, 1.4809494e-7, -1.1857163e-7, 1.8899945e+2
-0.467, 1.4818265e-7, -1.1841139e-7, 1.8933278e+2
-0.468, 1.4822346e-7, -1.1837616e-7, 1.8966611e+2
-0.469, 1.4822842e-7, -1.1834852e-7, 1.8999944e+2
-0.470, 1.4828026e-7, -1.1837161e-7, 1.9033276e+2
-0.471, 1.4835743e-7, -1.1846427e-7, 1.9066609e+2
-0.472, 1.4865554e-7, -1.1855734e-7, 1.9099942e+2
-0.473, 1.4858493e-7, -1.1835995e-7, 1.9133275e+2
-0.474, 1.4859323e-7, -1.1829212e-7, 1.9166608e+2
-0.475, 1.4868094e-7, -1.1824379e-7, 1.9199940e+2
-0.476, 1.4879997e-7, -1.1825529e-7, 1.9233273e+2
-0.477, 1.4896725e-7, -1.1820450e-7, 1.9266606e+2
-0.478, 1.4907484e-7, -1.1819507e-7, 1.9299939e+2
-0.479, 1.4919475e-7, -1.1816112e-7, 1.9333272e+2
-0.480, 1.4938175e-7, -1.1812166e-7, 1.9366605e+2
-0.481, 1.4959957e-7, -1.1815290e-7, 1.9399937e+2
-0.482, 1.4961108e-7, -1.1802484e-7, 1.9433270e+2
-0.483, 1.4976014e-7, -1.1797867e-7, 1.9466603e+2
-0.484, 1.4996631e-7, -1.1803371e-7, 1.9499936e+2
-0.485, 1.5005762e-7, -1.1790254e-7, 1.9533269e+2
-0.486, 1.5011226e-7, -1.1783328e-7, 1.9566602e+2
-0.487, 1.5029224e-7, -1.1777043e-7, 1.9599934e+2
-0.488, 1.5042092e-7, -1.1770876e-7, 1.9633267e+2
-0.489, 1.5054154e-7, -1.1769733e-7, 1.9666600e+2
-0.490, 1.5097410e-7, -1.1766203e-7, 1.9699933e+2
-0.491, 1.5107442e-7, -1.1750673e-7, 1.9733266e+2
-0.492, 1.5114888e-7, -1.1735695e-7, 1.9766599e+2
-0.493, 1.5134563e-7, -1.1726861e-7, 1.9799931e+2
-0.494, 1.5148566e-7, -1.1725575e-7, 1.9833264e+2
-0.495, 1.5154086e-7, -1.1729130e-7, 1.9866597e+2
-0.496, 1.5155227e-7, -1.1725727e-7, 1.9899930e+2
-0.497, 1.5154804e-7, -1.1730550e-7, 1.9933263e+2
-0.498, 1.5157728e-7, -1.1738763e-7, 1.9966595e+2
-0.499, 1.5136175e-7, -1.1736350e-7, 1.9999928e+2
-0.500, 1.4924650e-7, -1.1729337e-7, 2.0033261e+2
-0.499, 1.4836996e-7, -1.1723602e-7, 2.0066594e+2
-0.498, 1.4760725e-7, -1.1726836e-7, 2.0099927e+2
-0.497, 1.4699745e-7, -1.1729825e-7, 2.0133260e+2
-0.496, 1.4622572e-7, -1.1737797e-7, 2.0166592e+2
-0.495, 1.4560224e-7, -1.1748229e-7, 2.0199925e+2
-0.494, 1.4503196e-7, -1.1755890e-7, 2.0233258e+2
-0.493, 1.4456914e-7, -1.1760410e-7, 2.0266591e+2
-0.492, 1.4398792e-7, -1.1764470e-7, 2.0299924e+2
-0.491, 1.4359682e-7, -1.1762456e-7, 2.0333257e+2
-0.490, 1.4303286e-7, -1.1761042e-7, 2.0366589e+2
-0.489, 1.4259224e-7, -1.1758461e-7, 2.0399922e+2
-0.488, 1.4218659e-7, -1.1752646e-7, 2.0433255e+2
-0.487, 1.4183129e-7, -1.1757982e-7, 2.0466588e+2
-0.486, 1.4163477e-7, -1.1741886e-7, 2.0499921e+2
-0.485, 1.4130799e-7, -1.1728865e-7, 2.0533253e+2
-0.484, 1.4105524e-7, -1.1719592e-7, 2.0566586e+2
-0.483, 1.4079714e-7, -1.1707650e-7, 2.0599919e+2
-0.482, 1.4074827e-7, -1.1684699e-7, 2.0633252e+2
-0.481, 1.4077246e-7, -1.1666558e-7, 2.0666585e+2
-0.480, 1.4083085e-7, -1.1652371e-7, 2.0699918e+2
-0.479, 1.4096737e-7, -1.1620251e-7, 2.0733250e+2
-0.478, 1.4117579e-7, -1.1593363e-7, 2.0766583e+2
-0.477, 1.4126908e-7, -1.1567857e-7, 2.0799916e+2
-0.476, 1.4130775e-7, -1.1538613e-7, 2.0833249e+2
-0.475, 1.4152191e-7, -1.1523690e-7, 2.0866582e+2
-0.474, 1.4146352e-7, -1.1508242e-7, 2.0899915e+2
-0.473, 1.4133242e-7, -1.1488271e-7, 2.0933247e+2
-0.472, 1.4127365e-7, -1.1478326e-7, 2.0966580e+2
-0.471, 1.4129928e-7, -1.1465441e-7, 2.0999913e+2
-0.470, 1.4127851e-7, -1.1447643e-7, 2.1033246e+2
-0.469, 1.4126573e-7, -1.1429958e-7, 2.1066579e+2
-0.468, 1.4122803e-7, -1.1423376e-7, 2.1099911e+2
-0.467, 1.4137852e-7, -1.1400194e-7, 2.1133244e+2
-0.466, 1.4120582e-7, -1.1382230e-7, 2.1166577e+2
-0.465, 1.4112609e-7, -1.1371269e-7, 2.1199910e+2
-0.464, 1.4109318e-7, -1.1358848e-7, 2.1233243e+2
-0.463, 1.4107904e-7, -1.1340419e-7, 2.1266576e+2
-0.462, 1.4107441e-7, -1.1327462e-7, 2.1299908e+2
-0.461, 1.4095244e-7, -1.1313955e-7, 2.1333241e+2
-0.460, 1.4088789e-7, -1.1288656e-7, 2.1366574e+2
-0.459, 1.4090243e-7, -1.1279094e-7, 2.1399907e+2
-0.458, 1.4103311e-7, -1.1280277e-7, 2.1433240e+2
-0.457, 1.4098703e-7, -1.1260737e-7, 2.1466573e+2
-0.456, 1.4078117e-7, -1.1238907e-7, 2.1499905e+2
-0.455, 1.4076910e-7, -1.1229928e-7, 2.1533238e+2
-0.454, 1.4077303e-7, -1.1219878e-7, 2.1566571e+2
-0.453, 1.4078276e-7, -1.1199413e-7, 2.1599904e+2
-0.452, 1.4086146e-7, -1.1189596e-7, 2.1633237e+2
-0.451, 1.4079698e-7, -1.1178413e-7, 2.1666570e+2
-0.450, 1.4076799e-7, -1.1175648e-7, 2.1699902e+2
-0.449, 1.4071543e-7, -1.1182382e-7, 2.1733235e+2
-0.448, 1.4072941e-7, -1.1172277e-7, 2.1766568e+2
-0.447, 1.4059448e-7, -1.1154695e-7, 2.1799901e+2
-0.446, 1.4039391e-7, -1.1138575e-7, 2.1833234e+2
-0.445, 1.4038440e-7, -1.1129445e-7, 2.1866566e+2
-0.444, 1.4042162e-7, -1.1119963e-7, 2.1899899e+2
-0.443, 1.4031467e-7, -1.1107765e-7, 2.1933232e+2
-0.442, 1.4025052e-7, -1.1098770e-7, 2.1966565e+2
-0.441, 1.4044696e-7, -1.1114563e-7, 2.1999898e+2
-0.440, 1.4021361e-7, -1.1096223e-7, 2.2033231e+2
-0.439, 1.3982738e-7, -1.1093259e-7, 2.2066563e+2
-0.438, 1.3974167e-7, -1.1109955e-7, 2.2099896e+2
-0.437, 1.3948869e-7, -1.1099202e-7, 2.2133229e+2
-0.436, 1.3932598e-7, -1.1101088e-7, 2.2166562e+2
-0.435, 1.3928587e-7, -1.1109994e-7, 2.2199895e+2
-0.434, 1.3924696e-7, -1.1101271e-7, 2.2233228e+2
-0.433, 1.3924506e-7, -1.1090287e-7, 2.2266560e+2
-0.432, 1.3920688e-7, -1.1079759e-7, 2.2299893e+2
-0.431, 1.3915096e-7, -1.1072090e-7, 2.2333226e+2
-0.430, 1.3913825e-7, -1.1059677e-7, 2.2366559e+2
-0.429, 1.3909512e-7, -1.1046329e-7, 2.2399892e+2
-0.428, 1.3918347e-7, -1.1032101e-7, 2.2433224e+2
-0.427, 1.3920416e-7, -1.1024944e-7, 2.2466557e+2
-0.426, 1.3917500e-7, -1.1002753e-7, 2.2499890e+2
-0.425, 1.3917260e-7, -1.0986178e-7, 2.2533223e+2
-0.424, 1.3915223e-7, -1.0982319e-7, 2.2566556e+2
-0.423, 1.3901227e-7, -1.0976463e-7, 2.2599889e+2
-0.422, 1.3882224e-7, -1.0974212e-7, 2.2633221e+2
-0.421, 1.3873350e-7, -1.0976608e-7, 2.2666554e+2
-0.420, 1.3848755e-7, -1.0977374e-7, 2.2699887e+2
-0.419, 1.3838418e-7, -1.0979060e-7, 2.2733220e+2
-0.418, 1.3809253e-7, -1.0981641e-7, 2.2766553e+2
-0.417, 1.3787150e-7, -1.0980115e-7, 2.2799886e+2
-0.416, 1.3763400e-7, -1.0980011e-7, 2.2833218e+2
-0.415, 1.3731449e-7, -1.0980418e-7, 2.2866551e+2
-0.414, 1.3730138e-7, -1.1007458e-7, 2.2899884e+2
-0.413, 1.3700495e-7, -1.0988447e-7, 2.2933217e+2
-0.412, 1.3658244e-7, -1.0983972e-7, 2.2966550e+2
-0.411, 1.3636605e-7, -1.0981313e-7, 2.2999883e+2
-0.410, 1.3606851e-7, -1.0980411e-7, 2.3033215e+2
-0.409, 1.3581911e-7, -1.0980873e-7, 2.3066548e+2
-0.408, 1.3552402e-7, -1.0984771e-7, 2.3099881e+2
-0.407, 1.3528248e-7, -1.0987601e-7, 2.3133214e+2
-0.406, 1.3498699e-7, -1.0983103e-7, 2.3166547e+2
-0.405, 1.3480758e-7, -1.0980674e-7, 2.3199879e+2
-0.404, 1.3466210e-7, -1.0975609e-7, 2.3233212e+2
-0.403, 1.3448181e-7, -1.0968324e-7, 2.3266545e+2
-0.402, 1.3433994e-7, -1.0958363e-7, 2.3299878e+2
-0.401, 1.3415885e-7, -1.0950910e-7, 2.3333211e+2
-0.400, 1.3407050e-7, -1.0981041e-7, 2.3366544e+2
-0.399, 1.3389892e-7, -1.0960001e-7, 2.3399876e+2
-0.398, 1.3368883e-7, -1.0945151e-7, 2.3433209e+2
-0.397, 1.3342969e-7, -1.0942276e-7, 2.3466542e+2
-0.396, 1.3337042e-7, -1.0960353e-7, 2.3499875e+2
-0.395, 1.3315722e-7, -1.0946501e-7, 2.3533208e+2
-0.394, 1.3289768e-7, -1.0943338e-7, 2.3566541e+2
-0.393, 1.3265564e-7, -1.0942315e-7, 2.3599873e+2
-0.392, 1.3239851e-7, -1.0942091e-7, 2.3633206e+2
-0.391, 1.3211198e-7, -1.0947053e-7, 2.3666539e+2
-0.390, 1.3181226e-7, -1.0958922e-7, 2.3699872e+2
-0.389, 1.3138578e-7, -1.0974316e-7, 2.3733205e+2
-0.388, 1.3098069e-7, -1.0979412e-7, 2.3766537e+2
-0.387, 1.3069169e-7, -1.0985418e-7, 2.3799870e+2
-0.386, 1.3043366e-7, -1.0984956e-7, 2.3833203e+2
-0.385, 1.3010153e-7, -1.0983390e-7, 2.3866536e+2
-0.384, 1.2999153e-7, -1.0979149e-7, 2.3899869e+2
-0.383, 1.2984975e-7, -1.0974620e-7, 2.3933202e+2
-0.382, 1.2973183e-7, -1.0966718e-7, 2.3966534e+2
-0.381, 1.2979622e-7, -1.0953347e-7, 2.3999867e+2
-0.380, 1.2944737e-7, -1.0948626e-7, 2.4033200e+2
-0.379, 1.2920742e-7, -1.0942123e-7, 2.4066533e+2
-0.378, 1.2901282e-7, -1.0937681e-7, 2.4099866e+2
-0.377, 1.2902896e-7, -1.0931244e-7, 2.4133199e+2
-0.376, 1.2895092e-7, -1.0917073e-7, 2.4166531e+2
-0.375, 1.2892936e-7, -1.0900744e-7, 2.4199864e+2
-0.374, 1.2892903e-7, -1.0888562e-7, 2.4233197e+2
-0.373, 1.2890611e-7, -1.0880527e-7, 2.4266530e+2
-0.372, 1.2884092e-7, -1.0867929e-7, 2.4299863e+2
-0.371, 1.2871271e-7, -1.0855197e-7, 2.4333195e+2
-0.370, 1.2876255e-7, -1.0865868e-7, 2.4366528e+2
-0.369, 1.2853970e-7, -1.0859127e-7, 2.4399861e+2
-0.368, 1.2843743e-7, -1.0859838e-7, 2.4433194e+2
-0.367, 1.2821961e-7, -1.0862058e-7, 2.4466527e+2
-0.366, 1.2803908e-7, -1.0871572e-7, 2.4499860e+2
-0.365, 1.2789152e-7, -1.0861243e-7, 2.4533192e+2
-0.364, 1.2753989e-7, -1.0873546e-7, 2.4566525e+2
-0.363, 1.2742368e-7, -1.0875127e-7, 2.4599858e+2
-0.362, 1.2707196e-7, -1.0880982e-7, 2.4633191e+2
-0.361, 1.2696027e-7, -1.0887085e-7, 2.4666524e+2
-0.360, 1.2654090e-7, -1.0892764e-7, 2.4699857e+2
-0.359, 1.2628863e-7, -1.0894258e-7, 2.4733189e+2
-0.358, 1.2599659e-7, -1.0899866e-7, 2.4766522e+2
-0.357, 1.2600283e-7, -1.0920579e-7, 2.4799855e+2
-0.356, 1.2553288e-7, -1.0912760e-7, 2.4833188e+2
-0.355, 1.2523996e-7, -1.0911217e-7, 2.4866521e+2
-0.354, 1.2503865e-7, -1.0911585e-7, 2.4899854e+2
-0.353, 1.2484286e-7, -1.0913399e-7, 2.4933186e+2
-0.352, 1.2459172e-7, -1.0916298e-7, 2.4966519e+2
-0.351, 1.2446750e-7, -1.0923247e-7, 2.4999852e+2
-0.350, 1.2428002e-7, -1.0924470e-7, 2.5033185e+2
-0.349, 1.2406937e-7, -1.0923863e-7, 2.5066518e+2
-0.348, 1.2376358e-7, -1.0918726e-7, 2.5099850e+2
-0.347, 1.2355167e-7, -1.0926818e-7, 2.5133183e+2
-0.346, 1.2344789e-7, -1.0924254e-7, 2.5166516e+2
-0.345, 1.2314436e-7, -1.0917752e-7, 2.5199849e+2
-0.344, 1.2300535e-7, -1.0916665e-7, 2.5233182e+2
-0.343, 1.2281444e-7, -1.0910578e-7, 2.5266515e+2
-0.342, 1.2260283e-7, -1.0914189e-7, 2.5299847e+2
-0.341, 1.2232709e-7, -1.0922369e-7, 2.5333180e+2
-0.340, 1.2208872e-7, -1.0923591e-7, 2.5366513e+2
-0.339, 1.2178030e-7, -1.0924646e-7, 2.5399846e+2
-0.338, 1.2158858e-7, -1.0925205e-7, 2.5433179e+2
-0.337, 1.2145453e-7, -1.0922248e-7, 2.5466512e+2
-0.336, 1.2118231e-7, -1.0914213e-7, 2.5499844e+2
-0.335, 1.2107184e-7, -1.0913845e-7, 2.5533177e+2
-0.334, 1.2104131e-7, -1.0918151e-7, 2.5566510e+2
-0.333, 1.2082940e-7, -1.0902343e-7, 2.5599843e+2
-0.332, 1.2066259e-7, -1.0896967e-7, 2.5633176e+2
-0.331, 1.2066043e-7, -1.0885672e-7, 2.5666510e+2
-0.330, 1.2049676e-7, -1.0871253e-7, 2.5699844e+2
-0.329, 1.2030129e-7, -1.0852089e-7, 2.5733179e+2
-0.328, 1.2030017e-7, -1.0844325e-7, 2.5766513e+2
-0.327, 1.2013267e-7, -1.0832350e-7, 2.5799847e+2
-0.326, 1.2006669e-7, -1.0812812e-7, 2.5833182e+2
-0.325, 1.1990620e-7, -1.0793281e-7, 2.5866516e+2
-0.324, 1.1973886e-7, -1.0783974e-7, 2.5899850e+2
-0.323, 1.1968334e-7, -1.0768789e-7, 2.5933185e+2
-0.322, 1.1967639e-7, -1.0750560e-7, 2.5966519e+2
-0.321, 1.1956288e-7, -1.0736453e-7, 2.5999854e+2
-0.320, 1.1937357e-7, -1.0720788e-7, 2.6033188e+2
-0.319, 1.1915859e-7, -1.0697383e-7, 2.6066522e+2
-0.318, 1.1900027e-7, -1.0688859e-7, 2.6099857e+2
-0.317, 1.1874849e-7, -1.0678708e-7, 2.6133191e+2
-0.316, 1.1856284e-7, -1.0656763e-7, 2.6166525e+2
-0.315, 1.1829876e-7, -1.0663010e-7, 2.6199860e+2
-0.314, 1.1826488e-7, -1.0638160e-7, 2.6233194e+2
-0.313, 1.1789535e-7, -1.0602037e-7, 2.6266528e+2
-0.312, 1.1766553e-7, -1.0582978e-7, 2.6299863e+2
-0.311, 1.1740831e-7, -1.0547621e-7, 2.6333197e+2
-0.310, 1.1719879e-7, -1.0523227e-7, 2.6366531e+2
-0.309, 1.1699981e-7, -1.0494852e-7, 2.6399866e+2
-0.308, 1.1671846e-7, -1.0464984e-7, 2.6433200e+2
-0.307, 1.1662372e-7, -1.0440181e-7, 2.6466534e+2
-0.306, 1.1627904e-7, -1.0397717e-7, 2.6499869e+2
-0.305, 1.1611344e-7, -1.0359310e-7, 2.6533203e+2
-0.304, 1.1577961e-7, -1.0333053e-7, 2.6566537e+2
-0.303, 1.1587452e-7, -1.0300446e-7, 2.6599872e+2
-0.302, 1.1530761e-7, -1.0250280e-7, 2.6633206e+2
-0.301, 1.1483367e-7, -1.0201513e-7, 2.6666541e+2
-0.300, 1.1457996e-7, -1.0152018e-7, 2.6699875e+2
-0.299, 1.1421794e-7, -1.0104601e-7, 2.6733209e+2
-0.298, 1.1378411e-7, -1.0057710e-7, 2.6766544e+2
-0.297, 1.1328118e-7, -1.0009638e-7, 2.6799878e+2
-0.296, 1.1276243e-7, -9.9611256e-8, 2.6833212e+2
-0.295, 1.1221228e-7, -9.9125181e-8, 2.6866547e+2
-0.294, 1.1157707e-7, -9.8632476e-8, 2.6899881e+2
-0.293, 1.1085813e-7, -9.8080093e-8, 2.6933215e+2
-0.292, 1.1030991e-7, -9.7579317e-8, 2.6966550e+2
-0.291, 1.0943744e-7, -9.7041159e-8, 2.6999884e+2
-0.290, 1.0856779e-7, -9.6225648e-8, 2.7033218e+2
-0.289, 1.0773933e-7, -9.5551059e-8, 2.7066553e+2
-0.288, 1.0692055e-7, -9.4758953e-8, 2.7099887e+2
-0.287, 1.0607813e-7, -9.4088904e-8, 2.7133221e+2
-0.286, 1.0539473e-7, -9.3251515e-8, 2.7166556e+2
-0.285, 1.0436107e-7, -9.2346696e-8, 2.7199890e+2
-0.284, 1.0331911e-7, -9.1418798e-8, 2.7233224e+2
-0.283, 1.0227433e-7, -9.0327624e-8, 2.7266559e+2
-0.282, 1.0111885e-7, -8.9356746e-8, 2.7299893e+2
-0.281, 9.9999724e-8, -8.8337622e-8, 2.7333228e+2
-0.280, 9.8677127e-8, -8.7294772e-8, 2.7366562e+2
-0.279, 9.7430579e-8, -8.6164292e-8, 2.7399896e+2
-0.278, 9.6014688e-8, -8.5008971e-8, 2.7433231e+2
-0.277, 9.4543353e-8, -8.3798845e-8, 2.7466565e+2
-0.276, 9.3039588e-8, -8.2578183e-8, 2.7499899e+2
-0.275, 9.1424312e-8, -8.1329240e-8, 2.7533234e+2
-0.274, 8.9522096e-8, -8.0177351e-8, 2.7566568e+2
-0.273, 8.7911211e-8, -7.8755150e-8, 2.7599902e+2
-0.272, 8.6020584e-8, -7.7445016e-8, 2.7633237e+2
-0.271, 8.4111740e-8, -7.5916240e-8, 2.7666571e+2
-0.270, 8.2184769e-8, -7.4411837e-8, 2.7699905e+2
-0.269, 8.0321620e-8, -7.2805911e-8, 2.7733240e+2
-0.268, 7.8345828e-8, -7.1070247e-8, 2.7766574e+2
-0.267, 7.6427405e-8, -6.9337709e-8, 2.7799908e+2
-0.266, 7.4430531e-8, -6.7529193e-8, 2.7833243e+2
-0.265, 7.2377347e-8, -6.5695602e-8, 2.7866577e+2
-0.264, 7.0286852e-8, -6.3850344e-8, 2.7899911e+2
-0.263, 6.8216572e-8, -6.2038161e-8, 2.7933246e+2
-0.262, 6.6109784e-8, -6.0106629e-8, 2.7966580e+2
-0.261, 6.3964578e-8, -5.8206094e-8, 2.7999915e+2
-0.260, 6.1843572e-8, -5.6293263e-8, 2.8033249e+2
-0.259, 5.9696681e-8, -5.4376109e-8, 2.8066583e+2
-0.258, 5.7514882e-8, -5.2489632e-8, 2.8099918e+2
-0.257, 5.5317908e-8, -5.0621374e-8, 2.8133252e+2
-0.256, 5.3158242e-8, -4.8758700e-8, 2.8166586e+2
-0.255, 5.0857260e-8, -4.6887006e-8, 2.8199921e+2
-0.254, 4.8737853e-8, -4.5064034e-8, 2.8233255e+2
-0.253, 4.6597275e-8, -4.3287155e-8, 2.8266589e+2
-0.252, 4.4456698e-8, -4.1524736e-8, 2.8299924e+2
-0.251, 4.2367802e-8, -3.9749935e-8, 2.8333258e+2
-0.250, 4.0319488e-8, -3.8055735e-8, 2.8366592e+2
-0.249, 3.8334758e-8, -3.6317356e-8, 2.8399927e+2
-0.248, 3.6397878e-8, -3.4672684e-8, 2.8433261e+2
-0.247, 3.4513320e-8, -3.3074659e-8, 2.8466595e+2
-0.246, 3.2736281e-8, -3.1524962e-8, 2.8499930e+2
-0.245, 3.0919782e-8, -3.0020079e-8, 2.8533264e+2
-0.244, 2.9254577e-8, -2.8513281e-8, 2.8566599e+2
-0.243, 2.7509014e-8, -2.7020938e-8, 2.8599933e+2
-0.242, 2.5870490e-8, -2.5662398e-8, 2.8633267e+2
-0.241, 2.4352984e-8, -2.4330697e-8, 2.8666602e+2
-0.240, 2.2907136e-8, -2.3068335e-8, 2.8699936e+2
-0.239, 2.1482613e-8, -2.1859732e-8, 2.8733270e+2
-0.238, 2.0162735e-8, -2.0680764e-8, 2.8766605e+2
-0.237, 1.8878325e-8, -1.9602528e-8, 2.8799939e+2
-0.236, 1.7698879e-8, -1.8561035e-8, 2.8833273e+2
-0.235, 1.6554258e-8, -1.7519785e-8, 2.8866608e+2
-0.234, 1.5439117e-8, -1.6550025e-8, 2.8899942e+2
-0.233, 1.4418156e-8, -1.5633310e-8, 2.8933276e+2
-0.232, 1.3431223e-8, -1.4782174e-8, 2.8966611e+2
-0.231, 1.2510512e-8, -1.3908672e-8, 2.8999945e+2
-0.230, 1.1577659e-8, -1.3164978e-8, 2.9033279e+2
-0.229, 1.0798177e-8, -1.2402433e-8, 2.9066614e+2
-0.228, 1.0042501e-8, -1.1704909e-8, 2.9099948e+2
-0.227, 9.2928953e-9, -1.1009942e-8, 2.9133282e+2
-0.226, 8.5384171e-9, -1.0424014e-8, 2.9166617e+2
-0.225, 7.9409856e-9, -9.8543804e-9, 2.9199951e+2
-0.224, 7.2995388e-9, -9.3079926e-9, 2.9233286e+2
-0.223, 6.6647226e-9, -8.7758236e-9, 2.9266620e+2
-0.222, 6.1379057e-9, -8.2944593e-9, 2.9299954e+2
-0.221, 5.6150031e-9, -7.8222016e-9, 2.9333289e+2
-0.220, 5.1164641e-9, -7.3892452e-9, 2.9366623e+2
-0.219, 4.6773572e-9, -6.9578068e-9, 2.9399957e+2
-0.218, 4.2462385e-9, -6.5506520e-9, 2.9433292e+2
-0.217, 3.8699177e-9, -6.1760890e-9, 2.9466626e+2
-0.216, 3.5545464e-9, -5.8723009e-9, 2.9499960e+2
-0.215, 3.1485901e-9, -5.5219416e-9, 2.9533295e+2
-0.214, 2.8376124e-9, -5.1877982e-9, 2.9566629e+2
-0.213, 2.5648179e-9, -4.9653290e-9, 2.9599963e+2
-0.212, 2.2008790e-9, -4.6271915e-9, 2.9633298e+2
-0.211, 1.9916699e-9, -4.4649529e-9, 2.9666632e+2
-0.210, 1.6784556e-9, -4.1508601e-9, 2.9699966e+2
-0.209, 1.5262021e-9, -3.9985264e-9, 2.9733301e+2
-0.208, 1.2471769e-9, -3.7395513e-9, 2.9766635e+2
-0.207, 1.0331751e-9, -3.5701235e-9, 2.9799969e+2
-0.206, 7.9928286e-10, -3.4622036e-9, 2.9833304e+2
-0.205, 6.8161776e-10, -3.2188059e-9, 2.9866638e+2
-0.204, 4.8247378e-10, -3.0688687e-9, 2.9899973e+2
-0.203, 2.8796301e-10, -2.9927418e-9, 2.9933307e+2
-0.202, 1.6710268e-10, -2.8035032e-9, 2.9966641e+2
-0.201, 2.9706956e-11, -2.6483737e-9, 2.9999976e+2
-0.200, -1.5969147e-10, -2.5708091e-9, 3.0033310e+2
-0.199, -2.8055178e-10, -2.4994751e-9, 3.0066644e+2
-0.198, -3.4293904e-10, -2.3699076e-9, 3.0099979e+2
-0.197, -4.8784360e-10, -2.2246036e-9, 3.0133313e+2
-0.196, -5.8753535e-10, -2.1471189e-9, 3.0166647e+2
-0.195, -7.5177120e-10, -2.0884861e-9, 3.0199982e+2
-0.194, -8.1527679e-10, -2.0409567e-9, 3.0233316e+2
-0.193, -8.8221730e-10, -1.9951050e-9, 3.0266650e+2
-0.192, -9.6521391e-10, -1.9197770e-9, 3.0299985e+2
-0.191, -1.1571685e-9, -1.8214431e-9, 3.0333319e+2
-0.190, -1.2176387e-9, -1.7287810e-9, 3.0366653e+2
-0.189, -1.2801057e-9, -1.6721452e-9, 3.0399988e+2
-0.188, -1.3140553e-9, -1.6410713e-9, 3.0433322e+2
-0.187, -1.3557533e-9, -1.6002519e-9, 3.0466656e+2
-0.186, -1.4238121e-9, -1.5667817e-9, 3.0499991e+2
-0.185, -1.4823650e-9, -1.5364269e-9, 3.0533325e+2
-0.184, -1.5551368e-9, -1.4989626e-9, 3.0566660e+2
-0.183, -1.6136099e-9, -1.4523918e-9, 3.0599994e+2
-0.182, -1.6712841e-9, -1.3840934e-9, 3.0633328e+2
-0.181, -1.7295976e-9, -1.3153955e-9, 3.0666663e+2
-0.180, -1.7639464e-9, -1.2657893e-9, 3.0699997e+2
-0.179, -1.7689789e-9, -1.2164227e-9, 3.0733331e+2
-0.178, -1.8165082e-9, -1.1783193e-9, 3.0766666e+2
-0.177, -1.8301679e-9, -1.1517987e-9, 3.0800000e+2
-0.176, -1.8474223e-9, -1.1225623e-9, 3.0833334e+2
-0.175, -1.8701884e-9, -1.1041097e-9, 3.0866669e+2
-0.174, -1.9005433e-9, -1.0858967e-9, 3.0900003e+2
-0.173, -1.8922357e-9, -1.0770299e-9, 3.0933337e+2
-0.172, -1.9737945e-9, -1.0568199e-9, 3.0966672e+2
-0.171, -1.9728359e-9, -1.0491514e-9, 3.1000006e+2
-0.170, -2.0726876e-9, -1.0442786e-9, 3.1033340e+2
-0.169, -2.0935365e-9, -1.0282224e-9, 3.1066675e+2
-0.168, -2.0975306e-9, -1.0223112e-9, 3.1100009e+2
-0.167, -2.1983406e-9, -1.0066544e-9, 3.1133344e+2
-0.166, -2.1662283e-9, -9.9123743e-10, 3.1166678e+2
-0.165, -2.2254203e-9, -9.6887076e-10, 3.1200012e+2
-0.164, -2.2207871e-9, -9.4123176e-10, 3.1233347e+2
-0.163, -2.2271778e-9, -9.1463132e-10, 3.1266681e+2
-0.162, -2.2531390e-9, -9.0001301e-10, 3.1300015e+2
-0.161, -2.2555355e-9, -8.6822038e-10, 3.1333350e+2
-0.160, -2.2527398e-9, -8.3802520e-10, 3.1366684e+2
-0.159, -2.2877276e-9, -8.2580337e-10, 3.1400018e+2
-0.158, -2.2636835e-9, -7.9329171e-10, 3.1433353e+2
-0.157, -2.2738285e-9, -7.7563794e-10, 3.1466687e+2
-0.156, -2.3092956e-9, -7.5790429e-10, 3.1500021e+2
-0.155, -2.2851716e-9, -7.3849316e-10, 3.1533356e+2
-0.154, -2.2840532e-9, -7.2834827e-10, 3.1566690e+2
-0.153, -2.2981121e-9, -7.2075956e-10, 3.1600024e+2
-0.152, -2.3152869e-9, -7.1317086e-10, 3.1633359e+2
-0.151, -2.3153666e-9, -7.0534245e-10, 3.1666693e+2
-0.150, -2.3112927e-9, -7.0198747e-10, 3.1700027e+2
-0.149, -2.3398901e-9, -6.9136324e-10, 3.1733362e+2
-0.148, -2.3548279e-9, -6.8489286e-10, 3.1766696e+2
-0.147, -2.3316624e-9, -6.8009998e-10, 3.1800031e+2
-0.146, -2.3695261e-9, -6.7147282e-10, 3.1833365e+2
-0.145, -2.3403692e-9, -6.6396399e-10, 3.1866699e+2
-0.144, -2.3545883e-9, -6.5661493e-10, 3.1900034e+2
-0.143, -2.3845439e-9, -6.5397882e-10, 3.1933368e+2
-0.142, -2.3724018e-9, -6.4790784e-10, 3.1966702e+2
-0.141, -2.3681681e-9, -6.4023925e-10, 3.2000037e+2
-0.140, -2.4261619e-9, -6.3552630e-10, 3.2033371e+2
-0.139, -2.3859816e-9, -6.2737837e-10, 3.2066705e+2
-0.138, -2.4122626e-9, -6.2546124e-10, 3.2100040e+2
-0.137, -2.4255227e-9, -6.1723349e-10, 3.2133374e+2
-0.136, -2.4188926e-9, -6.1132222e-10, 3.2166708e+2
-0.135, -2.4412594e-9, -6.1603522e-10, 3.2200043e+2
-0.134, -2.4248836e-9, -6.0716843e-10, 3.2233377e+2
-0.133, -2.4590729e-9, -6.0445249e-10, 3.2266711e+2
-0.132, -2.4568363e-9, -5.9255018e-10, 3.2300046e+2
-0.131, -2.4677000e-9, -5.9326910e-10, 3.2333380e+2
-0.130, -2.5197826e-9, -5.9207089e-10, 3.2366714e+2
-0.129, -2.5157088e-9, -5.8488159e-10, 3.2400049e+2
-0.128, -2.5225786e-9, -5.8456201e-10, 3.2433383e+2
-0.127, -2.5964686e-9, -5.8448218e-10, 3.2466718e+2
-0.126, -2.5654749e-9, -5.7761235e-10, 3.2500052e+2
-0.125, -2.5191436e-9, -5.7497629e-10, 3.2533386e+2
-0.124, -2.6406430e-9, -5.7257987e-10, 3.2566721e+2
-0.123, -2.5963089e-9, -5.6690830e-10, 3.2600055e+2
-0.122, -2.6265838e-9, -5.6586985e-10, 3.2633389e+2
-0.121, -2.6384064e-9, -5.6283433e-10, 3.2666724e+2
-0.120, -2.6522258e-9, -5.6195565e-10, 3.2700058e+2
-0.119, -2.6606133e-9, -5.6195565e-10, 3.2733392e+2
-0.118, -2.6805838e-9, -5.5165095e-10, 3.2766727e+2
-0.117, -2.6984770e-9, -5.5340837e-10, 3.2800061e+2
-0.116, -2.6971190e-9, -5.5284921e-10, 3.2833395e+2
-0.115, -2.7110183e-9, -5.5093202e-10, 3.2866730e+2
-0.114, -2.7294709e-9, -5.4885513e-10, 3.2900064e+2
-0.113, -2.7333851e-9, -5.4765686e-10, 3.2933398e+2
-0.112, -2.7385774e-9, -5.4222499e-10, 3.2966733e+2
-0.111, -2.7460862e-9, -5.3950905e-10, 3.3000067e+2
-0.110, -2.7447282e-9, -5.3152088e-10, 3.3033401e+2
-0.109, -2.7513585e-9, -5.2856530e-10, 3.3066736e+2
-0.108, -2.7650182e-9, -5.2425175e-10, 3.3100070e+2
-0.107, -2.7573495e-9, -5.2193516e-10, 3.3133405e+2
-0.106, -2.7704501e-9, -5.1450616e-10, 3.3166739e+2
-0.105, -2.7744440e-9, -5.1570442e-10, 3.3200073e+2
-0.104, -2.7792371e-9, -5.0340271e-10, 3.3233408e+2
-0.103, -2.8190177e-9, -4.9845011e-10, 3.3266742e+2
-0.102, -2.7999261e-9, -4.9134063e-10, 3.3300076e+2
-0.101, -2.8073552e-9, -4.8558918e-10, 3.3333411e+2
-0.100, -2.8039202e-9, -4.7520465e-10, 3.3366745e+2
-0.099, -2.8039202e-9, -4.5715148e-10, 3.3400079e+2
-0.098, -2.8296421e-9, -4.4373144e-10, 3.3433414e+2
-0.097, -2.8250888e-9, -4.2623743e-10, 3.3466748e+2
-0.096, -2.8182190e-9, -4.0722570e-10, 3.3500082e+2
-0.095, -2.8552838e-9, -3.9668135e-10, 3.3533417e+2
-0.094, -2.8252485e-9, -3.7287676e-10, 3.3566751e+2
-0.093, -2.8234912e-9, -3.5490347e-10, 3.3600085e+2
-0.092, -2.8591982e-9, -3.3972603e-10, 3.3633420e+2
-0.091, -2.8350740e-9, -3.3685033e-10, 3.3666754e+2
-0.090, -2.8606360e-9, -3.1839775e-10, 3.3700089e+2
-0.089, -2.8422631e-9, -3.0058425e-10, 3.3733423e+2
-0.088, -2.8462572e-9, -2.8348965e-10, 3.3766757e+2
-0.087, -2.8436211e-9, -2.7989500e-10, 3.3800092e+2
-0.086, -2.8712601e-9, -2.7182698e-10, 3.3833426e+2
-0.085, -2.8611951e-9, -2.5976490e-10, 3.3866760e+2
-0.084, -2.8735767e-9, -2.6072350e-10, 3.3900095e+2
-0.083, -2.8687839e-9, -2.5353419e-10, 3.3933429e+2
-0.082, -2.8901921e-9, -2.3899580e-10, 3.3966763e+2
-0.081, -2.8841212e-9, -2.4083305e-10, 3.4000098e+2
-0.080, -2.8737364e-9, -2.3747806e-10, 3.4033432e+2
-0.079, -2.9294138e-9, -2.2709348e-10, 3.4066766e+2
-0.078, -2.8988192e-9, -2.2621481e-10, 3.4100101e+2
-0.077, -2.9104819e-9, -2.2174146e-10, 3.4133435e+2
-0.076, -2.9243012e-9, -2.1974442e-10, 3.4166769e+2
-0.075, -2.9201475e-9, -2.1359357e-10, 3.4200104e+2
-0.074, -2.9184699e-9, -2.0568532e-10, 3.4233438e+2
-0.073, -2.9323695e-9, -2.0656402e-10, 3.4266772e+2
-0.072, -2.9420348e-9, -2.0145162e-10, 3.4300107e+2
-0.071, -2.9624048e-9, -2.0129184e-10, 3.4333441e+2
-0.070, -2.9699134e-9, -2.0089246e-10, 3.4366776e+2
-0.069, -2.9559342e-9, -2.0185102e-10, 3.4400110e+2
-0.068, -2.9941973e-9, -2.0057292e-10, 3.4433444e+2
-0.067, -2.9951559e-9, -1.9226527e-10, 3.4466779e+2
-0.066, -3.0287062e-9, -1.9386290e-10, 3.4500113e+2
-0.065, -3.0465195e-9, -1.9625933e-10, 3.4533447e+2
-0.064, -3.0099341e-9, -1.8914990e-10, 3.4566782e+2
-0.063, -3.0660905e-9, -1.8563513e-10, 3.4600116e+2
-0.062, -3.0394900e-9, -1.8267952e-10, 3.4633450e+2
-0.061, -3.0538685e-9, -1.8004344e-10, 3.4666785e+2
-0.060, -3.1003595e-9, -1.8307894e-10, 3.4700119e+2
-0.059, -3.0568243e-9, -1.7317366e-10, 3.4733453e+2
-0.058, -3.0626557e-9, -1.6462637e-10, 3.4766788e+2
-0.057, -3.0801497e-9, -1.6566483e-10, 3.4800122e+2
-0.056, -3.0755964e-9, -1.5743705e-10, 3.4833456e+2
-0.055, -3.0900547e-9, -1.5424180e-10, 3.4866791e+2
-0.054, -3.0659306e-9, -1.5599920e-10, 3.4900125e+2
-0.053, -3.1012384e-9, -1.5112643e-10, 3.4933459e+2
-0.052, -3.0938092e-9, -1.4737202e-10, 3.4966794e+2
-0.051, -3.1280782e-9, -1.4809096e-10, 3.5000128e+2
-0.050, -3.1355873e-9, -1.3850521e-10, 3.5033463e+2
-0.049, -3.1480487e-9, -1.4217974e-10, 3.5066797e+2
-0.048, -3.1155372e-9, -1.4409689e-10, 3.5100131e+2
-0.047, -3.1809599e-9, -1.3882473e-10, 3.5133466e+2
-0.046, -3.1717733e-9, -1.4273892e-10, 3.5166800e+2
-0.045, -3.1764866e-9, -1.4170046e-10, 3.5200134e+2
-0.044, -3.2248944e-9, -1.4122117e-10, 3.5233469e+2
-0.043, -3.2042053e-9, -1.4241938e-10, 3.5266803e+2
-0.042, -3.2307257e-9, -1.4209986e-10, 3.5300137e+2
-0.041, -3.2311249e-9, -1.3850521e-10, 3.5333472e+2
-0.040, -3.2390335e-9, -1.3491055e-10, 3.5366806e+2
-0.039, -3.2421488e-9, -1.3938389e-10, 3.5400140e+2
-0.038, -3.2610008e-9, -1.3427150e-10, 3.5433475e+2
-0.037, -3.2613203e-9, -1.3195495e-10, 3.5466809e+2
-0.036, -3.2682699e-9, -1.3307327e-10, 3.5500143e+2
-0.035, -3.2618794e-9, -1.3650818e-10, 3.5533478e+2
-0.034, -3.2935124e-9, -1.3275375e-10, 3.5566812e+2
-0.033, -3.2872816e-9, -1.3331293e-10, 3.5600146e+2
-0.032, -3.2949503e-9, -1.2444611e-10, 3.5633481e+2
-0.031, -3.3107668e-9, -1.2971826e-10, 3.5666815e+2
-0.030, -3.3043761e-9, -1.2428633e-10, 3.5700150e+2
-0.029, -3.3055745e-9, -1.2452599e-10, 3.5733484e+2
-0.028, -3.3188348e-9, -1.2324788e-10, 3.5766818e+2
-0.027, -3.3145211e-9, -1.2476563e-10, 3.5800153e+2
-0.026, -3.3167578e-9, -1.2021240e-10, 3.5833487e+2
-0.025, -3.3296985e-9, -1.1549940e-10, 3.5866821e+2
-0.024, -3.3277814e-9, -1.1749644e-10, 3.5900156e+2
-0.023, -3.3353702e-9, -1.1454083e-10, 3.5933490e+2
-0.022, -3.3436780e-9, -1.0870950e-10, 3.5966824e+2
-0.021, -3.3376069e-9, -1.0998760e-10, 3.6000159e+2
-0.020, -3.3520655e-9, -1.1318285e-10, 3.6033493e+2
-0.019, -3.3478316e-9, -1.0942844e-10, 3.6066827e+2
-0.018, -3.3581362e-9, -1.0559414e-10, 3.6100162e+2
-0.017, -3.3587755e-9, -1.0295805e-10, 3.6133496e+2
-0.016, -3.3560592e-9, -1.0407639e-10, 3.6166830e+2
-0.015, -3.3737932e-9, -9.9123751e-11, 3.6200165e+2
-0.014, -3.3679617e-9, -1.0279829e-10, 3.6233499e+2
-0.013, -3.3616510e-9, -9.9922563e-11, 3.6266833e+2
-0.012, -3.3821006e-9, -9.9283519e-11, 3.6300168e+2
-0.011, -3.3714764e-9, -9.5608979e-11, 3.6333502e+2
-0.010, -3.3870533e-9, -9.6248030e-11, 3.6366837e+2
-0.009, -3.3953611e-9, -9.6567553e-11, 3.6400171e+2
-0.008, -3.3889704e-9, -9.7126716e-11, 3.6433505e+2
-0.007, -3.4132543e-9, -9.3771713e-11, 3.6466840e+2
-0.006, -3.4151715e-9, -9.8804222e-11, 3.6500174e+2
-0.005, -3.4495204e-9, -9.7206604e-11, 3.6533508e+2
-0.004, -3.4766801e-9, -9.6407791e-11, 3.6566843e+2
-0.003, -3.4731653e-9, -9.6567553e-11, 3.6600177e+2
-0.002, -3.5465761e-9, -1.0199947e-10, 3.6633511e+2
-0.001, -3.5300407e-9, -9.6487665e-11, 3.6666846e+2
-0.000, -3.5531265e-9, -9.6487665e-11, 3.6700180e+2
0.001, -3.6201466e-9, -9.6088262e-11, 3.6733514e+2
0.002, -3.5669458e-9, -9.1055746e-11, 3.6766849e+2
0.003, -3.6314101e-9, -9.1455149e-11, 3.6800183e+2
0.004, -3.6290932e-9, -8.9298360e-11, 3.6833517e+2
0.005, -3.6279750e-9, -8.8659309e-11, 3.6866852e+2
0.006, -3.6803771e-9, -8.8100145e-11, 3.6900186e+2
0.007, -3.6957146e-9, -8.8419667e-11, 3.6933521e+2
0.008, -3.6949155e-9, -8.5384179e-11, 3.6966855e+2
0.009, -3.7070575e-9, -8.4505486e-11, 3.7000189e+2
0.010, -3.7143268e-9, -8.2428571e-11, 3.7033524e+2
0.011, -3.7162438e-9, -8.3147503e-11, 3.7066858e+2
0.012, -3.7312615e-9, -8.0191895e-11, 3.7100192e+2
0.013, -3.7224748e-9, -8.2029161e-11, 3.7133527e+2
0.014, -3.7478767e-9, -7.9792492e-11, 3.7166861e+2
0.015, -3.7423651e-9, -8.0990714e-11, 3.7200195e+2
0.016, -3.7473176e-9, -7.5958191e-11, 3.7233530e+2
0.017, -3.7679269e-9, -8.0591304e-11, 3.7266864e+2
0.018, -3.7610572e-9, -7.6996645e-11, 3.7300198e+2
0.019, -3.7783114e-9, -7.8434509e-11, 3.7333533e+2
0.020, -3.7938084e-9, -7.6357594e-11, 3.7366867e+2
0.021, -3.7862997e-9, -7.6677123e-11, 3.7400201e+2
0.022, -3.8071488e-9, -7.6996645e-11, 3.7433536e+2
0.023, -3.8083470e-9, -7.8274748e-11, 3.7466870e+2
0.024, -3.8119419e-9, -7.5558781e-11, 3.7500204e+2
0.025, -3.8397401e-9, -7.0286624e-11, 3.7533539e+2
0.026, -3.8282373e-9, -6.6931613e-11, 3.7566873e+2
0.027, -3.8364654e-9, -6.9727460e-11, 3.7600208e+2
0.028, -3.8506838e-9, -6.8529238e-11, 3.7633542e+2
0.029, -3.8369445e-9, -6.6132801e-11, 3.7666876e+2
0.030, -3.8696957e-9, -6.3576602e-11, 3.7700211e+2
0.031, -3.8662611e-9, -6.5094347e-11, 3.7733545e+2
0.032, -3.8867904e-9, -6.0620994e-11, 3.7766879e+2
0.033, -3.9536512e-9, -6.1180165e-11, 3.7800214e+2
0.034, -3.9177843e-9, -6.3097312e-11, 3.7833548e+2
0.035, -3.9554884e-9, -6.5254108e-11, 3.7866882e+2
0.036, -4.0066919e-9, -6.6612084e-11, 3.7900217e+2
0.037, -3.9774557e-9, -6.5733391e-11, 3.7933551e+2
0.038, -4.0459933e-9, -6.7011494e-11, 3.7966885e+2
0.039, -4.0495882e-9, -6.4854698e-11, 3.8000220e+2
0.040, -4.0638071e-9, -6.3017432e-11, 3.8033554e+2
0.041, -4.1082213e-9, -6.9487811e-11, 3.8066888e+2
0.042, -4.1174872e-9, -6.6052920e-11, 3.8100223e+2
0.043, -4.1495993e-9, -6.3736363e-11, 3.8133557e+2
0.044, -4.1920964e-9, -6.7730425e-11, 3.8166891e+2
0.045, -4.1953716e-9, -6.5014459e-11, 3.8200226e+2
0.046, -4.2115875e-9, -6.5573630e-11, 3.8233560e+2
0.047, -4.2097503e-9, -7.0446385e-11, 3.8266895e+2
0.048, -4.2267647e-9, -6.8609118e-11, 3.8300229e+2
0.049, -4.2542441e-9, -6.5493749e-11, 3.8333563e+2
0.050, -4.2400252e-9, -6.5653510e-11, 3.8366898e+2
0.051, -4.2549630e-9, -6.5653510e-11, 3.8400232e+2
0.052, -4.2866759e-9, -6.3976005e-11, 3.8433566e+2
0.053, -4.2717381e-9, -6.5493749e-11, 3.8466901e+2
0.054, -4.2845989e-9, -7.0845788e-11, 3.8500235e+2
0.055, -4.3182289e-9, -6.3496715e-11, 3.8533569e+2
0.056, -4.3106398e-9, -6.7890187e-11, 3.8566904e+2
0.057, -4.3482644e-9, -6.7570657e-11, 3.8600238e+2
0.058, -4.3382791e-9, -6.3416841e-11, 3.8633572e+2
0.059, -4.3958734e-9, -6.5653510e-11, 3.8666907e+2
0.060, -4.3680748e-9, -6.5973033e-11, 3.8700241e+2
0.061, -4.3960333e-9, -6.3336954e-11, 3.8733575e+2
0.062, -4.4707220e-9, -6.2138739e-11, 3.8766910e+2
0.063, -4.4975623e-9, -6.4135766e-11, 3.8800244e+2
0.064, -4.4694439e-9, -5.6067762e-11, 3.8833578e+2
0.065, -4.6096353e-9, -5.3511567e-11, 3.8866913e+2
0.066, -4.5418167e-9, -5.1195007e-11, 3.8900247e+2
0.067, -4.5503641e-9, -4.8718689e-11, 3.8933582e+2
0.068, -4.6550079e-9, -3.9851872e-11, 3.8966916e+2
0.069, -4.6078785e-9, -3.1304577e-11, 3.9000250e+2
0.070, -4.6404698e-9, -3.1224700e-11, 3.9033585e+2
0.071, -4.6807300e-9, -3.0745413e-11, 3.9066919e+2
0.072, -4.6762567e-9, -2.4594556e-11, 3.9100253e+2
0.073, -4.6819282e-9, -1.7005838e-11, 3.9133588e+2
0.074, -4.7109250e-9, -2.4594556e-11, 3.9166922e+2
0.075, -4.7149991e-9, -1.5647856e-11, 3.9200256e+2
0.076, -4.7206705e-9, -1.5647856e-11, 3.9233591e+2
0.077, -4.7298570e-9, -1.2212962e-11, 3.9266925e+2
0.078, -4.7756288e-9, -1.4609400e-11, 3.9300259e+2
0.079, -4.7741113e-9, -1.0615338e-11, 3.9333594e+2
0.080, -4.7878510e-9, -6.4615140e-12, 3.9366928e+2
0.081, -4.8292290e-9, -1.1174507e-11, 3.9400262e+2
0.082, -4.8284305e-9, -4.3846021e-12, 3.9433597e+2
0.083, -4.8538329e-9, -6.4615140e-12, 3.9466931e+2
0.084, -4.8858650e-9, 8.5561584e-12, 3.9500266e+2
0.085, -4.8876223e-9, 4.3224534e-12, 3.9533600e+2
0.086, -4.9361901e-9, 1.0313546e-11, 3.9566934e+2
0.087, -4.9546429e-9, 1.7183333e-11, 3.9600269e+2
0.088, -5.0046487e-9, 2.4772051e-11, 3.9633603e+2
0.089, -5.0949143e-9, 2.2535376e-11, 3.9666937e+2
0.090, -5.0969113e-9, 3.3079699e-11, 3.9700272e+2
0.091, -5.1705618e-9, 3.1322309e-11, 3.9733606e+2
0.092, -5.1775113e-9, 4.4103311e-11, 3.9766940e+2
0.093, -5.2259193e-9, 4.4422837e-11, 3.9800275e+2
0.094, -5.2605880e-9, 5.6165374e-11, 3.9833609e+2
0.095, -5.2610671e-9, 5.0733456e-11, 3.9866943e+2
0.096, -5.2758451e-9, 6.6549939e-11, 3.9900278e+2
0.097, -5.3181024e-9, 6.9186025e-11, 3.9933612e+2
0.098, -5.3090758e-9, 6.2475997e-11, 3.9966946e+2
0.099, -5.0351630e-9, 5.7203835e-11, 4.0000281e+2
