Dec. 9, 2005   00:40:36
Square Wave Voltammetry
File: d:\ida_biofilms\11_28_18_blankidapyo\5um_pyo_soak_swv.txt
Data Source:  Experiment
Instrument Model:  CHI760B
Header: 
Note: 

Init E (V) = 0.1
Final E (V) = -0.5
Incr E (V) = 0.001
Amplitude (V) = 0.025
Frequency (Hz) = 15
Quiet Time (sec) = 2
Sensitivity (A/V) = 1e-6
Sens 2 (A/V) = 1e-6

Potential/V, i1/A, i2/A

0.099, 1.2686382e-7, 7.1461834e-8
0.098, 1.7215316e-7, 8.8027932e-8
0.097, 1.7060819e-7, 9.0499121e-8
0.096, 1.7003985e-7, 8.8850371e-8
0.095, 1.5638525e-7, 7.8173230e-8
0.094, 1.6690528e-7, 8.8386777e-8
0.093, 1.5237393e-7, 7.7725161e-8
0.092, 1.5046139e-7, 7.6856168e-8
0.091, 1.6246432e-7, 8.6391779e-8
0.090, 1.4790776e-7, 7.6350872e-8
0.089, 1.5952662e-7, 8.4935060e-8
0.088, 1.5859750e-7, 8.4476319e-8
0.087, 1.5864599e-7, 8.4071893e-8
0.086, 1.4255707e-7, 7.2711977e-8
0.085, 1.5501581e-7, 8.2480355e-8
0.084, 1.5332149e-7, 8.2542428e-8
0.083, 1.5247480e-7, 8.0596898e-8
0.082, 1.3760790e-7, 7.0141866e-8
0.081, 1.4912686e-7, 8.0699706e-8
0.080, 1.4879517e-7, 7.9698815e-8
0.079, 1.4773804e-7, 7.8968512e-8
0.078, 1.3267812e-7, 6.6835625e-8
0.077, 1.4476930e-7, 7.8861831e-8
0.076, 1.4507481e-7, 7.7343032e-8
0.075, 1.4346872e-7, 7.6798941e-8
0.074, 1.2924581e-7, 6.6061681e-8
0.073, 1.4110229e-7, 7.6087076e-8
0.072, 1.3998695e-7, 7.4868936e-8
0.071, 1.3879790e-7, 7.5656459e-8
0.070, 1.3763311e-7, 7.4654594e-8
0.069, 1.2374284e-7, 6.3510960e-8
0.068, 1.2243548e-7, 6.3441135e-8
0.067, 1.2101658e-7, 6.2495523e-8
0.066, 1.1971795e-7, 6.1824380e-8
0.065, 1.3267424e-7, 7.2518006e-8
0.064, 1.1760075e-7, 6.2020291e-8
0.063, 1.3032913e-7, 7.2184378e-8
0.062, 1.2968418e-7, 7.1664537e-8
0.061, 1.2849999e-7, 7.0509437e-8
0.060, 1.1514508e-7, 5.9644151e-8
0.059, 1.2596479e-7, 7.0531740e-8
0.058, 1.2718291e-7, 6.8687079e-8
0.057, 1.2516756e-7, 6.9464903e-8
0.056, 1.1137428e-7, 5.6792771e-8
0.055, 1.2314638e-7, 6.9137087e-8
0.054, 1.2267310e-7, 6.6875387e-8
0.053, 1.2203783e-7, 6.6621283e-8
0.052, 1.0765585e-7, 5.5668714e-8
0.051, 1.2045601e-7, 6.6373971e-8
0.050, 1.1911663e-7, 6.6078172e-8
0.049, 1.1893817e-7, 6.6119867e-8
0.048, 1.1689372e-7, 6.6591227e-8
0.047, 1.0334776e-7, 5.5402975e-8
0.046, 1.0305196e-7, 5.5575605e-8
0.045, 1.0225087e-7, 5.3749368e-8
0.044, 1.0105211e-7, 5.3760040e-8
0.043, 1.1342456e-7, 6.4208294e-8
0.042, 9.9167693e-8, 5.2485650e-8
0.041, 9.9172539e-8, 5.2336294e-8
0.040, 9.7993194e-8, 5.3347851e-8
0.039, 1.1016876e-7, 6.3160840e-8
0.038, 9.6296915e-8, 5.0943580e-8
0.037, 9.6514157e-8, 5.1758256e-8
0.036, 9.5016702e-8, 5.1348977e-8
0.035, 1.0771502e-7, 6.1465535e-8
0.034, 9.3662791e-8, 5.1663214e-8
0.033, 9.3046935e-8, 5.1370314e-8
0.032, 9.2495085e-8, 5.0415977e-8
0.031, 9.2695842e-8, 4.9649792e-8
0.030, 1.0447764e-7, 6.0794399e-8
0.029, 9.0478757e-8, 4.9914561e-8
0.028, 8.9707726e-8, 4.9304525e-8
0.027, 8.9035609e-8, 4.8079599e-8
0.026, 1.0088239e-7, 5.9000165e-8
0.025, 8.8198625e-8, 4.7773124e-8
0.024, 1.0019670e-7, 5.9520005e-8
0.023, 9.8927160e-8, 5.8841110e-8
0.022, 1.0016858e-7, 5.7994427e-8
0.021, 8.5700279e-8, 4.7134961e-8
0.020, 9.8059147e-8, 5.7764566e-8
0.019, 9.7257072e-8, 5.7286432e-8
0.018, 9.6692617e-8, 5.7943993e-8
0.017, 8.3224243e-8, 4.6359073e-8
0.016, 9.5930311e-8, 5.6761742e-8
0.015, 9.5168005e-8, 5.7302920e-8
0.014, 9.4808186e-8, 5.6897520e-8
0.013, 8.0743348e-8, 4.6083635e-8
0.012, 9.2807383e-8, 5.6152672e-8
0.011, 9.2769554e-8, 5.5605675e-8
0.010, 9.3047902e-8, 5.5285621e-8
0.009, 7.9254619e-8, 4.5214648e-8
0.008, 9.1001510e-8, 5.5825829e-8
0.007, 7.7838635e-8, 4.4927567e-8
0.006, 7.7015230e-8, 4.3722039e-8
0.005, 9.0070444e-8, 5.4501982e-8
0.004, 7.6303351e-8, 4.3632813e-8
0.003, 8.9036583e-8, 5.4801664e-8
0.002, 8.8600146e-8, 5.4431180e-8
0.001, 8.8606939e-8, 5.3864781e-8
-0.000, 7.4907732e-8, 4.3530008e-8
-0.001, 8.7350969e-8, 5.3737732e-8
-0.002, 7.4550826e-8, 4.3037321e-8
-0.003, 7.2830304e-8, 4.3253600e-8
-0.004, 7.2646998e-8, 4.3179888e-8
-0.005, 8.5391861e-8, 5.3003554e-8
-0.006, 7.2033082e-8, 4.2404974e-8
-0.007, 7.1613130e-8, 4.3031498e-8
-0.008, 7.1337695e-8, 4.2735696e-8
-0.009, 8.4675136e-8, 5.2663133e-8
-0.010, 7.1265923e-8, 4.1711530e-8
-0.011, 7.0611271e-8, 4.1385658e-8
-0.012, 7.0648127e-8, 4.0767858e-8
-0.013, 8.2577344e-8, 5.1768929e-8
-0.014, 6.9389252e-8, 4.1120884e-8
-0.015, 6.9165210e-8, 4.1855067e-8
-0.016, 6.8778249e-8, 4.2245919e-8
-0.017, 8.1690899e-8, 5.2632096e-8
-0.018, 6.8617254e-8, 4.1375959e-8
-0.019, 6.8374788e-8, 4.1374989e-8
-0.020, 6.7904409e-8, 4.1263455e-8
-0.021, 6.7572714e-8, 4.1249876e-8
-0.022, 8.0463060e-8, 5.2342109e-8
-0.023, 6.6728944e-8, 4.0844480e-8
-0.024, 6.6627109e-8, 4.1339106e-8
-0.025, 6.6402094e-8, 4.0569041e-8
-0.026, 7.9809382e-8, 5.1497366e-8
-0.027, 6.6066534e-8, 4.1089852e-8
-0.028, 6.5649495e-8, 4.0783377e-8
-0.029, 6.5490440e-8, 4.1055905e-8
-0.030, 7.8340051e-8, 5.1840694e-8
-0.031, 6.5468129e-8, 3.9793157e-8
-0.032, 6.5226637e-8, 4.0461387e-8
-0.033, 6.4402258e-8, 4.0523457e-8
-0.034, 6.4699037e-8, 3.9496378e-8
-0.035, 7.7469110e-8, 5.1662241e-8
-0.036, 6.4630171e-8, 3.9742723e-8
-0.037, 6.4325640e-8, 3.9915356e-8
-0.038, 6.3627347e-8, 3.9495411e-8
-0.039, 7.6881385e-8, 5.1650602e-8
-0.040, 6.3708811e-8, 4.0189825e-8
-0.041, 7.7067597e-8, 5.0846594e-8
-0.042, 7.6145270e-8, 5.1434327e-8
-0.043, 7.6803801e-8, 5.1073542e-8
-0.044, 6.3455680e-8, 4.0040469e-8
-0.045, 7.5739862e-8, 5.1957077e-8
-0.046, 7.6131684e-8, 5.1513855e-8
-0.047, 7.5715619e-8, 5.1529369e-8
-0.048, 6.2417932e-8, 4.0163641e-8
-0.049, 7.5686522e-8, 5.2587485e-8
-0.050, 7.5919289e-8, 5.2096738e-8
-0.051, 7.5337375e-8, 5.3291600e-8
-0.052, 6.2173534e-8, 4.0763979e-8
-0.053, 7.5398475e-8, 5.1485728e-8
-0.054, 7.5309252e-8, 5.1498340e-8
-0.055, 7.5564323e-8, 5.0788405e-8
-0.056, 6.1281270e-8, 3.9534203e-8
-0.057, 7.4942641e-8, 5.2895899e-8
-0.058, 6.2416966e-8, 3.8934832e-8
-0.059, 6.1489786e-8, 4.0487571e-8
-0.060, 7.5184140e-8, 5.1405230e-8
-0.061, 6.1955319e-8, 4.1300311e-8
-0.062, 6.1958218e-8, 4.0631111e-8
-0.063, 6.2062973e-8, 4.1084032e-8
-0.064, 6.1793344e-8, 4.0964743e-8
-0.065, 7.5349014e-8, 5.1376134e-8
-0.066, 6.2131825e-8, 3.9982279e-8
-0.067, 7.5201598e-8, 5.0034828e-8
-0.068, 7.4438319e-8, 5.2772723e-8
-0.069, 7.5305365e-8, 5.2893959e-8
-0.070, 6.2040655e-8, 4.2041279e-8
-0.071, 7.5250085e-8, 5.0569216e-8
-0.072, 7.4708908e-8, 5.2780486e-8
-0.073, 7.5333496e-8, 5.0545939e-8
-0.074, 6.1791411e-8, 4.1400206e-8
-0.075, 7.5304399e-8, 5.1910526e-8
-0.076, 7.4887360e-8, 5.2462376e-8
-0.077, 7.5596326e-8, 5.4133430e-8
-0.078, 6.2788416e-8, 4.2019941e-8
-0.079, 7.6269409e-8, 5.2490499e-8
-0.080, 7.5839765e-8, 5.2064735e-8
-0.081, 7.5951291e-8, 5.2826067e-8
-0.082, 7.5961964e-8, 5.2196633e-8
-0.083, 6.2573115e-8, 4.1934594e-8
-0.084, 7.6176299e-8, 5.2909474e-8
-0.085, 7.5792236e-8, 5.2983182e-8
-0.086, 7.6747547e-8, 5.1942532e-8
-0.087, 6.2037749e-8, 4.2900574e-8
-0.088, 7.5510982e-8, 5.2852254e-8
-0.089, 7.6187938e-8, 5.2809582e-8
-0.090, 7.6191824e-8, 5.4304127e-8
-0.091, 6.3332507e-8, 4.4608488e-8
-0.092, 7.6407126e-8, 5.5358360e-8
-0.093, 7.6489563e-8, 5.4572773e-8
-0.094, 7.6049247e-8, 5.5560090e-8
-0.095, 6.3683601e-8, 4.4406757e-8
-0.096, 7.7136463e-8, 5.4624181e-8
-0.097, 7.6947337e-8, 5.3855086e-8
-0.098, 7.7363403e-8, 5.4749293e-8
-0.099, 7.6927940e-8, 5.3500116e-8
-0.100, 6.4118090e-8, 4.3732705e-8
-0.101, 7.7893915e-8, 5.6507638e-8
-0.102, 6.4260661e-8, 4.4098343e-8
-0.103, 6.4800872e-8, 4.5859601e-8
-0.104, 7.8440912e-8, 5.6394164e-8
-0.105, 6.4428448e-8, 4.5884818e-8
-0.106, 6.5046244e-8, 4.4431005e-8
-0.107, 6.5187841e-8, 4.4949875e-8
-0.108, 6.5274165e-8, 4.5314543e-8
-0.109, 7.8148020e-8, 5.6173040e-8
-0.110, 6.6001554e-8, 4.8241564e-8
-0.111, 6.5459403e-8, 4.4884896e-8
-0.112, 6.6367186e-8, 4.3755016e-8
-0.113, 7.9413674e-8, 5.8582160e-8
-0.114, 6.5865770e-8, 4.9147410e-8
-0.115, 6.5435152e-8, 4.4118707e-8
-0.116, 6.5027820e-8, 4.6960388e-8
-0.117, 8.0289453e-8, 6.0079614e-8
-0.118, 6.6364272e-8, 4.7043791e-8
-0.119, 6.6856963e-8, 4.8869058e-8
-0.120, 6.6999533e-8, 4.6555957e-8
-0.121, 8.0800568e-8, 5.8829471e-8
-0.122, 6.7264303e-8, 4.7468589e-8
-0.123, 6.8152687e-8, 4.5841173e-8
-0.124, 6.7296305e-8, 5.0905754e-8
-0.125, 8.0489244e-8, 6.0060216e-8
-0.126, 6.8507660e-8, 4.8916583e-8
-0.127, 6.7840396e-8, 4.9007749e-8
-0.128, 6.8672534e-8, 4.8386070e-8
-0.129, 6.7922834e-8, 5.2015267e-8
-0.130, 8.2376580e-8, 5.9328947e-8
-0.131, 6.9308754e-8, 4.9334588e-8
-0.132, 8.2366888e-8, 6.0444279e-8
-0.133, 8.2748038e-8, 6.0057303e-8
-0.134, 8.2927457e-8, 6.1488819e-8
-0.135, 6.9300029e-8, 5.0490655e-8
-0.136, 8.3429846e-8, 6.0386085e-8
-0.137, 8.3022506e-8, 6.1170702e-8
-0.138, 8.2870244e-8, 6.1116388e-8
-0.139, 7.0380452e-8, 5.1182163e-8
-0.140, 8.4034070e-8, 6.1386011e-8
-0.141, 8.4618890e-8, 6.1870935e-8
-0.142, 8.3925443e-8, 6.2570201e-8
-0.143, 7.1028310e-8, 5.2027879e-8
-0.144, 8.4549065e-8, 6.2276342e-8
-0.145, 8.3913804e-8, 6.3395547e-8
-0.146, 8.5677968e-8, 6.3160847e-8
-0.147, 8.5230866e-8, 6.3041554e-8
-0.148, 7.1924454e-8, 5.2663133e-8
-0.149, 8.5119339e-8, 6.7858821e-8
-0.150, 8.6463558e-8, 6.3097801e-8
-0.151, 8.6169685e-8, 6.4778561e-8
-0.152, 7.3357903e-8, 5.4522346e-8
-0.153, 8.5982506e-8, 6.4200528e-8
-0.154, 8.6489734e-8, 6.4541922e-8
-0.155, 8.6715715e-8, 6.3664196e-8
-0.156, 7.3877743e-8, 5.3595166e-8
-0.157, 8.6660435e-8, 6.5052063e-8
-0.158, 8.6660435e-8, 6.5601000e-8
-0.159, 8.7962952e-8, 6.5820188e-8
-0.160, 7.4371400e-8, 5.6470785e-8
-0.161, 8.8704894e-8, 6.6148971e-8
-0.162, 8.9034643e-8, 6.7882098e-8
-0.163, 8.8827093e-8, 6.7099421e-8
-0.164, 8.9431310e-8, 6.6877334e-8
-0.165, 7.6532231e-8, 5.6685124e-8
-0.166, 8.9674742e-8, 6.7572714e-8
-0.167, 7.6746574e-8, 5.7146771e-8
-0.168, 7.6437189e-8, 5.7582238e-8
-0.169, 9.0938471e-8, 6.8726841e-8
-0.170, 7.7631086e-8, 5.7089551e-8
-0.171, 7.8657195e-8, 5.9877884e-8
-0.172, 7.8695017e-8, 5.9198989e-8
-0.173, 7.9424346e-8, 5.9361923e-8
-0.174, 9.2845198e-8, 7.1013766e-8
-0.175, 7.9577582e-8, 6.1650780e-8
-0.176, 8.0846149e-8, 6.0307528e-8
-0.177, 8.0127492e-8, 6.1665325e-8
-0.178, 9.4049753e-8, 7.1559789e-8
-0.179, 8.1065338e-8, 6.1379218e-8
-0.180, 8.1593910e-8, 6.2355866e-8
-0.181, 8.2334886e-8, 6.3701052e-8
-0.182, 9.6540347e-8, 7.4546946e-8
-0.183, 8.2963346e-8, 6.3745667e-8
-0.184, 8.3944840e-8, 6.5177176e-8
-0.185, 8.4872021e-8, 6.4683519e-8
-0.186, 9.8684694e-8, 7.6317903e-8
-0.187, 8.5450054e-8, 6.6119874e-8
-0.188, 8.6622613e-8, 6.7305038e-8
-0.189, 8.6685645e-8, 6.6230442e-8
-0.190, 8.7769955e-8, 6.8157540e-8
-0.191, 1.0223049e-7, 7.6220914e-8
-0.192, 8.9028823e-8, 6.9047864e-8
-0.193, 9.0663022e-8, 6.8907241e-8
-0.194, 9.1656162e-8, 7.0383358e-8
-0.195, 1.0363581e-7, 8.1064371e-8
-0.196, 9.2360274e-8, 7.2804113e-8
-0.197, 1.0581896e-7, 8.2739305e-8
-0.198, 1.0636401e-7, 8.3686857e-8
-0.199, 1.0877216e-7, 8.4653806e-8
-0.200, 9.6248428e-8, 7.4511064e-8
-0.201, 1.1021336e-7, 8.6305469e-8
-0.202, 1.1115122e-7, 8.7241375e-8
-0.203, 1.1221903e-7, 8.8147218e-8
-0.204, 9.9658436e-8, 7.7557374e-8
-0.205, 1.1310838e-7, 9.0230472e-8
-0.206, 1.1492008e-7, 9.1890854e-8
-0.207, 1.1589962e-7, 9.1649369e-8
-0.208, 1.0542422e-7, 8.2403744e-8
-0.209, 1.1902256e-7, 9.3421299e-8
-0.210, 1.0750360e-7, 8.3833307e-8
-0.211, 1.0886818e-7, 8.6218179e-8
-0.212, 1.2312698e-7, 9.9169618e-8
-0.213, 1.1060227e-7, 8.9007479e-8
-0.214, 1.1269037e-7, 8.8990994e-8
-0.215, 1.1313359e-7, 9.2385491e-8
-0.216, 1.1498505e-7, 9.2882047e-8
-0.217, 1.3126989e-7, 1.0598286e-7
-0.218, 1.1922235e-7, 9.5957461e-8
-0.219, 1.2195250e-7, 9.6933150e-8
-0.220, 1.2270607e-7, 9.9726321e-8
-0.221, 1.3775627e-7, 1.1170597e-7
-0.222, 1.2659034e-7, 1.0249040e-7
-0.223, 1.2824879e-7, 1.0357277e-7
-0.224, 1.2967932e-7, 1.0533499e-7
-0.225, 1.4552191e-7, 1.1762694e-7
-0.226, 1.3466536e-7, 1.0945786e-7
-0.227, 1.3771555e-7, 1.1041122e-7
-0.228, 1.3950590e-7, 1.1266128e-7
-0.229, 1.4201395e-7, 1.1475326e-7
-0.230, 1.5666652e-7, 1.2872790e-7
-0.231, 1.4713186e-7, 1.1972085e-7
-0.232, 1.4852458e-7, 1.2198547e-7
-0.233, 1.5107142e-7, 1.2383789e-7
-0.234, 1.6827957e-7, 1.3747696e-7
-0.235, 1.5747926e-7, 1.2902758e-7
-0.236, 1.7294941e-7, 1.4240382e-7
-0.237, 1.7731570e-7, 1.4488955e-7
-0.238, 1.7917104e-7, 1.4831897e-7
-0.239, 1.6942786e-7, 1.3925859e-7
-0.240, 1.8604730e-7, 1.5334186e-7
-0.241, 1.8995874e-7, 1.5585668e-7
-0.242, 1.9413494e-7, 1.5841904e-7
-0.243, 1.8248502e-7, 1.5048465e-7
-0.244, 2.0076970e-7, 1.6358450e-7
-0.245, 2.0295963e-7, 1.6646108e-7
-0.246, 2.0624357e-7, 1.6974792e-7
-0.247, 1.9748288e-7, 1.6213068e-7
-0.248, 2.1317707e-7, 1.7713337e-7
-0.249, 2.1766652e-7, 1.7879182e-7
-0.250, 2.2162742e-7, 1.8255389e-7
-0.251, 2.1307523e-7, 1.7365645e-7
-0.252, 2.2822633e-7, 1.8792883e-7
-0.253, 2.2024633e-7, 1.8044832e-7
-0.254, 2.2262249e-7, 1.8324540e-7
-0.255, 2.3794328e-7, 1.9799398e-7
-0.256, 2.3055492e-7, 1.9042039e-7
-0.257, 2.3335490e-7, 1.9101006e-7
-0.258, 2.3656608e-7, 1.9524251e-7
-0.259, 2.4122431e-7, 1.9808418e-7
-0.260, 2.5794071e-7, 2.0836367e-7
-0.261, 2.4599501e-7, 2.0266577e-7
-0.262, 2.6467154e-7, 2.1519534e-7
-0.263, 2.6629311e-7, 2.1780426e-7
-0.264, 2.6950624e-7, 2.1987975e-7
-0.265, 2.5879615e-7, 2.1073302e-7
-0.266, 2.7328772e-7, 2.2443321e-7
-0.267, 2.7723308e-7, 2.2575996e-7
-0.268, 2.7983327e-7, 2.2710225e-7
-0.269, 2.6841030e-7, 2.1880223e-7
-0.270, 2.8501714e-7, 2.3187005e-7
-0.271, 2.8605004e-7, 2.3254799e-7
-0.272, 2.8755235e-7, 2.3316770e-7
-0.273, 2.7497430e-7, 2.2316948e-7
-0.274, 2.9072183e-7, 2.3381850e-7
-0.275, 2.7762781e-7, 2.2490261e-7
-0.276, 2.7871602e-7, 2.2591030e-7
-0.277, 2.9254807e-7, 2.3537316e-7
-0.278, 2.7985462e-7, 2.2648251e-7
-0.279, 2.9450135e-7, 2.3614808e-7
-0.280, 2.9367408e-7, 2.3552352e-7
-0.281, 2.9453335e-7, 2.3554581e-7
-0.282, 2.8030365e-7, 2.2534390e-7
-0.283, 2.9258686e-7, 2.3651663e-7
-0.284, 2.9017679e-7, 2.3503759e-7
-0.285, 2.9174601e-7, 2.3357117e-7
-0.286, 2.7581322e-7, 2.2207647e-7
-0.287, 2.8921079e-7, 2.3185163e-7
-0.288, 2.8724975e-7, 2.3004770e-7
-0.289, 2.8529453e-7, 2.2939402e-7
-0.290, 2.7022008e-7, 2.1665302e-7
-0.291, 2.8144422e-7, 2.2322767e-7
-0.292, 2.7916406e-7, 2.2207354e-7
-0.293, 2.7584522e-7, 2.2028514e-7
-0.294, 2.7525556e-7, 2.1814951e-7
-0.295, 2.5841985e-7, 2.0459773e-7
-0.296, 2.6848790e-7, 2.1262424e-7
-0.297, 2.6600409e-7, 2.0954883e-7
-0.298, 2.6213826e-7, 2.0752573e-7
-0.299, 2.6008507e-7, 2.0532900e-7
-0.300, 2.4285464e-7, 1.9155706e-7
-0.301, 2.5300901e-7, 1.9943423e-7
-0.302, 2.4895405e-7, 1.9646839e-7
-0.303, 2.4567012e-7, 1.9302736e-7
-0.304, 2.2847749e-7, 1.8035814e-7
-0.305, 2.3884814e-7, 1.8809467e-7
-0.306, 2.3438876e-7, 1.8457506e-7
-0.307, 2.3108640e-7, 1.8169362e-7
-0.308, 2.1355628e-7, 1.6952487e-7
-0.309, 2.2282713e-7, 1.7600057e-7
-0.310, 2.1982737e-7, 1.7337129e-7
-0.311, 2.1642899e-7, 1.6952389e-7
-0.312, 1.9831887e-7, 1.5668107e-7
-0.313, 2.0954786e-7, 1.6372996e-7
-0.314, 2.0549872e-7, 1.6116955e-7
-0.315, 2.0167944e-7, 1.5752580e-7
-0.316, 1.8434909e-7, 1.4483138e-7
-0.317, 1.9401855e-7, 1.5372397e-7
-0.318, 1.9083839e-7, 1.4987559e-7
-0.319, 1.8797246e-7, 1.4787381e-7
-0.320, 1.8454502e-7, 1.4539293e-7
-0.321, 1.6823398e-7, 1.3191581e-7
-0.322, 1.7970251e-7, 1.4020807e-7
-0.323, 1.7596469e-7, 1.3840025e-7
-0.324, 1.7241793e-7, 1.3637133e-7
-0.325, 1.5726880e-7, 1.2243353e-7
-0.326, 1.6758902e-7, 1.3201085e-7
-0.327, 1.5215184e-7, 1.2028434e-7
-0.328, 1.5022280e-7, 1.1800616e-7
-0.329, 1.4770215e-7, 1.1575706e-7
-0.330, 1.5815428e-7, 1.2499687e-7
-0.331, 1.4333973e-7, 1.1224521e-7
-0.332, 1.4143978e-7, 1.1141307e-7
-0.333, 1.3889780e-7, 1.0947821e-7
-0.334, 1.5097152e-7, 1.1824571e-7
-0.335, 1.3588155e-7, 1.0806514e-7
-0.336, 1.3423183e-7, 1.0598189e-7
-0.337, 1.3250161e-7, 1.0468131e-7
-0.338, 1.4443276e-7, 1.1473872e-7
-0.339, 1.2994022e-7, 1.0306068e-7
-0.340, 1.2842142e-7, 1.0167476e-7
-0.341, 1.2733422e-7, 1.0162239e-7
-0.342, 1.2551962e-7, 1.0004637e-7
-0.343, 1.3823053e-7, 1.1029289e-7
-0.344, 1.2312891e-7, 9.8177459e-8
-0.345, 1.2289422e-7, 9.6966119e-8
-0.346, 1.2189236e-7, 9.6285277e-8
-0.347, 1.3472452e-7, 1.0629806e-7
-0.348, 1.2005643e-7, 9.4737388e-8
-0.349, 1.1968109e-7, 9.5556913e-8
-0.350, 1.1834948e-7, 9.3784017e-8
-0.351, 1.3161031e-7, 1.0557940e-7
-0.352, 1.1713522e-7, 9.3039176e-8
-0.353, 1.1672304e-7, 9.3159429e-8
-0.354, 1.1657271e-7, 9.2419427e-8
-0.355, 1.2890635e-7, 1.0395004e-7
-0.356, 1.1541373e-7, 9.1439880e-8
-0.357, 1.1453601e-7, 9.2020819e-8
-0.358, 1.1402296e-7, 9.0975320e-8
-0.359, 1.1397155e-7, 9.1418542e-8
-0.360, 1.2647007e-7, 1.0163209e-7
-0.361, 1.1315203e-7, 9.0720249e-8
-0.362, 1.1293187e-7, 8.9404153e-8
-0.363, 1.1255266e-7, 9.0529184e-8
-0.364, 1.1211623e-7, 8.9902656e-8
-0.365, 1.2598612e-7, 1.0012008e-7
-0.366, 1.1156922e-7, 9.0151907e-8
-0.367, 1.1146836e-7, 9.0809472e-8
-0.368, 1.1124529e-7, 8.9660197e-8
-0.369, 1.2490666e-7, 1.0083195e-7
-0.370, 1.1095433e-7, 9.0349765e-8
-0.371, 1.1020658e-7, 8.9867747e-8
-0.372, 1.1017652e-7, 9.0544702e-8
-0.373, 1.2467682e-7, 1.0018700e-7
-0.374, 1.1079722e-7, 8.9881325e-8
-0.375, 1.1066725e-7, 8.9409973e-8
-0.376, 1.1035593e-7, 8.9713538e-8
-0.377, 1.2354887e-7, 1.0021998e-7
-0.378, 1.0993599e-7, 9.0461299e-8
-0.379, 1.0988264e-7, 8.9705786e-8
-0.380, 1.1048881e-7, 9.0190710e-8
-0.381, 1.2420935e-7, 1.0064768e-7
-0.382, 1.1016778e-7, 9.0527244e-8
-0.383, 1.1009310e-7, 9.0636838e-8
-0.384, 1.1067405e-7, 9.0792014e-8
-0.385, 1.1075357e-7, 9.1005383e-8
-0.386, 1.2342764e-7, 1.0142357e-7
-0.387, 1.0978469e-7, 9.0712490e-8
-0.388, 1.1083407e-7, 9.0937490e-8
-0.389, 1.1007661e-7, 9.1606694e-8
-0.390, 1.2409976e-7, 1.0126936e-7
-0.391, 1.1110176e-7, 9.0670781e-8
-0.392, 1.2365847e-7, 1.0208307e-7
-0.393, 1.2423068e-7, 1.0214805e-7
-0.394, 1.2443338e-7, 1.0197736e-7
-0.395, 1.1054409e-7, 9.1244935e-8
-0.396, 1.2401149e-7, 1.0195117e-7
-0.397, 1.2411721e-7, 1.0182121e-7
-0.398, 1.2503857e-7, 1.0172907e-7
-0.399, 1.1085154e-7, 9.2295295e-8
-0.400, 1.2438004e-7, 1.0137023e-7
-0.401, 1.2465159e-7, 1.0202100e-7
-0.402, 1.2462348e-7, 1.0286380e-7
-0.403, 1.1150619e-7, 9.2216737e-8
-0.404, 1.2405125e-7, 1.0323720e-7
-0.405, 1.1125208e-7, 9.2355421e-8
-0.406, 1.1069926e-7, 9.2949946e-8
-0.407, 1.2430924e-7, 1.0298698e-7
-0.408, 1.1128603e-7, 9.2581402e-8
-0.409, 1.2463026e-7, 1.0236045e-7
-0.410, 1.2393875e-7, 1.0208307e-7
-0.411, 1.2429567e-7, 1.0342826e-7
-0.412, 1.1127633e-7, 9.2205099e-8
-0.413, 1.2499493e-7, 1.0306553e-7
-0.414, 1.2434900e-7, 1.0297436e-7
-0.415, 1.2388833e-7, 1.0282016e-7
-0.416, 1.1045486e-7, 9.2424280e-8
-0.417, 1.2349940e-7, 1.0379875e-7
-0.418, 1.2398337e-7, 1.0280464e-7
-0.419, 1.2402410e-7, 1.0318288e-7
-0.420, 1.1028708e-7, 9.2451444e-8
-0.421, 1.2346159e-7, 1.0193953e-7
-0.422, 1.2402799e-7, 1.0249428e-7
-0.423, 1.2348097e-7, 1.0241185e-7
-0.424, 1.2348680e-7, 1.0207143e-7
-0.425, 1.0935795e-7, 9.3305879e-8
-0.426, 1.2228031e-7, 1.0236045e-7
-0.427, 1.2219593e-7, 1.0101332e-7
-0.428, 1.2267407e-7, 1.0135568e-7
-0.429, 1.2153933e-7, 1.0141581e-7
-0.430, 1.0739884e-7, 9.2200239e-8
-0.431, 1.0763064e-7, 9.1254634e-8
-0.432, 1.0745995e-7, 9.0859913e-8
-0.433, 1.0794875e-7, 8.8551658e-8
-0.434, 1.2042400e-7, 9.9926112e-8
-0.435, 1.0753172e-7, 8.9480771e-8
-0.436, 1.0606142e-7, 9.0317755e-8
-0.437, 1.0639602e-7, 9.0025829e-8
-0.438, 1.1950942e-7, 1.0003183e-7
-0.439, 1.0609342e-7, 8.8531287e-8
-0.440, 1.0475890e-7, 8.8771806e-8
-0.441, 1.0467355e-7, 8.9181086e-8
-0.442, 1.1807404e-7, 9.8826298e-8
-0.443, 1.0468423e-7, 8.8346042e-8
-0.444, 1.0404218e-7, 8.8319858e-8
-0.445, 1.0355046e-7, 8.7463469e-8
-0.446, 1.1698101e-7, 9.8283181e-8
-0.447, 1.0276100e-7, 8.8077392e-8
-0.448, 1.0252436e-7, 8.7584702e-8
-0.449, 1.0173004e-7, 8.7793232e-8
-0.450, 1.0166700e-7, 8.6453859e-8
-0.451, 1.1530704e-7, 9.6358008e-8
-0.452, 1.0159232e-7, 8.6100833e-8
-0.453, 1.0107539e-7, 8.6177451e-8
-0.454, 1.0026944e-7, 8.6080462e-8
-0.455, 1.1386293e-7, 9.5878910e-8
-0.456, 9.9430515e-8, 8.5135824e-8
-0.457, 1.1303953e-7, 9.4996345e-8
-0.458, 1.1254200e-7, 9.5358097e-8
-0.459, 1.1206869e-7, 9.4170019e-8
-0.460, 9.7941793e-8, 8.4222222e-8
-0.461, 1.1184951e-7, 9.4338773e-8
-0.462, 1.1119389e-7, 9.3782077e-8
-0.463, 1.1067986e-7, 9.3950838e-8
-0.464, 9.7189179e-8, 8.3550106e-8
-0.465, 1.1042189e-7, 9.3548344e-8
-0.466, 1.0980894e-7, 9.3264184e-8
-0.467, 1.0934535e-7, 9.3300066e-8
-0.468, 9.5389133e-8, 8.2501693e-8
-0.469, 1.0891570e-7, 9.2093565e-8
-0.470, 1.0805932e-7, 9.2727852e-8
-0.471, 1.0781007e-7, 9.2560057e-8
-0.472, 1.0700411e-7, 9.2568790e-8
-0.473, 9.3314604e-8, 8.1889716e-8
-0.474, 9.2557158e-8, 8.1962455e-8
-0.475, 9.2266198e-8, 8.1639499e-8
-0.476, 9.2678384e-8, 8.1190450e-8
-0.477, 1.0580052e-7, 9.1198388e-8
-0.478, 9.1500979e-8, 8.1478504e-8
-0.479, 9.1488374e-8, 8.0571681e-8
-0.480, 9.1349676e-8, 8.0303032e-8
-0.481, 1.0429531e-7, 9.0577679e-8
-0.482, 9.0870579e-8, 7.9726938e-8
-0.483, 9.0471964e-8, 7.8901593e-8
-0.484, 9.0175192e-8, 7.9626076e-8
-0.485, 1.0377838e-7, 9.0840508e-8
-0.486, 8.9603944e-8, 7.9084899e-8
-0.487, 8.8913403e-8, 7.8455464e-8
-0.488, 8.8824180e-8, 7.8382719e-8
-0.489, 8.8608878e-8, 7.8563119e-8
-0.490, 1.0213350e-7, 8.9139384e-8
-0.491, 8.7979437e-8, 7.7293571e-8
-0.492, 8.7779654e-8, 7.8988876e-8
-0.493, 8.7181249e-8, 7.7956955e-8
-0.494, 1.0057883e-7, 8.8007560e-8
-0.495, 8.7284050e-8, 7.7404138e-8
-0.496, 9.9870832e-8, 8.8238387e-8
-0.497, 9.9971693e-8, 8.7641922e-8
-0.498, 9.9598303e-8, 8.7573063e-8
-0.499, 8.6290918e-8, 7.7047233e-8
-0.500, 9.9406272e-8, 8.6638124e-8
