Dec. 14, 2005   23:50:43
Square Wave Voltammetry
File: z:\users\scottsaunders\git\labwork\ida\12_04_18_psoralen_biofilm\data\swv\control_25um_pyo_tran_swv2_12.txt
Data Source:  Experiment
Instrument Model:  CHI760B
Header: 
Note: 

Init E (V) = 0.1
Final E (V) = -0.5
Incr E (V) = 0.001
Amplitude (V) = 0.025
Frequency (Hz) = 15
Quiet Time (sec) = 2
Sensitivity (A/V) = 1e-7
Sens 2 (A/V) = 1e-7

Potential/V, i1/A, i2/A

0.099, 6.3802347e-8, 5.4849995e-8
0.098, 7.1630730e-8, 6.1697520e-8
0.097, 7.1269689e-8, 6.1378572e-8
0.096, 7.0756414e-8, 6.0856465e-8
0.095, 7.0458213e-8, 6.0634740e-8
0.094, 6.9915629e-8, 6.0253456e-8
0.093, 6.9592858e-8, 5.9995045e-8
0.092, 6.9110044e-8, 5.9504938e-8
0.091, 6.8811005e-8, 5.9252262e-8
0.090, 6.8399061e-8, 5.8927853e-8
0.089, 6.8045232e-8, 5.8715781e-8
0.088, 6.7670605e-8, 5.8308551e-8
0.087, 6.7336849e-8, 5.8012759e-8
0.086, 6.7035089e-8, 5.7867538e-8
0.085, 6.6723295e-8, 5.7572677e-8
0.084, 6.6315842e-8, 5.7194782e-8
0.083, 6.6044670e-8, 5.6938170e-8
0.082, 6.5706189e-8, 5.6749936e-8
0.081, 6.5439515e-8, 5.6550824e-8
0.080, 6.5106462e-8, 5.6170968e-8
0.079, 6.4863166e-8, 5.5980681e-8
0.078, 6.4557277e-8, 5.5794509e-8
0.077, 6.4278318e-8, 5.5555610e-8
0.076, 6.3955660e-8, 5.5243987e-8
0.075, 6.3778856e-8, 5.5069556e-8
0.074, 6.3402815e-8, 5.4838765e-8
0.073, 6.3243249e-8, 5.4712523e-8
0.072, 6.2870171e-8, 5.4307101e-8
0.071, 6.2741904e-8, 5.4206890e-8
0.070, 6.2387244e-8, 5.4028845e-8
0.069, 6.2211505e-8, 5.3841546e-8
0.068, 6.1881522e-8, 5.3499470e-8
0.067, 6.1763060e-8, 5.3407103e-8
0.066, 6.1406041e-8, 5.3221392e-8
0.065, 6.1303403e-8, 5.3093327e-8
0.064, 6.0974244e-8, 5.2744667e-8
0.063, 6.0809263e-8, 5.2626568e-8
0.062, 6.0616756e-8, 5.2582159e-8
0.061, 6.0328695e-8, 5.2257427e-8
0.060, 6.0159216e-8, 5.2018812e-8
0.059, 6.0002968e-8, 5.1954959e-8
0.058, 5.9722829e-8, 5.1850787e-8
0.057, 5.9571530e-8, 5.1633350e-8
0.056, 5.9349503e-8, 5.1378578e-8
0.055, 5.9140341e-8, 5.1234636e-8
0.054, 5.8972752e-8, 5.1203738e-8
0.053, 5.8754615e-8, 5.0949023e-8
0.052, 5.8512978e-8, 5.0672025e-8
0.051, 5.8414241e-8, 5.0642488e-8
0.050, 5.8146732e-8, 5.0489469e-8
0.049, 5.8110480e-8, 5.0451494e-8
0.048, 5.7870018e-8, 5.0133437e-8
0.047, 5.7744113e-8, 5.0041546e-8
0.046, 5.7595898e-8, 4.9981900e-8
0.045, 5.7400435e-8, 4.9843049e-8
0.044, 5.7224355e-8, 4.9630497e-8
0.043, 5.7049316e-8, 4.9481912e-8
0.042, 5.6879365e-8, 4.9369110e-8
0.041, 5.6752409e-8, 4.9360242e-8
0.040, 5.6564737e-8, 4.9098713e-8
0.039, 5.6419474e-8, 4.8951541e-8
0.038, 5.6284833e-8, 4.8843841e-8
0.037, 5.6080044e-8, 4.8819146e-8
0.036, 5.5948711e-8, 4.8624049e-8
0.035, 5.5767778e-8, 4.8401638e-8
0.034, 5.5644712e-8, 4.8333028e-8
0.033, 5.5498973e-8, 4.8336055e-8
0.032, 5.5325362e-8, 4.8100055e-8
0.031, 5.5210087e-8, 4.7934098e-8
0.030, 5.5137576e-8, 4.7876064e-8
0.029, 5.4959358e-8, 4.7778322e-8
0.028, 5.4823303e-8, 4.7768655e-8
0.027, 5.4720314e-8, 4.7584113e-8
0.026, 5.4513634e-8, 4.7335828e-8
0.025, 5.4421985e-8, 4.7300485e-8
0.024, 5.4346401e-8, 4.7269744e-8
0.023, 5.4158733e-8, 4.7183331e-8
0.022, 5.4055157e-8, 4.7012129e-8
0.021, 5.3914967e-8, 4.6830969e-8
0.020, 5.3800882e-8, 4.6782873e-8
0.019, 5.3646634e-8, 4.6711040e-8
0.018, 5.3565973e-8, 4.6659377e-8
0.017, 5.3455544e-8, 4.6477314e-8
0.016, 5.3295985e-8, 4.6339082e-8
0.015, 5.3243433e-8, 4.6304230e-8
0.014, 5.3056944e-8, 4.6261199e-8
0.013, 5.2936954e-8, 4.6086143e-8
0.012, 5.2821683e-8, 4.5919428e-8
0.011, 5.2749755e-8, 4.5865448e-8
0.010, 5.2570122e-8, 4.5864496e-8
0.009, 5.2500322e-8, 4.5713648e-8
0.008, 5.2356359e-8, 4.5518352e-8
0.007, 5.2313482e-8, 4.5509999e-8
0.006, 5.2197862e-8, 4.5502794e-8
0.005, 5.2144951e-8, 4.5399439e-8
0.004, 5.1952206e-8, 4.5167766e-8
0.003, 5.1956221e-8, 4.5160824e-8
0.002, 5.1749005e-8, 4.5085741e-8
0.001, 5.1756270e-8, 4.5070621e-8
-0.000, 5.1553137e-8, 4.4839560e-8
-0.001, 5.1495089e-8, 4.4770957e-8
-0.002, 5.1339427e-8, 4.4657217e-8
-0.003, 5.1227467e-8, 4.4702855e-8
-0.004, 5.1182582e-8, 4.4572946e-8
-0.005, 5.1050542e-8, 4.4385949e-8
-0.006, 5.0961852e-8, 4.4349971e-8
-0.007, 5.0867129e-8, 4.4351328e-8
-0.008, 5.0799045e-8, 4.4243976e-8
-0.009, 5.0683830e-8, 4.4058147e-8
-0.010, 5.0742823e-8, 4.4117776e-8
-0.011, 5.0530531e-8, 4.4005027e-8
-0.012, 5.0467463e-8, 4.3949647e-8
-0.013, 5.0369735e-8, 4.3799758e-8
-0.014, 5.0311925e-8, 4.3729550e-8
-0.015, 5.0246499e-8, 4.3717204e-8
-0.016, 5.0104831e-8, 4.3678128e-8
-0.017, 5.0014659e-8, 4.3488939e-8
-0.018, 4.9976983e-8, 4.3444228e-8
-0.019, 4.9866909e-8, 4.3375906e-8
-0.020, 4.9783708e-8, 4.3352919e-8
-0.021, 4.9693121e-8, 4.3235424e-8
-0.022, 4.9702450e-8, 4.3179771e-8
-0.023, 4.9518505e-8, 4.3113545e-8
-0.024, 4.9487802e-8, 4.3090928e-8
-0.025, 4.9404417e-8, 4.2954078e-8
-0.026, 4.9428152e-8, 4.2983352e-8
-0.027, 4.9234231e-8, 4.2933678e-8
-0.028, 4.9212971e-8, 4.2836319e-8
-0.029, 4.9148369e-8, 4.2716870e-8
-0.030, 4.9082111e-8, 4.2689450e-8
-0.031, 4.8971803e-8, 4.2722185e-8
-0.032, 4.8980013e-8, 4.2653468e-8
-0.033, 4.8865864e-8, 4.2484793e-8
-0.034, 4.8825711e-8, 4.2487834e-8
-0.035, 4.8721720e-8, 4.2512774e-8
-0.036, 4.8694439e-8, 4.2379263e-8
-0.037, 4.8671936e-8, 4.2298936e-8
-0.038, 4.8598658e-8, 4.2259174e-8
-0.039, 4.8513918e-8, 4.2319044e-8
-0.040, 4.8478604e-8, 4.2191992e-8
-0.041, 4.8383114e-8, 4.2060044e-8
-0.042, 4.8380162e-8, 4.2089219e-8
-0.043, 4.8258695e-8, 4.2099536e-8
-0.044, 4.8267140e-8, 4.2038636e-8
-0.045, 4.8198523e-8, 4.1902968e-8
-0.046, 4.8230227e-8, 4.1911175e-8
-0.047, 4.8149332e-8, 4.1902609e-8
-0.048, 4.8069019e-8, 4.1918632e-8
-0.049, 4.8094233e-8, 4.1828564e-8
-0.050, 4.8013984e-8, 4.1717257e-8
-0.051, 4.7944184e-8, 4.1692587e-8
-0.052, 4.7885550e-8, 4.1757851e-8
-0.053, 4.7912064e-8, 4.1724952e-8
-0.054, 4.7840729e-8, 4.1595783e-8
-0.055, 4.7860567e-8, 4.1607144e-8
-0.056, 4.7782969e-8, 4.1587612e-8
-0.057, 4.7786166e-8, 4.1598383e-8
-0.058, 4.7757876e-8, 4.1509310e-8
-0.059, 4.7691621e-8, 4.1437641e-8
-0.060, 4.7681937e-8, 4.1459604e-8
-0.061, 4.7553200e-8, 4.1470173e-8
-0.062, 4.7593417e-8, 4.1417024e-8
-0.063, 4.7454584e-8, 4.1242398e-8
-0.064, 4.7506546e-8, 4.1301561e-8
-0.065, 4.7489959e-8, 4.1344769e-8
-0.066, 4.7471122e-8, 4.1344215e-8
-0.067, 4.7424940e-8, 4.1264908e-8
-0.068, 4.7416556e-8, 4.1197765e-8
-0.069, 4.7372389e-8, 4.1189992e-8
-0.070, 4.7317705e-8, 4.1283670e-8
-0.071, 4.7345637e-8, 4.1239161e-8
-0.072, 4.7308845e-8, 4.1113694e-8
-0.073, 4.7292904e-8, 4.1090686e-8
-0.074, 4.7285461e-8, 4.1128651e-8
-0.075, 4.7251689e-8, 4.1180432e-8
-0.076, 4.7191158e-8, 4.1062286e-8
-0.077, 4.7232490e-8, 4.1027519e-8
-0.078, 4.7238871e-8, 4.1085769e-8
-0.079, 4.7057995e-8, 4.1054307e-8
-0.080, 4.7149999e-8, 4.1021671e-8
-0.081, 4.7100691e-8, 4.0931788e-8
-0.082, 4.7179526e-8, 4.0985395e-8
-0.083, 4.7126079e-8, 4.1042693e-8
-0.084, 4.7078604e-8, 4.1024389e-8
-0.085, 4.7006623e-8, 4.0861007e-8
-0.086, 4.7053859e-8, 4.0891361e-8
-0.087, 4.7084860e-8, 4.0972871e-8
-0.088, 4.7077720e-8, 4.0995086e-8
-0.089, 4.6986841e-8, 4.0847628e-8
-0.090, 4.7062841e-8, 4.0902485e-8
-0.091, 4.7018371e-8, 4.0932250e-8
-0.092, 4.6979221e-8, 4.0965109e-8
-0.093, 4.7009280e-8, 4.0904361e-8
-0.094, 4.6992447e-8, 4.0850956e-8
-0.095, 4.6951229e-8, 4.0853909e-8
-0.096, 4.6946919e-8, 4.0892903e-8
-0.097, 4.6952060e-8, 4.0825174e-8
-0.098, 4.7000537e-8, 4.0859661e-8
-0.099, 4.6888044e-8, 4.0864450e-8
-0.100, 4.6909658e-8, 4.0880025e-8
-0.101, 4.6894069e-8, 4.0797996e-8
-0.102, 4.6915858e-8, 4.0822808e-8
-0.103, 4.6827576e-8, 4.0854097e-8
-0.104, 4.6931270e-8, 4.0873463e-8
-0.105, 4.6907179e-8, 4.0780652e-8
-0.106, 4.6940897e-8, 4.0875520e-8
-0.107, 4.6934815e-8, 4.0868400e-8
-0.108, 4.6846530e-8, 4.0754131e-8
-0.109, 4.6861945e-8, 4.0803709e-8
-0.110, 4.6855980e-8, 4.0896651e-8
-0.111, 4.6899444e-8, 4.0829907e-8
-0.112, 4.6879954e-8, 4.0757019e-8
-0.113, 4.6839681e-8, 4.0816207e-8
-0.114, 4.6948749e-8, 4.0923041e-8
-0.115, 4.6835900e-8, 4.0771749e-8
-0.116, 4.6919698e-8, 4.0849372e-8
-0.117, 4.6909243e-8, 4.0931670e-8
-0.118, 4.6942727e-8, 4.0836682e-8
-0.119, 4.6937057e-8, 4.0847226e-8
-0.120, 4.6824738e-8, 4.0855205e-8
-0.121, 4.6923887e-8, 4.0884608e-8
-0.122, 4.6945445e-8, 4.0843439e-8
-0.123, 4.6930801e-8, 4.0857103e-8
-0.124, 4.6977092e-8, 4.0950745e-8
-0.125, 4.6911900e-8, 4.0852441e-8
-0.126, 4.6997055e-8, 4.0906812e-8
-0.127, 4.6918160e-8, 4.0958611e-8
-0.128, 4.7031715e-8, 4.0985327e-8
-0.129, 4.7007269e-8, 4.0942307e-8
-0.130, 4.7057345e-8, 4.0991509e-8
-0.131, 4.6983352e-8, 4.1034973e-8
-0.132, 4.7047894e-8, 4.0999268e-8
-0.133, 4.7121240e-8, 4.1022727e-8
-0.134, 4.7073115e-8, 4.1002764e-8
-0.135, 4.7056517e-8, 4.1090885e-8
-0.136, 4.7139430e-8, 4.1086295e-8
-0.137, 4.7172435e-8, 4.1095799e-8
-0.138, 4.7212890e-8, 4.1130249e-8
-0.139, 4.7164587e-8, 4.1228184e-8
-0.140, 4.7213067e-8, 4.1181064e-8
-0.141, 4.7218851e-8, 4.1103668e-8
-0.142, 4.7235211e-8, 4.1170210e-8
-0.143, 4.7188912e-8, 4.1252015e-8
-0.144, 4.7350952e-8, 4.1305245e-8
-0.145, 4.7249266e-8, 4.1161453e-8
-0.146, 4.7343448e-8, 4.1268279e-8
-0.147, 4.7310618e-8, 4.1338176e-8
-0.148, 4.7365891e-8, 4.1329145e-8
-0.149, 4.7455057e-8, 4.1342364e-8
-0.150, 4.7509033e-8, 4.1398806e-8
-0.151, 4.7501238e-8, 4.1413415e-8
-0.152, 4.7471655e-8, 4.1517655e-8
-0.153, 4.7547243e-8, 4.1518749e-8
-0.154, 4.7605937e-8, 4.1459376e-8
-0.155, 4.7606470e-8, 4.1523485e-8
-0.156, 4.7629207e-8, 4.1648700e-8
-0.157, 4.7676501e-8, 4.1644313e-8
-0.158, 4.7714238e-8, 4.1594568e-8
-0.159, 4.7820471e-8, 4.1684260e-8
-0.160, 4.7767855e-8, 4.1721908e-8
-0.161, 4.7869719e-8, 4.1824080e-8
-0.162, 4.7990660e-8, 4.1869338e-8
-0.163, 4.7960185e-8, 4.1825423e-8
-0.164, 4.7943296e-8, 4.1859032e-8
-0.165, 4.8009966e-8, 4.2039801e-8
-0.166, 4.8078352e-8, 4.2031601e-8
-0.167, 4.8040562e-8, 4.1926874e-8
-0.168, 4.8187538e-8, 4.2032990e-8
-0.169, 4.8212812e-8, 4.2141817e-8
-0.170, 4.8271865e-8, 4.2256644e-8
-0.171, 4.8294478e-8, 4.2208104e-8
-0.172, 4.8401898e-8, 4.2211944e-8
-0.173, 4.8427523e-8, 4.2299924e-8
-0.174, 4.8456993e-8, 4.2431736e-8
-0.175, 4.8575330e-8, 4.2523531e-8
-0.176, 4.8647077e-8, 4.2518394e-8
-0.177, 4.8716700e-8, 4.2543164e-8
-0.178, 4.8735185e-8, 4.2604327e-8
-0.179, 4.8724203e-8, 4.2725492e-8
-0.180, 4.8839055e-8, 4.2754994e-8
-0.181, 4.8935426e-8, 4.2749654e-8
-0.182, 4.9013551e-8, 4.2852598e-8
-0.183, 4.9057903e-8, 4.2921219e-8
-0.184, 4.9100361e-8, 4.3064663e-8
-0.185, 4.9151438e-8, 4.3043389e-8
-0.186, 4.9270366e-8, 4.3092378e-8
-0.187, 4.9302553e-8, 4.3188070e-8
-0.188, 4.9304617e-8, 4.3279929e-8
-0.189, 4.9444871e-8, 4.3329880e-8
-0.190, 4.9446697e-8, 4.3279854e-8
-0.191, 4.9551041e-8, 4.3396415e-8
-0.192, 4.9607088e-8, 4.3561865e-8
-0.193, 4.9740720e-8, 4.3586368e-8
-0.194, 4.9788611e-8, 4.3601506e-8
-0.195, 4.9822091e-8, 4.3675016e-8
-0.196, 4.9839098e-8, 4.3757527e-8
-0.197, 4.9995464e-8, 4.3816911e-8
-0.198, 5.0035446e-8, 4.3829349e-8
-0.199, 4.9930630e-8, 4.3866006e-8
-0.200, 5.0063200e-8, 4.3940091e-8
-0.201, 5.0066209e-8, 4.3925400e-8
-0.202, 5.0219686e-8, 4.4058755e-8
-0.203, 5.0214076e-8, 4.4129507e-8
-0.204, 5.0230195e-8, 4.4057810e-8
-0.205, 5.0339089e-8, 4.4151069e-8
-0.206, 5.0254879e-8, 4.4199290e-8
-0.207, 5.0373220e-8, 4.4263299e-8
-0.208, 5.0394714e-8, 4.4236373e-8
-0.209, 5.0491206e-8, 4.4332797e-8
-0.210, 5.0464038e-8, 4.4408345e-8
-0.211, 5.0473844e-8, 4.4278671e-8
-0.212, 5.0525159e-8, 4.4317627e-8
-0.213, 5.0492389e-8, 4.4395044e-8
-0.214, 5.0505559e-8, 4.4380684e-8
-0.215, 5.0508980e-8, 4.4323937e-8
-0.216, 5.0531831e-8, 4.4355591e-8
-0.217, 5.0548483e-8, 4.4483652e-8
-0.218, 5.0564964e-8, 4.4438046e-8
-0.219, 5.0468415e-8, 4.4304841e-8
-0.220, 5.0587811e-8, 4.4414271e-8
-0.221, 5.0576357e-8, 4.4503722e-8
-0.222, 5.0555272e-8, 4.4402498e-8
-0.223, 5.0527937e-8, 4.4320061e-8
-0.224, 5.0524928e-8, 4.4364093e-8
-0.225, 5.0428199e-8, 4.4401371e-8
-0.226, 5.0462564e-8, 4.4339224e-8
-0.227, 5.0404577e-8, 4.4223142e-8
-0.228, 5.0386507e-8, 4.4231328e-8
-0.229, 5.0389520e-8, 4.4327528e-8
-0.230, 5.0344582e-8, 4.4212424e-8
-0.231, 5.0268049e-8, 4.4106915e-8
-0.232, 5.0266337e-8, 4.4075232e-8
-0.233, 5.0196949e-8, 4.4044029e-8
-0.234, 5.0127209e-8, 4.4098183e-8
-0.235, 5.0121781e-8, 4.3980911e-8
-0.236, 5.0040995e-8, 4.3856154e-8
-0.237, 4.9991979e-8, 4.3848047e-8
-0.238, 4.9851085e-8, 4.3792486e-8
-0.239, 4.9946809e-8, 4.3866031e-8
-0.240, 4.9802189e-8, 4.3634191e-8
-0.241, 4.9768470e-8, 4.3608132e-8
-0.242, 4.9723297e-8, 4.3565269e-8
-0.243, 4.9598228e-8, 4.3587896e-8
-0.244, 4.9620724e-8, 4.3535774e-8
-0.245, 4.9494176e-8, 4.3333817e-8
-0.246, 4.9457149e-8, 4.3296577e-8
-0.247, 4.9412154e-8, 4.3301394e-8
-0.248, 4.9322924e-8, 4.3314436e-8
-0.249, 4.9277929e-8, 4.3226933e-8
-0.250, 4.9174176e-8, 4.3038508e-8
-0.251, 4.9211909e-8, 4.3055547e-8
-0.252, 4.9106912e-8, 4.3018854e-8
-0.253, 4.9057014e-8, 4.3065327e-8
-0.254, 4.9044495e-8, 4.2966022e-8
-0.255, 4.8925983e-8, 4.2797186e-8
-0.256, 4.8934069e-8, 4.2809862e-8
-0.257, 4.8797482e-8, 4.2816222e-8
-0.258, 4.8814488e-8, 4.2748361e-8
-0.259, 4.8744511e-8, 4.2631818e-8
-0.260, 4.8797361e-8, 4.2662506e-8
-0.261, 4.8676899e-8, 4.2606732e-8
-0.262, 4.8633080e-8, 4.2641510e-8
-0.263, 4.8633204e-8, 4.2577465e-8
-0.264, 4.8555840e-8, 4.2443279e-8
-0.265, 4.8579111e-8, 4.2485905e-8
-0.266, 4.8513208e-8, 4.2564295e-8
-0.267, 4.8512678e-8, 4.2476447e-8
-0.268, 4.8401247e-8, 4.2334797e-8
-0.269, 4.8467328e-8, 4.2389111e-8
-0.270, 4.8385242e-8, 4.2446143e-8
-0.271, 4.8384713e-8, 4.2350173e-8
-0.272, 4.8330620e-8, 4.2225199e-8
-0.273, 4.8334460e-8, 4.2260691e-8
-0.274, 4.8298439e-8, 4.2351779e-8
-0.275, 4.8396995e-8, 4.2346699e-8
-0.276, 4.8253678e-8, 4.2199794e-8
-0.277, 4.8311723e-8, 4.2233381e-8
-0.278, 4.8223558e-8, 4.2290576e-8
-0.279, 4.8248719e-8, 4.2225025e-8
-0.280, 4.8249657e-8, 4.2197119e-8
-0.281, 4.8249721e-8, 4.2213653e-8
-0.282, 4.8301981e-8, 4.2315065e-8
-0.283, 4.8228639e-8, 4.2160188e-8
-0.284, 4.8326193e-8, 4.2230315e-8
-0.285, 4.8201120e-8, 4.2233001e-8
-0.286, 4.8256748e-8, 4.2279655e-8
-0.287, 4.8234128e-8, 4.2169471e-8
-0.288, 4.8191907e-8, 4.2168018e-8
-0.289, 4.8287632e-8, 4.2279758e-8
-0.290, 4.8333629e-8, 4.2288804e-8
-0.291, 4.8275229e-8, 4.2194024e-8
-0.292, 4.8322473e-8, 4.2240597e-8
-0.293, 4.8035300e-8, 4.2197549e-8
-0.294, 4.8413881e-8, 4.2408821e-8
-0.295, 4.8026738e-8, 4.2110141e-8
-0.296, 4.8318043e-8, 4.2261913e-8
-0.297, 4.8310959e-8, 4.2410996e-8
-0.298, 4.8405084e-8, 4.2394458e-8
-0.299, 4.8364988e-8, 4.2305619e-8
-0.300, 4.8268141e-8, 4.2343519e-8
-0.301, 4.8394394e-8, 4.2469146e-8
-0.302, 4.8352881e-8, 4.2374346e-8
-0.303, 4.8412108e-8, 4.2392802e-8
-0.304, 4.8358963e-8, 4.2441616e-8
-0.305, 4.8531099e-8, 4.2551470e-8
-0.306, 4.8455927e-8, 4.2435843e-8
-0.307, 4.8420556e-8, 4.2495181e-8
-0.308, 4.8479134e-8, 4.2622361e-8
-0.309, 4.8546276e-8, 4.2601719e-8
-0.310, 4.8568893e-8, 4.2564587e-8
-0.311, 4.8557673e-8, 4.2601869e-8
-0.312, 4.8603500e-8, 4.2688026e-8
-0.313, 4.8590039e-8, 4.2595477e-8
-0.314, 4.8678139e-8, 4.2656815e-8
-0.315, 4.8644601e-8, 4.2777053e-8
-0.316, 4.8724083e-8, 4.2807336e-8
-0.317, 4.8801795e-8, 4.2801329e-8
-0.318, 4.8793883e-8, 4.2848789e-8
-0.319, 4.8812364e-8, 4.2954120e-8
-0.320, 4.8761287e-8, 4.2805929e-8
-0.321, 4.8916114e-8, 4.2957499e-8
-0.322, 4.8865513e-8, 4.3053380e-8
-0.323, 4.8946472e-8, 4.3032980e-8
-0.324, 4.8980013e-8, 4.3014758e-8
-0.325, 4.9041251e-8, 4.3133127e-8
-0.326, 4.9084065e-8, 4.3163134e-8
-0.327, 4.9003276e-8, 4.3072820e-8
-0.328, 4.9139040e-8, 4.3188724e-8
-0.329, 4.9202345e-8, 4.3364810e-8
-0.330, 4.9174172e-8, 4.3245457e-8
-0.331, 4.9310643e-8, 4.3372442e-8
-0.332, 4.9277929e-8, 4.3428717e-8
-0.333, 4.9395794e-8, 4.3513264e-8
-0.334, 4.9352096e-8, 4.3441513e-8
-0.335, 4.9422368e-8, 4.3511015e-8
-0.336, 4.9444630e-8, 4.3654854e-8
-0.337, 4.9551279e-8, 4.3632809e-8
-0.338, 4.9642747e-8, 4.3688658e-8
-0.339, 4.9643930e-8, 4.3800156e-8
-0.340, 4.9700915e-8, 4.3840004e-8
-0.341, 4.9801955e-8, 4.3856090e-8
-0.342, 4.9819608e-8, 4.3944567e-8
-0.343, 4.9876654e-8, 4.4010566e-8
-0.344, 4.9931156e-8, 4.4034920e-8
-0.345, 5.0056467e-8, 4.4158462e-8
-0.346, 5.0065090e-8, 4.4210886e-8
-0.347, 5.0100933e-8, 4.4183921e-8
-0.348, 5.0138368e-8, 4.4307132e-8
-0.349, 5.0285880e-8, 4.4363475e-8
-0.350, 5.0421228e-8, 4.4460144e-8
-0.351, 5.0446328e-8, 4.4630465e-8
-0.352, 5.0439713e-8, 4.4536151e-8
-0.353, 5.0599979e-8, 4.4707814e-8
-0.354, 5.0672494e-8, 4.4795243e-8
-0.355, 5.0761486e-8, 4.4821036e-8
-0.356, 5.0747435e-8, 4.4908063e-8
-0.357, 5.0883784e-8, 4.4944461e-8
-0.358, 5.0987296e-8, 4.5071044e-8
-0.359, 5.0999226e-8, 4.5149513e-8
-0.360, 5.1119049e-8, 4.5172573e-8
-0.361, 5.1169174e-8, 4.5357719e-8
-0.362, 5.1229058e-8, 4.5340020e-8
-0.363, 5.1464443e-8, 4.5551662e-8
-0.364, 5.1487351e-8, 4.5579199e-8
-0.365, 5.1620628e-8, 4.5671225e-8
-0.366, 5.1643067e-8, 4.5797925e-8
-0.367, 5.1727159e-8, 4.5791275e-8
-0.368, 5.1850634e-8, 4.5925379e-8
-0.369, 5.1924150e-8, 4.6035442e-8
-0.370, 5.2110579e-8, 4.6146035e-8
-0.371, 5.2109161e-8, 4.6282146e-8
-0.372, 5.2207191e-8, 4.6301523e-8
-0.373, 5.2338461e-8, 4.6469189e-8
-0.374, 5.2481486e-8, 4.6518618e-8
-0.375, 5.2604733e-8, 4.6642974e-8
-0.376, 5.2669030e-8, 4.6786571e-8
-0.377, 5.2707179e-8, 4.6811483e-8
-0.378, 5.2842942e-8, 4.6975853e-8
-0.379, 5.2934706e-8, 4.7011419e-8
-0.380, 5.3153549e-8, 4.7168157e-8
-0.381, 5.3264337e-8, 4.7406537e-8
-0.382, 5.3201209e-8, 4.7307228e-8
-0.383, 5.3417395e-8, 4.7466489e-8
-0.384, 5.3612979e-8, 4.7627463e-8
-0.385, 5.3667069e-8, 4.7686807e-8
-0.386, 5.3736333e-8, 4.7873829e-8
-0.387, 5.3907293e-8, 4.7913765e-8
-0.388, 5.3969121e-8, 4.8050296e-8
-0.389, 5.4113144e-8, 4.8281795e-8
-0.390, 5.4270640e-8, 4.8278789e-8
-0.391, 5.4280498e-8, 4.8419810e-8
-0.392, 5.4510032e-8, 4.8534467e-8
-0.393, 5.4410528e-8, 4.8573661e-8
-0.394, 5.4676210e-8, 4.8723095e-8
-0.395, 5.4790529e-8, 4.8822017e-8
-0.396, 5.4833816e-8, 4.8998825e-8
-0.397, 5.4911879e-8, 4.8996419e-8
-0.398, 5.5015931e-8, 4.9093465e-8
-0.399, 5.5213984e-8, 4.9275478e-8
-0.400, 5.5332926e-8, 4.9357386e-8
-0.401, 5.5334986e-8, 4.9533231e-8
-0.402, 5.5500397e-8, 4.9551872e-8
-0.403, 5.5571256e-8, 4.9660720e-8
-0.404, 5.5682392e-8, 4.9879194e-8
-0.405, 5.5754366e-8, 4.9887344e-8
-0.406, 5.5913809e-8, 5.0068998e-8
-0.407, 5.6046616e-8, 5.0145815e-8
-0.408, 5.6186099e-8, 5.0259093e-8
-0.409, 5.6173935e-8, 5.0374968e-8
-0.410, 5.6373704e-8, 5.0486236e-8
-0.411, 5.6442854e-8, 5.0590458e-8
-0.412, 5.6563497e-8, 5.0765554e-8
-0.413, 5.6574901e-8, 5.0732318e-8
-0.414, 5.6827993e-8, 5.0986365e-8
-0.415, 5.6874878e-8, 5.1077180e-8
-0.416, 5.6989322e-8, 5.1161965e-8
-0.417, 5.7086524e-8, 5.1311051e-8
-0.418, 5.7185961e-8, 5.1431641e-8
-0.419, 5.7335722e-8, 5.1546007e-8
-0.420, 5.7376287e-8, 5.1673599e-8
-0.421, 5.7590231e-8, 5.1844562e-8
-0.422, 5.7698301e-8, 5.1911268e-8
-0.423, 5.7705737e-8, 5.2111666e-8
-0.424, 5.7896298e-8, 5.2144685e-8
-0.425, 5.8077703e-8, 5.2359223e-8
-0.426, 5.8181936e-8, 5.2572005e-8
-0.427, 5.8228878e-8, 5.2555198e-8
-0.428, 5.8418259e-8, 5.2750174e-8
-0.429, 5.8572144e-8, 5.2932897e-8
-0.430, 5.8709613e-8, 5.3027669e-8
-0.431, 5.8741328e-8, 5.3223904e-8
-0.432, 5.8942572e-8, 5.3317656e-8
-0.433, 5.9121618e-8, 5.3511233e-8
-0.434, 5.9266949e-8, 5.3680935e-8
-0.435, 5.9455850e-8, 5.3838388e-8
-0.436, 5.9547208e-8, 5.4057562e-8
-0.437, 5.9701925e-8, 5.4160466e-8
-0.438, 5.9911670e-8, 5.4374521e-8
-0.439, 6.0056053e-8, 5.4526282e-8
-0.440, 6.0282758e-8, 5.4694418e-8
-0.441, 6.0396367e-8, 5.4962069e-8
-0.442, 6.0549553e-8, 5.5096020e-8
-0.443, 6.0710228e-8, 5.5307925e-8
-0.444, 6.0975843e-8, 5.5494414e-8
-0.445, 6.1159504e-8, 5.5700166e-8
-0.446, 6.1319703e-8, 5.5978813e-8
-0.447, 6.1485757e-8, 5.6084243e-8
-0.448, 6.1685526e-8, 5.6317155e-8
-0.449, 6.1929590e-8, 5.6537925e-8
-0.450, 6.2236722e-8, 5.6799063e-8
-0.451, 6.2320993e-8, 5.7052304e-8
-0.452, 6.2594395e-8, 5.7205369e-8
-0.453, 6.2864913e-8, 5.7498553e-8
-0.454, 6.3084883e-8, 5.7819122e-8
-0.455, 6.3290621e-8, 5.7949020e-8
-0.456, 6.3565089e-8, 5.8259570e-8
-0.457, 6.3754818e-8, 5.8581087e-8
-0.458, 6.4079664e-8, 5.8758129e-8
-0.459, 6.4443597e-8, 5.9106405e-8
-0.460, 6.4613680e-8, 5.9412756e-8
-0.461, 6.4907518e-8, 5.9677582e-8
-0.462, 6.5134621e-8, 5.9879895e-8
-0.463, 6.5509312e-8, 6.0296408e-8
-0.464, 6.5769193e-8, 6.0650983e-8
-0.465, 6.6078570e-8, 6.0901101e-8
-0.466, 6.6431291e-8, 6.1185403e-8
-0.467, 6.6695897e-8, 6.1498426e-8
-0.468, 6.6960027e-8, 6.1876484e-8
-0.469, 6.7398972e-8, 6.2252475e-8
-0.470, 6.7734085e-8, 6.2549304e-8
-0.471, 6.8090756e-8, 6.2933481e-8
-0.472, 6.8402905e-8, 6.3401650e-8
-0.473, 6.8728340e-8, 6.3662149e-8
-0.474, 6.9107394e-8, 6.3973424e-8
-0.475, 6.9548101e-8, 6.4432001e-8
-0.476, 6.9902171e-8, 6.4825883e-8
-0.477, 7.0241605e-8, 6.5280446e-8
-0.478, 7.0669962e-8, 6.5646972e-8
-0.479, 7.1065607e-8, 6.5968401e-8
-0.480, 7.1519530e-8, 6.6459521e-8
-0.481, 7.1878567e-8, 6.6893328e-8
-0.482, 7.2306342e-8, 6.7424381e-8
-0.483, 7.2770490e-8, 6.7794460e-8
-0.484, 7.3189646e-8, 6.8161413e-8
-0.485, 7.3701734e-8, 6.8682937e-8
-0.486, 7.4181763e-8, 6.9222253e-8
-0.487, 7.4589288e-8, 6.9761896e-8
-0.488, 7.5128185e-8, 7.0195696e-8
-0.489, 7.5521235e-8, 7.0556588e-8
-0.490, 7.6188115e-8, 7.1197320e-8
-0.491, 7.6641506e-8, 7.1732380e-8
-0.492, 7.7064442e-8, 7.2295350e-8
-0.493, 7.7610665e-8, 7.2751341e-8
-0.494, 7.8128437e-8, 7.3215460e-8
-0.495, 7.8796788e-8, 7.3893112e-8
-0.496, 7.9311832e-8, 7.4428897e-8
-0.497, 7.9815713e-8, 7.5115516e-8
-0.498, 8.0521332e-8, 7.5702410e-8
-0.499, 8.1095557e-8, 7.6236617e-8
-0.500, 8.1603758e-8, 7.6758717e-8
