Dec. 15, 2005   02:26:53
Square Wave Voltammetry
File: z:\users\scottsaunders\git\labwork\ida\12_04_18_psoralen_biofilm\data\swv\psoralen_75um_pyo_tran_swv_35.txt
Data Source:  Experiment
Instrument Model:  CHI760B
Header: 
Note: 

Init E (V) = 0.1
Final E (V) = -0.5
Incr E (V) = 0.001
Amplitude (V) = 0.025
Frequency (Hz) = 15
Quiet Time (sec) = 2
Sensitivity (A/V) = 1e-7
Sens 2 (A/V) = 1e-7

Potential/V, i1/A, i2/A

0.099, 1.0963417e-7, 9.2871581e-8
0.098, 1.2906085e-7, 1.0583059e-7
0.097, 1.3106302e-7, 1.0824882e-7
0.096, 1.3210067e-7, 1.0889640e-7
0.095, 1.3064259e-7, 1.0860273e-7
0.094, 1.3007755e-7, 1.0795952e-7
0.093, 1.2966836e-7, 1.0864376e-7
0.092, 1.3058295e-7, 1.0878952e-7
0.091, 1.2838612e-7, 1.0717471e-7
0.090, 1.2796248e-7, 1.0667902e-7
0.089, 1.2751499e-7, 1.0601370e-7
0.088, 1.2694163e-7, 1.0632647e-7
0.087, 1.2770974e-7, 1.0725559e-7
0.086, 1.2560119e-7, 1.0580451e-7
0.085, 1.2540197e-7, 1.0347539e-7
0.084, 1.2463492e-7, 1.0478732e-7
0.083, 1.2546006e-7, 1.0545720e-7
0.082, 1.2366516e-7, 1.0491533e-7
0.081, 1.2327683e-7, 1.0409571e-7
0.080, 1.2301177e-7, 1.0298484e-7
0.079, 1.2351668e-7, 1.0376528e-7
0.078, 1.2174233e-7, 1.0340489e-7
0.077, 1.2269220e-7, 1.0445059e-7
0.076, 1.2212541e-7, 1.0404849e-7
0.075, 1.2145399e-7, 1.0369314e-7
0.074, 1.1976371e-7, 1.0116569e-7
0.073, 1.2113267e-7, 1.0273752e-7
0.072, 1.2057812e-7, 1.0226133e-7
0.071, 1.1984199e-7, 1.0296719e-7
0.070, 1.1803815e-7, 1.0193158e-7
0.069, 1.1899259e-7, 1.0086949e-7
0.068, 1.1837412e-7, 1.0209355e-7
0.067, 1.1814426e-7, 1.0158883e-7
0.066, 1.1818946e-7, 1.0137033e-7
0.065, 1.1592950e-7, 1.0039019e-7
0.064, 1.1579266e-7, 9.8426710e-8
0.063, 1.1529065e-7, 9.8177956e-8
0.062, 1.1462252e-7, 9.7481397e-8
0.061, 1.1598730e-7, 1.0033374e-7
0.060, 1.1427434e-7, 9.8198221e-8
0.059, 1.1374452e-7, 9.7940436e-8
0.058, 1.1352746e-7, 9.7104035e-8
0.057, 1.1419356e-7, 9.9044229e-8
0.056, 1.1282916e-7, 9.6792803e-8
0.055, 1.1237178e-7, 9.8439422e-8
0.054, 1.1171355e-7, 9.7314199e-8
0.053, 1.1313700e-7, 9.8645422e-8
0.052, 1.1171790e-7, 9.6664195e-8
0.051, 1.1151046e-7, 9.5837784e-8
0.050, 1.1108546e-7, 9.5461189e-8
0.049, 1.1221340e-7, 9.6227765e-8
0.048, 1.1040618e-7, 9.5121166e-8
0.047, 1.1015644e-7, 9.5946504e-8
0.046, 1.0999486e-7, 9.5311350e-8
0.045, 1.1006323e-7, 9.4763962e-8
0.044, 1.0945038e-7, 9.5392821e-8
0.043, 1.1066299e-7, 9.5547307e-8
0.042, 1.0883501e-7, 9.4267108e-8
0.041, 1.0825581e-7, 9.4437318e-8
0.040, 1.0842815e-7, 9.3417903e-8
0.039, 1.0953563e-7, 9.4987520e-8
0.038, 1.0778621e-7, 9.3998842e-8
0.037, 1.0747847e-7, 9.4110959e-8
0.036, 1.0743987e-7, 9.3071954e-8
0.035, 1.0873259e-7, 9.3775199e-8
0.034, 1.0690199e-7, 9.2556959e-8
0.033, 1.0629854e-7, 9.3028902e-8
0.032, 1.0630582e-7, 9.1813185e-8
0.031, 1.0726501e-7, 9.3616137e-8
0.030, 1.0573051e-7, 9.2208097e-8
0.029, 1.0526352e-7, 9.2716796e-8
0.028, 1.0520115e-7, 9.2371330e-8
0.027, 1.0673072e-7, 9.2633002e-8
0.026, 1.0488110e-7, 9.1083265e-8
0.025, 1.0458733e-7, 9.1005099e-8
0.024, 1.0450471e-7, 9.0853604e-8
0.023, 1.0530290e-7, 9.2138087e-8
0.022, 1.0370671e-7, 9.0626557e-8
0.021, 1.0538631e-7, 9.1290232e-8
0.020, 1.0456212e-7, 9.2242828e-8
0.019, 1.0471254e-7, 9.1385175e-8
0.018, 1.0346773e-7, 9.0118931e-8
0.017, 1.0415246e-7, 9.1727827e-8
0.016, 1.0413170e-7, 9.0536169e-8
0.015, 1.0405760e-7, 9.0730239e-8
0.014, 1.0251000e-7, 8.9813241e-8
0.013, 1.0364880e-7, 9.1057956e-8
0.012, 1.0189454e-7, 8.9602011e-8
0.011, 1.0194758e-7, 8.9605209e-8
0.010, 1.0158787e-7, 8.8854335e-8
0.009, 1.0275208e-7, 8.9755915e-8
0.008, 1.0122940e-7, 8.8311609e-8
0.007, 1.0073071e-7, 8.8307544e-8
0.006, 1.0096861e-7, 8.8641357e-8
0.005, 1.0147836e-7, 8.9940677e-8
0.004, 1.0058445e-7, 8.8706052e-8
0.003, 1.0016508e-7, 8.8089038e-8
0.002, 9.9740973e-8, 8.8267484e-8
0.001, 1.0067640e-7, 8.8746489e-8
-0.000, 1.0001931e-7, 8.7633396e-8
-0.001, 9.9112988e-8, 8.7617003e-8
-0.002, 9.9678125e-8, 8.5993079e-8
-0.003, 9.9003685e-8, 8.7772378e-8
-0.004, 1.0039523e-7, 8.8080398e-8
-0.005, 9.9097861e-8, 8.6979327e-8
-0.006, 9.8732031e-8, 8.6786997e-8
-0.007, 9.8586455e-8, 8.6707956e-8
-0.008, 9.9233446e-8, 8.8091070e-8
-0.009, 9.8283465e-8, 8.6733849e-8
-0.010, 9.7695448e-8, 8.5983189e-8
-0.011, 9.7745882e-8, 8.6405365e-8
-0.012, 9.9454184e-8, 8.6381505e-8
-0.013, 9.7316331e-8, 8.6214598e-8
-0.014, 9.7754416e-8, 8.5803663e-8
-0.015, 9.7671297e-8, 8.5588937e-8
-0.016, 9.8457363e-8, 8.6889997e-8
-0.017, 9.6765163e-8, 8.5141451e-8
-0.018, 9.6581473e-8, 8.5262776e-8
-0.019, 9.6517368e-8, 8.5140869e-8
-0.020, 9.6180727e-8, 8.5552955e-8
-0.021, 9.5951840e-8, 8.4765340e-8
-0.022, 9.7377722e-8, 8.6129830e-8
-0.023, 9.5766019e-8, 8.5280519e-8
-0.024, 9.5673492e-8, 8.4680096e-8
-0.025, 9.5526559e-8, 8.3884132e-8
-0.026, 9.6903563e-8, 8.5393026e-8
-0.027, 9.5382148e-8, 8.4350923e-8
-0.028, 9.5441990e-8, 8.3871029e-8
-0.029, 9.5315031e-8, 8.4290988e-8
-0.030, 9.6526094e-8, 8.5041066e-8
-0.031, 9.4517524e-8, 8.4415703e-8
-0.032, 9.4662227e-8, 8.3539248e-8
-0.033, 9.4011455e-8, 8.4093813e-8
-0.034, 9.5307186e-8, 8.5319222e-8
-0.035, 9.4008442e-8, 8.3843688e-8
-0.036, 9.4193396e-8, 8.3109896e-8
-0.037, 9.3767241e-8, 8.2700616e-8
-0.038, 9.4545356e-8, 8.4860091e-8
-0.039, 9.3642228e-8, 8.3076046e-8
-0.040, 9.3304138e-8, 8.2516436e-8
-0.041, 9.3485113e-8, 8.2762682e-8
-0.042, 9.3137906e-8, 8.2528373e-8
-0.043, 9.4575228e-8, 8.4156170e-8
-0.044, 9.3286971e-8, 8.2374839e-8
-0.045, 9.2793314e-8, 8.2461057e-8
-0.046, 9.2636292e-8, 8.2511391e-8
-0.047, 9.3812631e-8, 8.3512191e-8
-0.048, 9.2985829e-8, 8.1661703e-8
-0.049, 9.1948863e-8, 8.1778083e-8
-0.050, 9.2357553e-8, 8.2150024e-8
-0.051, 9.3345449e-8, 8.3618872e-8
-0.052, 9.2442519e-8, 8.1409837e-8
-0.053, 9.3694894e-8, 8.2406743e-8
-0.054, 9.3223058e-8, 8.3289997e-8
-0.055, 9.3340219e-8, 8.2591797e-8
-0.056, 9.1576055e-8, 8.1642398e-8
-0.057, 9.2972932e-8, 8.2630201e-8
-0.058, 9.2830746e-8, 8.2331198e-8
-0.059, 9.2919883e-8, 8.2001350e-8
-0.060, 9.1193442e-8, 8.1129841e-8
-0.061, 9.2374727e-8, 8.2246046e-8
-0.062, 9.2209362e-8, 8.2072923e-8
-0.063, 9.2298976e-8, 8.1574129e-8
-0.064, 9.0660599e-8, 8.0669643e-8
-0.065, 9.2227602e-8, 8.1304307e-8
-0.066, 9.0671563e-8, 8.0693205e-8
-0.067, 9.0389534e-8, 8.0970395e-8
-0.068, 9.0268003e-8, 8.0121382e-8
-0.069, 9.1909868e-8, 8.1110244e-8
-0.070, 9.0113311e-8, 8.0346773e-8
-0.071, 9.0078785e-8, 8.0389256e-8
-0.072, 8.9749420e-8, 7.9631704e-8
-0.073, 9.1093355e-8, 8.1619902e-8
-0.074, 8.9740112e-8, 8.0483716e-8
-0.075, 8.9490861e-8, 7.9855347e-8
-0.076, 8.9731770e-8, 8.0073661e-8
-0.077, 9.0796675e-8, 8.0754702e-8
-0.078, 8.9383015e-8, 7.9549650e-8
-0.079, 8.9318128e-8, 7.9384584e-8
-0.080, 8.9362942e-8, 7.9196425e-8
-0.081, 9.0795510e-8, 8.0631821e-8
-0.082, 8.9319585e-8, 8.0482849e-8
-0.083, 8.9265370e-8, 7.9363630e-8
-0.084, 8.9063548e-8, 7.9297486e-8
-0.085, 8.9102336e-8, 8.0042824e-8
-0.086, 8.9073438e-8, 7.9354905e-8
-0.087, 9.0176449e-8, 8.0071530e-8
-0.088, 8.8545150e-8, 7.9097020e-8
-0.089, 8.8806146e-8, 7.8887922e-8
-0.090, 8.8735447e-8, 7.8897806e-8
-0.091, 9.0096052e-8, 8.0168611e-8
-0.092, 8.8616829e-8, 7.7958603e-8
-0.093, 8.8449525e-8, 7.8652931e-8
-0.094, 8.8712646e-8, 7.8846412e-8
-0.095, 8.9615874e-8, 7.9904325e-8
-0.096, 8.8238295e-8, 7.8861149e-8
-0.097, 8.8210939e-8, 7.7899735e-8
-0.098, 8.8051884e-8, 7.9070546e-8
-0.099, 8.9845344e-8, 7.9638298e-8
-0.100, 8.8118028e-8, 7.8953285e-8
-0.101, 8.7967891e-8, 7.8642643e-8
-0.102, 8.8078657e-8, 7.8387373e-8
-0.103, 8.9216584e-8, 8.0026823e-8
-0.104, 8.8200466e-8, 7.8282540e-8
-0.105, 8.7815138e-8, 7.8627316e-8
-0.106, 8.7873914e-8, 7.8730999e-8
-0.107, 8.9220080e-8, 7.9636159e-8
-0.108, 8.7769173e-8, 7.8339667e-8
-0.109, 8.8053532e-8, 7.7900218e-8
-0.110, 8.7782851e-8, 7.8094288e-8
-0.111, 8.8042093e-8, 7.8651468e-8
-0.112, 8.9262073e-8, 7.9012253e-8
-0.113, 8.8107072e-8, 7.7820978e-8
-0.114, 8.7839581e-8, 7.8243254e-8
-0.115, 8.7799620e-8, 7.8131819e-8
-0.116, 8.8830198e-8, 7.9954759e-8
-0.117, 8.7725340e-8, 7.8143458e-8
-0.118, 8.9351978e-8, 7.9310098e-8
-0.119, 8.9011365e-8, 7.9427068e-8
-0.120, 8.9149466e-8, 7.9139014e-8
-0.121, 8.7673740e-8, 7.8157520e-8
-0.122, 8.8904869e-8, 7.9160351e-8
-0.123, 8.8904201e-8, 7.9042024e-8
-0.124, 8.9355957e-8, 7.9111274e-8
-0.125, 8.7611667e-8, 7.8140161e-8
-0.126, 8.8839414e-8, 7.8862996e-8
-0.127, 8.9513946e-8, 7.8580669e-8
-0.128, 8.9396494e-8, 7.9047851e-8
-0.129, 8.9127553e-8, 7.9608910e-8
-0.130, 8.7781203e-8, 7.8259937e-8
-0.131, 8.9160821e-8, 7.9402135e-8
-0.132, 8.9234916e-8, 7.8753501e-8
-0.133, 8.9339565e-8, 7.9029810e-8
-0.134, 8.7790802e-8, 7.7637097e-8
-0.135, 8.9183708e-8, 7.9352283e-8
-0.136, 8.8971703e-8, 7.9704250e-8
-0.137, 8.9262656e-8, 7.9234262e-8
-0.138, 8.7668504e-8, 7.8136765e-8
-0.139, 8.9049962e-8, 7.9226105e-8
-0.140, 8.9303782e-8, 7.9522010e-8
-0.141, 8.9561269e-8, 7.9307576e-8
-0.142, 8.8333437e-8, 7.7572992e-8
-0.143, 8.9560785e-8, 7.8549824e-8
-0.144, 8.9447127e-8, 7.9248800e-8
-0.145, 8.9383981e-8, 7.9422406e-8
-0.146, 8.8144795e-8, 7.8426559e-8
-0.147, 8.9551762e-8, 7.8977536e-8
-0.148, 8.9337327e-8, 7.9432205e-8
-0.149, 8.9762516e-8, 7.9476138e-8
-0.150, 8.9507445e-8, 7.9596305e-8
-0.151, 8.9618595e-8, 7.9336871e-8
-0.152, 8.8355165e-8, 7.8386115e-8
-0.153, 8.9960849e-8, 7.9189249e-8
-0.154, 8.9920405e-8, 7.9324550e-8
-0.155, 8.9966377e-8, 7.9223007e-8
-0.156, 8.8687429e-8, 7.8724888e-8
-0.157, 8.9692882e-8, 7.9304471e-8
-0.158, 8.9678913e-8, 7.9556145e-8
-0.159, 9.0055316e-8, 7.9963584e-8
-0.160, 8.8542052e-8, 7.8293880e-8
-0.161, 8.9845543e-8, 7.9920724e-8
-0.162, 8.9913812e-8, 7.9564970e-8
-0.163, 9.0094886e-8, 7.9680575e-8
-0.164, 8.8999634e-8, 7.8678141e-8
-0.165, 9.0379054e-8, 7.9865437e-8
-0.166, 9.0274114e-8, 7.9825192e-8
-0.167, 9.0205837e-8, 8.0138740e-8
-0.168, 8.9106607e-8, 7.9308933e-8
-0.169, 9.0774080e-8, 7.9976388e-8
-0.170, 8.8798480e-8, 7.8746716e-8
-0.171, 8.9432085e-8, 7.9188865e-8
-0.172, 8.9450808e-8, 7.8766398e-8
-0.173, 9.1067065e-8, 8.0552674e-8
-0.174, 8.9877545e-8, 7.8986851e-8
-0.175, 8.9461665e-8, 7.9343849e-8
-0.176, 8.9849607e-8, 7.8764458e-8
-0.177, 9.1203532e-8, 8.1127212e-8
-0.178, 9.0184791e-8, 7.9549750e-8
-0.179, 9.0182077e-8, 7.8394649e-8
-0.180, 9.0319311e-8, 7.9183629e-8
-0.181, 9.1512618e-8, 8.0646849e-8
-0.182, 9.0146777e-8, 7.9587473e-8
-0.183, 9.1747225e-8, 8.0540552e-8
-0.184, 9.1886406e-8, 8.1496637e-8
-0.185, 9.1756057e-8, 8.1422442e-8
-0.186, 9.0393996e-8, 8.0391679e-8
-0.187, 9.1883393e-8, 8.1294715e-8
-0.188, 9.2055743e-8, 8.1329134e-8
-0.189, 9.1890186e-8, 8.1267849e-8
-0.190, 9.1046019e-8, 8.0213226e-8
-0.191, 9.2669460e-8, 8.1725332e-8
-0.192, 9.1144074e-8, 8.0508549e-8
-0.193, 9.1382368e-8, 8.0270347e-8
-0.194, 9.2795837e-8, 8.1460264e-8
-0.195, 9.1574790e-8, 8.0488761e-8
-0.196, 9.1639286e-8, 8.0578175e-8
-0.197, 9.1763525e-8, 8.0190823e-8
-0.198, 9.1514075e-8, 8.1194720e-8
-0.199, 9.3243038e-8, 8.1647158e-8
-0.200, 9.1753918e-8, 8.0502822e-8
-0.201, 9.2088229e-8, 8.1346798e-8
-0.202, 9.2479468e-8, 8.1061849e-8
-0.203, 9.3689948e-8, 8.2433424e-8
-0.204, 9.2301988e-8, 8.1493042e-8
-0.205, 9.2699622e-8, 8.1305870e-8
-0.206, 9.2963333e-8, 8.1019174e-8
-0.207, 9.3954235e-8, 8.2912329e-8
-0.208, 9.2841326e-8, 8.1378900e-8
-0.209, 9.2728918e-8, 8.1888267e-8
-0.210, 9.3270671e-8, 8.1502066e-8
-0.211, 9.4651455e-8, 8.3407251e-8
-0.212, 9.3536705e-8, 8.1753164e-8
-0.213, 9.3877226e-8, 8.1997861e-8
-0.214, 9.3466298e-8, 8.2756188e-8
-0.215, 9.4035798e-8, 8.1821838e-8
-0.216, 9.4136567e-8, 8.2445638e-8
-0.217, 9.5418613e-8, 8.3788400e-8
-0.218, 9.4193588e-8, 8.2745615e-8
-0.219, 9.4479994e-8, 8.2611386e-8
-0.220, 9.4848630e-8, 8.3063242e-8
-0.221, 9.6236207e-8, 8.3779483e-8
-0.222, 9.4720320e-8, 8.2351562e-8
-0.223, 9.5276334e-8, 8.2473470e-8
-0.224, 9.4918363e-8, 8.3656317e-8
-0.225, 9.6456169e-8, 8.4982297e-8
-0.226, 9.5575928e-8, 8.4005848e-8
-0.227, 9.5450133e-8, 8.3464762e-8
-0.228, 9.5691334e-8, 8.4033779e-8
-0.229, 9.7140600e-8, 8.5401169e-8
-0.230, 9.6181410e-8, 8.4695124e-8
-0.231, 9.6180628e-8, 8.4564284e-8
-0.232, 9.6278299e-8, 8.3850082e-8
-0.233, 9.7598942e-8, 8.5923446e-8
-0.234, 9.6609213e-8, 8.4734303e-8
-0.235, 9.7505350e-8, 8.4694733e-8
-0.236, 9.6902298e-8, 8.4189438e-8
-0.237, 9.7261918e-8, 8.4310763e-8
-0.238, 9.8785762e-8, 8.6782833e-8
-0.239, 9.7226135e-8, 8.5018861e-8
-0.240, 9.7745492e-8, 8.5065125e-8
-0.241, 9.7862454e-8, 8.5264908e-8
-0.242, 9.9161191e-8, 8.5898904e-8
-0.243, 9.8006282e-8, 8.5168026e-8
-0.244, 9.8079795e-8, 8.5821711e-8
-0.245, 9.7680413e-8, 8.4849042e-8
-0.246, 9.9930091e-8, 8.6913474e-8
-0.247, 9.8648620e-8, 8.6001705e-8
-0.248, 9.9905840e-8, 8.7120434e-8
-0.249, 9.9984206e-8, 8.7239535e-8
-0.250, 9.9683845e-8, 8.7963926e-8
-0.251, 9.8976230e-8, 8.5500290e-8
-0.252, 1.0034509e-7, 8.7498492e-8
-0.253, 1.0045662e-7, 8.7057586e-8
-0.254, 1.0064730e-7, 8.7587807e-8
-0.255, 9.9760172e-8, 8.5969610e-8
-0.256, 1.0060695e-7, 8.7766068e-8
-0.257, 1.0117451e-7, 8.7419352e-8
-0.258, 1.0092478e-7, 8.7807969e-8
-0.259, 1.0100052e-7, 8.8374847e-8
-0.260, 9.9411317e-8, 8.6990383e-8
-0.261, 1.0079763e-7, 8.7636401e-8
-0.262, 1.0055682e-7, 8.7452420e-8
-0.263, 1.0093428e-7, 8.8163901e-8
-0.264, 9.9159053e-8, 8.6551424e-8
-0.265, 1.0069734e-7, 8.7269306e-8
-0.266, 1.0070210e-7, 8.7270081e-8
-0.267, 1.0065108e-7, 8.7267665e-8
-0.268, 9.9180781e-8, 8.6613106e-8
-0.269, 1.0059812e-7, 8.7512447e-8
-0.270, 1.0088016e-7, 8.6170274e-8
-0.271, 1.0034209e-7, 8.7092992e-8
-0.272, 9.8706622e-8, 8.5937984e-8
-0.273, 1.0024607e-7, 8.7124604e-8
-0.274, 1.0009506e-7, 8.7492566e-8
-0.275, 9.9848727e-8, 8.6916188e-8
-0.276, 9.8353688e-8, 8.6145540e-8
-0.277, 9.9579012e-8, 8.6677986e-8
-0.278, 9.8579186e-8, 8.5315534e-8
-0.279, 9.8150210e-8, 8.5185768e-8
-0.280, 9.7883401e-8, 8.4210683e-8
-0.281, 9.7767412e-8, 8.4593580e-8
-0.282, 9.8945890e-8, 8.5758565e-8
-0.283, 9.7249313e-8, 8.4669708e-8
-0.284, 9.6980372e-8, 8.4939714e-8
-0.285, 9.7290922e-8, 8.4229683e-8
-0.286, 9.8495185e-8, 8.5404082e-8
-0.287, 9.6677482e-8, 8.3768327e-8
-0.288, 9.5988895e-8, 8.3914578e-8
-0.289, 9.6382649e-8, 8.4015547e-8
-0.290, 9.7507495e-8, 8.4805777e-8
-0.291, 9.5946220e-8, 8.3328210e-8
-0.292, 9.5319983e-8, 8.3025228e-8
-0.293, 9.5521230e-8, 8.2761616e-8
-0.294, 9.6557805e-8, 8.3975394e-8
-0.295, 9.4799361e-8, 8.2466585e-8
-0.296, 9.4605781e-8, 8.1887002e-8
-0.297, 9.4207067e-8, 8.2258353e-8
-0.298, 9.5620436e-8, 8.3242185e-8
-0.299, 9.3325284e-8, 8.2077577e-8
-0.300, 9.3703818e-8, 8.1525435e-8
-0.301, 9.3186586e-8, 8.0935664e-8
-0.302, 9.4862500e-8, 8.1983117e-8
-0.303, 9.3240615e-8, 8.1227505e-8
-0.304, 9.2612922e-8, 8.1007151e-8
-0.305, 9.2591876e-8, 8.0734914e-8
-0.306, 9.1737043e-8, 8.0507093e-8
-0.307, 9.3180972e-8, 8.1794091e-8
-0.308, 9.1791165e-8, 8.0062513e-8
-0.309, 9.1609607e-8, 7.9753320e-8
-0.310, 9.1445891e-8, 7.9802589e-8
-0.311, 9.2561230e-8, 8.0733557e-8
-0.312, 9.0547424e-8, 7.9792599e-8
-0.313, 9.2131970e-8, 8.0864488e-8
-0.314, 9.1894840e-8, 8.0933248e-8
-0.315, 9.1686317e-8, 8.0143487e-8
-0.316, 9.0082665e-8, 7.8748457e-8
-0.317, 9.1610573e-8, 7.9399229e-8
-0.318, 9.1171529e-8, 8.0420875e-8
-0.319, 9.0940986e-8, 7.9879982e-8
-0.320, 8.9687063e-8, 7.8355960e-8
-0.321, 9.0618897e-8, 7.8688608e-8
-0.322, 9.0322700e-8, 7.9135233e-8
-0.323, 9.0496016e-8, 7.9182172e-8
-0.324, 9.0492918e-8, 7.8494061e-8
-0.325, 8.8962487e-8, 7.6879445e-8
-0.326, 8.8975675e-8, 7.7007854e-8
-0.327, 8.8719730e-8, 7.7333532e-8
-0.328, 8.8789562e-8, 7.7136846e-8
-0.329, 8.9936897e-8, 7.8289034e-8
-0.330, 8.8626813e-8, 7.7369513e-8
-0.331, 8.8472127e-8, 7.7529442e-8
-0.332, 8.8257494e-8, 7.6913679e-8
-0.333, 8.9146077e-8, 7.8167218e-8
-0.334, 8.8053731e-8, 7.6838418e-8
-0.335, 8.7741441e-8, 7.6835803e-8
-0.336, 8.7551442e-8, 7.6813983e-8
-0.337, 8.8879077e-8, 7.8236276e-8
-0.338, 8.7767035e-8, 7.6388694e-8
-0.339, 8.7061181e-8, 7.6363293e-8
-0.340, 8.7486455e-8, 7.6424683e-8
-0.341, 8.8875971e-8, 7.8005158e-8
-0.342, 8.7364256e-8, 7.6368138e-8
-0.343, 8.7228095e-8, 7.6147884e-8
-0.344, 8.7150895e-8, 7.6671220e-8
-0.345, 8.6836558e-8, 7.6213254e-8
-0.346, 8.8350220e-8, 7.7148869e-8
-0.347, 8.6551140e-8, 7.6410522e-8
-0.348, 8.7216847e-8, 7.5552975e-8
-0.349, 8.6917062e-8, 7.5839466e-8
-0.350, 8.7009198e-8, 7.5977965e-8
-0.351, 8.8518490e-8, 7.7104552e-8
-0.352, 8.6848587e-8, 7.6394805e-8
-0.353, 8.6991548e-8, 7.6094835e-8
-0.354, 8.6953335e-8, 7.5793793e-8
-0.355, 8.8659114e-8, 7.7034429e-8
-0.356, 8.6845674e-8, 7.5268417e-8
-0.357, 8.6212943e-8, 7.5989220e-8
-0.358, 8.7051482e-8, 7.5613009e-8
-0.359, 8.8501608e-8, 7.7117647e-8
-0.360, 8.6707281e-8, 7.6003474e-8
-0.361, 8.6783608e-8, 7.5982435e-8
-0.362, 8.6988635e-8, 7.5933933e-8
-0.363, 8.8249543e-8, 7.7205613e-8
-0.364, 8.6860226e-8, 7.6181927e-8
-0.365, 8.6789036e-8, 7.6037708e-8
-0.366, 8.6624262e-8, 7.4958166e-8
-0.367, 8.8082245e-8, 7.7220541e-8
-0.368, 8.7077275e-8, 7.5977091e-8
-0.369, 8.6872838e-8, 7.5561218e-8
-0.370, 8.6966125e-8, 7.6630677e-8
-0.371, 8.6819199e-8, 7.6041005e-8
-0.372, 8.8258368e-8, 7.7990123e-8
-0.373, 8.7067484e-8, 7.6246138e-8
-0.374, 8.7439425e-8, 7.5790979e-8
-0.375, 8.7350585e-8, 7.5933841e-8
-0.376, 8.8407049e-8, 7.6527968e-8
-0.377, 8.7275716e-8, 7.6395096e-8
-0.378, 8.8507811e-8, 7.7839800e-8
-0.379, 8.8553207e-8, 7.8600841e-8
-0.380, 8.8881507e-8, 7.6927357e-8
-0.381, 8.7409354e-8, 7.6044500e-8
-0.382, 8.9645070e-8, 7.6820385e-8
-0.383, 8.8591520e-8, 7.7716336e-8
-0.384, 8.8756288e-8, 7.8176235e-8
-0.385, 8.7404992e-8, 7.6198219e-8
-0.386, 8.9658158e-8, 7.7448362e-8
-0.387, 8.7423906e-8, 7.5897468e-8
-0.388, 8.7815529e-8, 7.6384332e-8
-0.389, 8.8659789e-8, 7.7766281e-8
-0.390, 8.7638533e-8, 7.8398728e-8
-0.391, 8.9653497e-8, 7.8092931e-8
-0.392, 8.9494257e-8, 7.7774622e-8
-0.393, 8.9164018e-8, 7.7777628e-8
-0.394, 8.8330424e-8, 7.6979831e-8
-0.395, 8.9088857e-8, 7.8285638e-8
-0.396, 8.9827303e-8, 7.8814601e-8
-0.397, 9.0129603e-8, 7.7567648e-8
-0.398, 8.7996803e-8, 7.7544478e-8
-0.399, 8.9732744e-8, 7.7824765e-8
-0.400, 9.0220475e-8, 7.8791814e-8
-0.401, 8.9915659e-8, 7.7580367e-8
-0.402, 8.8962963e-8, 7.7226559e-8
-0.403, 8.9835936e-8, 7.9120881e-8
-0.404, 8.9997513e-8, 7.9092175e-8
-0.405, 9.0408726e-8, 7.8297667e-8
-0.406, 8.8999720e-8, 7.7053635e-8
-0.407, 8.9866489e-8, 7.9369556e-8
-0.408, 8.9049180e-8, 7.7267970e-8
-0.409, 8.9170328e-8, 7.8130945e-8
-0.410, 8.9108838e-8, 7.8633136e-8
-0.411, 8.9199517e-8, 7.8486018e-8
-0.412, 9.0165486e-8, 7.8973173e-8
-0.413, 8.9068976e-8, 7.6801271e-8
-0.414, 8.9470014e-8, 7.8520443e-8
-0.415, 8.9704230e-8, 7.8083715e-8
-0.416, 9.0772232e-8, 8.0220886e-8
-0.417, 8.9621018e-8, 7.8561570e-8
-0.418, 8.9972005e-8, 7.9198564e-8
-0.419, 8.9664759e-8, 7.8875026e-8
-0.420, 9.1956721e-8, 7.9771645e-8
-0.421, 9.0470706e-8, 7.8302705e-8
-0.422, 9.0155410e-8, 7.9317175e-8
-0.423, 9.0338901e-8, 7.9165297e-8
-0.424, 9.1767788e-8, 8.0894544e-8
-0.425, 9.0569728e-8, 7.8540907e-8
-0.426, 9.0676409e-8, 7.8800824e-8
-0.427, 9.0509204e-8, 7.8277594e-8
-0.428, 9.2140986e-8, 8.0383145e-8
-0.429, 9.0642665e-8, 7.9957289e-8
-0.430, 9.0768843e-8, 7.9953210e-8
-0.431, 9.1098393e-8, 7.9500772e-8
-0.432, 9.0929731e-8, 7.9424154e-8
-0.433, 9.2849760e-8, 8.0095873e-8
-0.434, 9.1279468e-8, 8.0294505e-8
-0.435, 9.1128754e-8, 7.9515317e-8
-0.436, 9.1920832e-8, 8.0769830e-8
-0.437, 9.2738127e-8, 8.1132448e-8
-0.438, 9.1571579e-8, 8.0118085e-8
-0.439, 9.1283056e-8, 7.9898314e-8
-0.440, 9.1886989e-8, 8.0174239e-8
-0.441, 9.3225481e-8, 8.1450281e-8
-0.442, 9.2033048e-8, 7.8962699e-8
-0.443, 9.3089895e-8, 8.1487805e-8
-0.444, 9.3782852e-8, 8.2905736e-8
-0.445, 9.3147989e-8, 8.1866347e-8
-0.446, 9.2028685e-8, 8.1471612e-8
-0.447, 9.3704003e-8, 8.2328576e-8
-0.448, 9.4219871e-8, 8.2086018e-8
-0.449, 9.3677919e-8, 8.2002806e-8
-0.450, 9.2863431e-8, 8.0677296e-8
-0.451, 9.4218422e-8, 8.2372900e-8
-0.452, 9.2754227e-8, 8.1385203e-8
-0.453, 9.2832494e-8, 8.1465018e-8
-0.454, 9.2590035e-8, 8.2186872e-8
-0.455, 9.4145584e-8, 8.3499295e-8
-0.456, 9.3148572e-8, 8.2230912e-8
-0.457, 9.2949563e-8, 8.1897575e-8
-0.458, 9.3238093e-8, 8.1913583e-8
-0.459, 9.4917780e-8, 8.3239655e-8
-0.460, 9.3408495e-8, 8.2323346e-8
-0.461, 9.4090304e-8, 8.1391981e-8
-0.462, 9.3579089e-8, 8.1668787e-8
-0.463, 9.5387378e-8, 8.3904013e-8
-0.464, 9.3802548e-8, 8.2663270e-8
-0.465, 9.4124239e-8, 8.2602071e-8
-0.466, 9.4208531e-8, 8.2442916e-8
-0.467, 9.5855725e-8, 8.4106617e-8
-0.468, 9.4562722e-8, 8.3034536e-8
-0.469, 9.4537498e-8, 8.3327336e-8
-0.470, 9.4393862e-8, 8.3847951e-8
-0.471, 9.6637820e-8, 8.4908876e-8
-0.472, 9.5338699e-8, 8.3460399e-8
-0.473, 9.5291952e-8, 8.3540215e-8
-0.474, 9.5594835e-8, 8.3976268e-8
-0.475, 9.5320949e-8, 8.4410956e-8
-0.476, 9.7010442e-8, 8.5229026e-8
-0.477, 9.5974244e-8, 8.4454406e-8
-0.478, 9.5830799e-8, 8.4440828e-8
-0.479, 9.5840889e-8, 8.4323666e-8
-0.480, 9.6176947e-8, 8.4809173e-8
-0.481, 9.7141658e-8, 8.6181132e-8
-0.482, 9.6443273e-8, 8.5268304e-8
-0.483, 9.6928872e-8, 8.4751953e-8
-0.484, 9.6838384e-8, 8.5482256e-8
-0.485, 9.8506632e-8, 8.6590020e-8
-0.486, 9.7225360e-8, 8.5398462e-8
-0.487, 9.7742003e-8, 8.6118675e-8
-0.488, 9.7691768e-8, 8.6431939e-8
-0.489, 9.9216471e-8, 8.7897291e-8
-0.490, 9.8167959e-8, 8.7271253e-8
-0.491, 9.8097061e-8, 8.7596533e-8
-0.492, 9.8388412e-8, 8.6559091e-8
-0.493, 1.0001737e-7, 8.7451063e-8
-0.494, 9.8849767e-8, 8.7662301e-8
-0.495, 9.8935601e-8, 8.7678785e-8
-0.496, 9.9414024e-8, 8.6865455e-8
-0.497, 9.9501314e-8, 8.7886519e-8
-0.498, 1.0127130e-7, 8.9683574e-8
-0.499, 1.0029174e-7, 8.8354099e-8
-0.500, 1.0054711e-7, 8.8421594e-8
