Jan. 28, 2006   03:04:05
Square Wave Voltammetry
File: z:\users\scottsaunders\git\labwork\ida\01_17_19_psoralen_nonequil_2\data\psoralen\3\75um_psoralen_transfer_3_swv_5.txt
Data Source:  Experiment
Instrument Model:  CHI760E
Header: 
Note: 

Init E (V) = 0.1
Final E (V) = -0.5
Incr E (V) = 0.001
Amplitude (V) = 0.025
Frequency (Hz) = 300
Quiet Time (sec) = 2
Sensitivity (A/V) = 1e-5
Sens 2 (A/V) = 1e-5

Potential/V, i1/A, i2/A

0.099, 1.6182501e-5, 1.5361513e-5
0.098, 1.8189363e-5, 1.6499907e-5
0.097, 1.8201856e-5, 1.6483062e-5
0.096, 1.8106501e-5, 1.6409982e-5
0.095, 1.8082577e-5, 1.6371372e-5
0.094, 1.8046449e-5, 1.6349262e-5
0.093, 1.8021585e-5, 1.6345908e-5
0.092, 1.7976310e-5, 1.6309583e-5
0.091, 1.7895614e-5, 1.6256545e-5
0.090, 1.7874525e-5, 1.6227710e-5
0.089, 1.7832983e-5, 1.6199800e-5
0.088, 1.7820592e-5, 1.6203994e-5
0.087, 1.7777054e-5, 1.6178992e-5
0.086, 1.7694430e-5, 1.6117265e-5
0.085, 1.7672864e-5, 1.6088059e-5
0.084, 1.7634487e-5, 1.6067912e-5
0.083, 1.7626102e-5, 1.6070426e-5
0.082, 1.7571831e-5, 1.6037999e-5
0.081, 1.7494862e-5, 1.5978112e-5
0.080, 1.7473314e-5, 1.5949121e-5
0.079, 1.7442337e-5, 1.5942487e-5
0.078, 1.7428407e-5, 1.5934576e-5
0.077, 1.7383827e-5, 1.5907124e-5
0.076, 1.7301929e-5, 1.5851674e-5
0.075, 1.7284849e-5, 1.5821146e-5
0.074, 1.7250029e-5, 1.5809421e-5
0.073, 1.7233699e-5, 1.5807142e-5
0.072, 1.7194900e-5, 1.5776977e-5
0.071, 1.7107832e-5, 1.5721418e-5
0.070, 1.7097349e-5, 1.5693482e-5
0.069, 1.7064147e-5, 1.5681871e-5
0.068, 1.7048562e-5, 1.5687438e-5
0.067, 1.7006592e-5, 1.5651291e-5
0.066, 1.6928781e-5, 1.5597911e-5
0.065, 1.6910741e-5, 1.5576028e-5
0.064, 1.6876475e-5, 1.5554964e-5
0.063, 1.6864076e-5, 1.5561369e-5
0.062, 1.6827400e-5, 1.5535921e-5
0.061, 1.6748028e-5, 1.5475345e-5
0.060, 1.6722805e-5, 1.5447842e-5
0.059, 1.6705379e-5, 1.5442840e-5
0.058, 1.6680700e-5, 1.5434282e-5
0.057, 1.6643597e-5, 1.5415460e-5
0.056, 1.6561253e-5, 1.5349508e-5
0.055, 1.6553511e-5, 1.5333439e-5
0.054, 1.6528198e-5, 1.5327765e-5
0.053, 1.6507031e-5, 1.5319500e-5
0.052, 1.6467471e-5, 1.5296595e-5
0.051, 1.6400292e-5, 1.5249654e-5
0.050, 1.6381706e-5, 1.5217633e-5
0.049, 1.6360747e-5, 1.5220530e-5
0.048, 1.6342774e-5, 1.5209589e-5
0.047, 1.6312151e-5, 1.5196332e-5
0.046, 1.6237573e-5, 1.5146876e-5
0.045, 1.6221500e-5, 1.5115143e-5
0.044, 1.6196576e-5, 1.5109308e-5
0.043, 1.6187121e-5, 1.5120806e-5
0.042, 1.6149323e-5, 1.5090494e-5
0.041, 1.6071095e-5, 1.5037698e-5
0.040, 1.6063128e-5, 1.5017285e-5
0.039, 1.6037835e-5, 1.5004670e-5
0.038, 1.6023634e-5, 1.5013093e-5
0.037, 1.5993632e-5, 1.4990403e-5
0.036, 1.5913840e-5, 1.4933064e-5
0.035, 1.5907754e-5, 1.4923362e-5
0.034, 1.5881575e-5, 1.4904219e-5
0.033, 1.5869547e-5, 1.4910340e-5
0.032, 1.5835180e-5, 1.4889441e-5
0.031, 1.5759753e-5, 1.4834186e-5
0.030, 1.5753285e-5, 1.4820194e-5
0.029, 1.5732970e-5, 1.4815410e-5
0.028, 1.5716483e-5, 1.4810159e-5
0.027, 1.5688827e-5, 1.4797699e-5
0.026, 1.5610602e-5, 1.4737765e-5
0.025, 1.5605374e-5, 1.4725066e-5
0.024, 1.5587557e-5, 1.4726851e-5
0.023, 1.5569000e-5, 1.4718290e-5
0.022, 1.5547945e-5, 1.4711102e-5
0.021, 1.5472329e-5, 1.4659227e-5
0.020, 1.5458674e-5, 1.4633323e-5
0.019, 1.5448397e-5, 1.4640387e-5
0.018, 1.5430160e-5, 1.4636540e-5
0.017, 1.5406509e-5, 1.4619369e-5
0.016, 1.5328416e-5, 1.4569045e-5
0.015, 1.5329710e-5, 1.4556714e-5
0.014, 1.5314452e-5, 1.4555460e-5
0.013, 1.5300227e-5, 1.4562702e-5
0.012, 1.5268659e-5, 1.4533694e-5
0.011, 1.5206485e-5, 1.4492975e-5
0.010, 1.5200748e-5, 1.4483218e-5
0.009, 1.5178975e-5, 1.4472418e-5
0.008, 1.5165416e-5, 1.4477277e-5
0.007, 1.5143747e-5, 1.4465770e-5
0.006, 1.5076559e-5, 1.4412435e-5
0.005, 1.5066284e-5, 1.4399409e-5
0.004, 1.5051424e-5, 1.4392948e-5
0.003, 1.5046832e-5, 1.4406953e-5
0.002, 1.5020706e-5, 1.4396530e-5
0.001, 1.4948128e-5, 1.4335934e-5
-0.000, 1.4948335e-5, 1.4327949e-5
-0.001, 1.4929150e-5, 1.4328043e-5
-0.002, 1.4914624e-5, 1.4326296e-5
-0.003, 1.4889354e-5, 1.4313479e-5
-0.004, 1.4823927e-5, 1.4264592e-5
-0.005, 1.4825626e-5, 1.4253434e-5
-0.006, 1.4803350e-5, 1.4250571e-5
-0.007, 1.4800905e-5, 1.4262442e-5
-0.008, 1.4778932e-5, 1.4247695e-5
-0.009, 1.4712454e-5, 1.4204226e-5
-0.010, 1.4711515e-5, 1.4187848e-5
-0.011, 1.4699975e-5, 1.4192101e-5
-0.012, 1.4692250e-5, 1.4205289e-5
-0.013, 1.4670706e-5, 1.4189249e-5
-0.014, 1.4603156e-5, 1.4140885e-5
-0.015, 1.4601493e-5, 1.4130022e-5
-0.016, 1.4594979e-5, 1.4131940e-5
-0.017, 1.4583602e-5, 1.4142770e-5
-0.018, 1.4566649e-5, 1.4128380e-5
-0.019, 1.4508083e-5, 1.4089588e-5
-0.020, 1.4497051e-5, 1.4076602e-5
-0.021, 1.4490819e-5, 1.4074961e-5
-0.022, 1.4482798e-5, 1.4084791e-5
-0.023, 1.4468213e-5, 1.4083947e-5
-0.024, 1.4401482e-5, 1.4031577e-5
-0.025, 1.4395435e-5, 1.4019068e-5
-0.026, 1.4397682e-5, 1.4030078e-5
-0.027, 1.4391169e-5, 1.4035583e-5
-0.028, 1.4362831e-5, 1.4024090e-5
-0.029, 1.4310614e-5, 1.3985341e-5
-0.030, 1.4310260e-5, 1.3972813e-5
-0.031, 1.4301713e-5, 1.3982909e-5
-0.032, 1.4293832e-5, 1.3983839e-5
-0.033, 1.4278921e-5, 1.3978976e-5
-0.034, 1.4219710e-5, 1.3942414e-5
-0.035, 1.4216480e-5, 1.3924378e-5
-0.036, 1.4208983e-5, 1.3931716e-5
-0.037, 1.4212266e-5, 1.3948862e-5
-0.038, 1.4194382e-5, 1.3935947e-5
-0.039, 1.4129088e-5, 1.3892350e-5
-0.040, 1.4137464e-5, 1.3887890e-5
-0.041, 1.4129908e-5, 1.3889169e-5
-0.042, 1.4130314e-5, 1.3911836e-5
-0.043, 1.4114486e-5, 1.3896024e-5
-0.044, 1.4050596e-5, 1.3851399e-5
-0.045, 1.4054203e-5, 1.3852065e-5
-0.046, 1.4049909e-5, 1.3852752e-5
-0.047, 1.4056162e-5, 1.3877636e-5
-0.048, 1.4030775e-5, 1.3857813e-5
-0.049, 1.3976200e-5, 1.3816601e-5
-0.050, 1.3975483e-5, 1.3813453e-5
-0.051, 1.3977339e-5, 1.3820323e-5
-0.052, 1.3974130e-5, 1.3829510e-5
-0.053, 1.3964260e-5, 1.3834464e-5
-0.054, 1.3904199e-5, 1.3783880e-5
-0.055, 1.3907208e-5, 1.3779165e-5
-0.056, 1.3906757e-5, 1.3793569e-5
-0.057, 1.3902329e-5, 1.3797713e-5
-0.058, 1.3893605e-5, 1.3801730e-5
-0.059, 1.3835681e-5, 1.3756748e-5
-0.060, 1.3835903e-5, 1.3744288e-5
-0.061, 1.3838542e-5, 1.3760729e-5
-0.062, 1.3841071e-5, 1.3779469e-5
-0.063, 1.3828295e-5, 1.3768598e-5
-0.064, 1.3765322e-5, 1.3726425e-5
-0.065, 1.3767185e-5, 1.3715162e-5
-0.066, 1.3778866e-5, 1.3735077e-5
-0.067, 1.3778858e-5, 1.3758560e-5
-0.068, 1.3754394e-5, 1.3734449e-5
-0.069, 1.3710902e-5, 1.3706849e-5
-0.070, 1.3706960e-5, 1.3695941e-5
-0.071, 1.3713076e-5, 1.3707050e-5
-0.072, 1.3710473e-5, 1.3725621e-5
-0.073, 1.3703103e-5, 1.3723773e-5
-0.074, 1.3652246e-5, 1.3682812e-5
-0.075, 1.3645681e-5, 1.3676168e-5
-0.076, 1.3649371e-5, 1.3678285e-5
-0.077, 1.3660201e-5, 1.3710971e-5
-0.078, 1.3645866e-5, 1.3707286e-5
-0.079, 1.3587216e-5, 1.3656534e-5
-0.080, 1.3597426e-5, 1.3660041e-5
-0.081, 1.3598277e-5, 1.3669071e-5
-0.082, 1.3607289e-5, 1.3692206e-5
-0.083, 1.3585081e-5, 1.3682364e-5
-0.084, 1.3532746e-5, 1.3643334e-5
-0.085, 1.3543022e-5, 1.3639511e-5
-0.086, 1.3543700e-5, 1.3650477e-5
-0.087, 1.3547198e-5, 1.3669765e-5
-0.088, 1.3531969e-5, 1.3663332e-5
-0.089, 1.3479730e-5, 1.3631403e-5
-0.090, 1.3486280e-5, 1.3621566e-5
-0.091, 1.3491523e-5, 1.3634495e-5
-0.092, 1.3495528e-5, 1.3662221e-5
-0.093, 1.3486399e-5, 1.3652403e-5
-0.094, 1.3429361e-5, 1.3615880e-5
-0.095, 1.3431358e-5, 1.3609282e-5
-0.096, 1.3438757e-5, 1.3616573e-5
-0.097, 1.3432185e-5, 1.3638151e-5
-0.098, 1.3431350e-5, 1.3635885e-5
-0.099, 1.3374742e-5, 1.3596027e-5
-0.100, 1.3377780e-5, 1.3596715e-5
-0.101, 1.3389808e-5, 1.3606854e-5
-0.102, 1.3393164e-5, 1.3630493e-5
-0.103, 1.3375762e-5, 1.3621648e-5
-0.104, 1.3321357e-5, 1.3578767e-5
-0.105, 1.3324403e-5, 1.3579402e-5
-0.106, 1.3337030e-5, 1.3596211e-5
-0.107, 1.3343706e-5, 1.3618415e-5
-0.108, 1.3313032e-5, 1.3597180e-5
-0.109, 1.3275830e-5, 1.3570516e-5
-0.110, 1.3279076e-5, 1.3568409e-5
-0.111, 1.3289412e-5, 1.3589263e-5
-0.112, 1.3288383e-5, 1.3601592e-5
-0.113, 1.3281146e-5, 1.3601573e-5
-0.114, 1.3229803e-5, 1.3571511e-5
-0.115, 1.3229558e-5, 1.3557951e-5
-0.116, 1.3235716e-5, 1.3573163e-5
-0.117, 1.3246599e-5, 1.3603118e-5
-0.118, 1.3237277e-5, 1.3592909e-5
-0.119, 1.3176187e-5, 1.3557653e-5
-0.120, 1.3189813e-5, 1.3556328e-5
-0.121, 1.3189776e-5, 1.3562318e-5
-0.122, 1.3201465e-5, 1.3600324e-5
-0.123, 1.3184305e-5, 1.3580244e-5
-0.124, 1.3132983e-5, 1.3547000e-5
-0.125, 1.3142617e-5, 1.3550720e-5
-0.126, 1.3147474e-5, 1.3559214e-5
-0.127, 1.3152146e-5, 1.3587809e-5
-0.128, 1.3142972e-5, 1.3583274e-5
-0.129, 1.3094230e-5, 1.3544667e-5
-0.130, 1.3095168e-5, 1.3542920e-5
-0.131, 1.3108653e-5, 1.3555845e-5
-0.132, 1.3108845e-5, 1.3580115e-5
-0.133, 1.3104520e-5, 1.3585097e-5
-0.134, 1.3050087e-5, 1.3539948e-5
-0.135, 1.3057464e-5, 1.3539640e-5
-0.136, 1.3067443e-5, 1.3560787e-5
-0.137, 1.3070534e-5, 1.3583696e-5
-0.138, 1.3064864e-5, 1.3582305e-5
-0.139, 1.3015087e-5, 1.3549066e-5
-0.140, 1.3019997e-5, 1.3540982e-5
-0.141, 1.3028837e-5, 1.3560772e-5
-0.142, 1.3038169e-5, 1.3590399e-5
-0.143, 1.3025977e-5, 1.3581088e-5
-0.144, 1.2977464e-5, 1.3553927e-5
-0.145, 1.2982691e-5, 1.3544015e-5
-0.146, 1.2998815e-5, 1.3568214e-5
-0.147, 1.3000841e-5, 1.3598712e-5
-0.148, 1.2988759e-5, 1.3586267e-5
-0.149, 1.2944025e-5, 1.3559611e-5
-0.150, 1.2949060e-5, 1.3554874e-5
-0.151, 1.2962131e-5, 1.3569222e-5
-0.152, 1.2960838e-5, 1.3597999e-5
-0.153, 1.2958767e-5, 1.3594011e-5
-0.154, 1.2918505e-5, 1.3572381e-5
-0.155, 1.2916501e-5, 1.3568556e-5
-0.156, 1.2933055e-5, 1.3582561e-5
-0.157, 1.2938119e-5, 1.3616202e-5
-0.158, 1.2934688e-5, 1.3622393e-5
-0.159, 1.2878139e-5, 1.3578127e-5
-0.160, 1.2886470e-5, 1.3579645e-5
-0.161, 1.2899076e-5, 1.3597386e-5
-0.162, 1.2908538e-5, 1.3629100e-5
-0.163, 1.2897065e-5, 1.3626201e-5
-0.164, 1.2855835e-5, 1.3601850e-5
-0.165, 1.2865594e-5, 1.3599214e-5
-0.166, 1.2871412e-5, 1.3618523e-5
-0.167, 1.2878539e-5, 1.3644881e-5
-0.168, 1.2873970e-5, 1.3644635e-5
-0.169, 1.2827453e-5, 1.3624153e-5
-0.170, 1.2829574e-5, 1.3612318e-5
-0.171, 1.2845485e-5, 1.3638086e-5
-0.172, 1.2846858e-5, 1.3665362e-5
-0.173, 1.2848715e-5, 1.3667276e-5
-0.174, 1.2798664e-5, 1.3640986e-5
-0.175, 1.2808031e-5, 1.3638545e-5
-0.176, 1.2822773e-5, 1.3659420e-5
-0.177, 1.2824778e-5, 1.3696361e-5
-0.178, 1.2820843e-5, 1.3688128e-5
-0.179, 1.2775768e-5, 1.3666488e-5
-0.180, 1.2779250e-5, 1.3666639e-5
-0.181, 1.2797126e-5, 1.3689727e-5
-0.182, 1.2800416e-5, 1.3722720e-5
-0.183, 1.2794945e-5, 1.3718838e-5
-0.184, 1.2754994e-5, 1.3694264e-5
-0.185, 1.2750144e-5, 1.3690418e-5
-0.186, 1.2772759e-5, 1.3718947e-5
-0.187, 1.2778933e-5, 1.3748500e-5
-0.188, 1.2767215e-5, 1.3750088e-5
-0.189, 1.2731010e-5, 1.3725421e-5
-0.190, 1.2731957e-5, 1.3721121e-5
-0.191, 1.2747593e-5, 1.3751360e-5
-0.192, 1.2744873e-5, 1.3771853e-5
-0.193, 1.2744142e-5, 1.3779672e-5
-0.194, 1.2709143e-5, 1.3765498e-5
-0.195, 1.2707191e-5, 1.3752345e-5
-0.196, 1.2721710e-5, 1.3781098e-5
-0.197, 1.2731477e-5, 1.3821005e-5
-0.198, 1.2723455e-5, 1.3811307e-5
-0.199, 1.2678956e-5, 1.3794363e-5
-0.200, 1.2679779e-5, 1.3783476e-5
-0.201, 1.2696064e-5, 1.3811967e-5
-0.202, 1.2701165e-5, 1.3855435e-5
-0.203, 1.2693853e-5, 1.3846984e-5
-0.204, 1.2658456e-5, 1.3831644e-5
-0.205, 1.2652608e-5, 1.3821594e-5
-0.206, 1.2670728e-5, 1.3844556e-5
-0.207, 1.2666493e-5, 1.3880168e-5
-0.208, 1.2664725e-5, 1.3880306e-5
-0.209, 1.2623865e-5, 1.3857245e-5
-0.210, 1.2626341e-5, 1.3861563e-5
-0.211, 1.2640372e-5, 1.3876726e-5
-0.212, 1.2637378e-5, 1.3910443e-5
-0.213, 1.2636728e-5, 1.3918989e-5
-0.214, 1.2592111e-5, 1.3889485e-5
-0.215, 1.2590308e-5, 1.3884175e-5
-0.216, 1.2606735e-5, 1.3913022e-5
-0.217, 1.2605995e-5, 1.3943481e-5
-0.218, 1.2600451e-5, 1.3945528e-5
-0.219, 1.2561461e-5, 1.3929460e-5
-0.220, 1.2555723e-5, 1.3912275e-5
-0.221, 1.2570332e-5, 1.3941868e-5
-0.222, 1.2567382e-5, 1.3971623e-5
-0.223, 1.2556618e-5, 1.3964976e-5
-0.224, 1.2517723e-5, 1.3956067e-5
-0.225, 1.2507565e-5, 1.3935474e-5
-0.226, 1.2528693e-5, 1.3967129e-5
-0.227, 1.2521523e-5, 1.3998650e-5
-0.228, 1.2512999e-5, 1.3988829e-5
-0.229, 1.2472411e-5, 1.3978420e-5
-0.230, 1.2462653e-5, 1.3961619e-5
-0.231, 1.2480550e-5, 1.3985064e-5
-0.232, 1.2465329e-5, 1.4017482e-5
-0.233, 1.2459413e-5, 1.4003361e-5
-0.234, 1.2425422e-5, 1.3996849e-5
-0.235, 1.2411692e-5, 1.3984893e-5
-0.236, 1.2416534e-5, 1.3991157e-5
-0.237, 1.2419707e-5, 1.4034431e-5
-0.238, 1.2397379e-5, 1.4016007e-5
-0.239, 1.2365730e-5, 1.4004299e-5
-0.240, 1.2349465e-5, 1.3989843e-5
-0.241, 1.2362794e-5, 1.4013614e-5
-0.242, 1.2359298e-5, 1.4041909e-5
-0.243, 1.2334694e-5, 1.4025269e-5
-0.244, 1.2301693e-5, 1.4010067e-5
-0.245, 1.2289176e-5, 1.3996773e-5
-0.246, 1.2295734e-5, 1.4018618e-5
-0.247, 1.2289058e-5, 1.4043357e-5
-0.248, 1.2276119e-5, 1.4031535e-5
-0.249, 1.2239938e-5, 1.4026322e-5
-0.250, 1.2221788e-5, 1.3994910e-5
-0.251, 1.2229218e-5, 1.4019468e-5
-0.252, 1.2222978e-5, 1.4051557e-5
-0.253, 1.2206603e-5, 1.4029984e-5
-0.254, 1.2161292e-5, 1.4019173e-5
-0.255, 1.2150069e-5, 1.3993278e-5
-0.256, 1.2158608e-5, 1.4014623e-5
-0.257, 1.2152805e-5, 1.4052704e-5
-0.258, 1.2134211e-5, 1.4026484e-5
-0.259, 1.2099796e-5, 1.4018983e-5
-0.260, 1.2078348e-5, 1.3993198e-5
-0.261, 1.2094584e-5, 1.4016083e-5
-0.262, 1.2080855e-5, 1.4046707e-5
-0.263, 1.2068065e-5, 1.4032272e-5
-0.264, 1.2026590e-5, 1.4009243e-5
-0.265, 1.2006563e-5, 1.3990318e-5
-0.266, 1.2021905e-5, 1.4007791e-5
-0.267, 1.2012936e-5, 1.4042478e-5
-0.268, 1.1991076e-5, 1.4023537e-5
-0.269, 1.1954657e-5, 1.4003587e-5
-0.270, 1.1948225e-5, 1.3990346e-5
-0.271, 1.1951256e-5, 1.4010553e-5
-0.272, 1.1944840e-5, 1.4034493e-5
-0.273, 1.1924049e-5, 1.4016943e-5
-0.274, 1.1890109e-5, 1.4005513e-5
-0.275, 1.1875981e-5, 1.3979876e-5
-0.276, 1.1877237e-5, 1.3996319e-5
-0.277, 1.1878102e-5, 1.4031498e-5
-0.278, 1.1860462e-5, 1.4010753e-5
-0.279, 1.1825390e-5, 1.4004840e-5
-0.280, 1.1811248e-5, 1.3973349e-5
-0.281, 1.1821390e-5, 1.3993458e-5
-0.282, 1.1818780e-5, 1.4032246e-5
-0.283, 1.1797392e-5, 1.4006333e-5
-0.284, 1.1759785e-5, 1.3991723e-5
-0.285, 1.1754115e-5, 1.3977887e-5
-0.286, 1.1762564e-5, 1.3986956e-5
-0.287, 1.1753856e-5, 1.4023552e-5
-0.288, 1.1737398e-5, 1.3995650e-5
-0.289, 1.1700448e-5, 1.3983548e-5
-0.290, 1.1695984e-5, 1.3975674e-5
-0.291, 1.1703517e-5, 1.3978592e-5
-0.292, 1.1704744e-5, 1.4021400e-5
-0.293, 1.1689130e-5, 1.4006375e-5
-0.294, 1.1645134e-5, 1.3977013e-5
-0.295, 1.1640284e-5, 1.3965982e-5
-0.296, 1.1651233e-5, 1.3978837e-5
-0.297, 1.1652727e-5, 1.4013547e-5
-0.298, 1.1631974e-5, 1.3994125e-5
-0.299, 1.1605433e-5, 1.3982746e-5
-0.300, 1.1588822e-5, 1.3955567e-5
-0.301, 1.1605101e-5, 1.3981225e-5
-0.302, 1.1602566e-5, 1.4007732e-5
-0.303, 1.1587143e-5, 1.3985597e-5
-0.304, 1.1547391e-5, 1.3969320e-5
-0.305, 1.1545069e-5, 1.3952640e-5
-0.306, 1.1556588e-5, 1.3968678e-5
-0.307, 1.1561201e-5, 1.4010715e-5
-0.308, 1.1537677e-5, 1.3971270e-5
-0.309, 1.1500424e-5, 1.3959125e-5
-0.310, 1.1496897e-5, 1.3937388e-5
-0.311, 1.1510034e-5, 1.3954441e-5
-0.312, 1.1516511e-5, 1.4002075e-5
-0.313, 1.1495862e-5, 1.3962974e-5
-0.314, 1.1463525e-5, 1.3950899e-5
-0.315, 1.1462593e-5, 1.3942285e-5
-0.316, 1.1470407e-5, 1.3945464e-5
-0.317, 1.1476426e-5, 1.3991674e-5
-0.318, 1.1456731e-5, 1.3957065e-5
-0.319, 1.1422251e-5, 1.3937559e-5
-0.320, 1.1414805e-5, 1.3921721e-5
-0.321, 1.1438604e-5, 1.3940022e-5
-0.322, 1.1445169e-5, 1.3981982e-5
-0.323, 1.1423950e-5, 1.3953287e-5
-0.324, 1.1388870e-5, 1.3925090e-5
-0.325, 1.1392286e-5, 1.3917024e-5
-0.326, 1.1406459e-5, 1.3932156e-5
-0.327, 1.1410155e-5, 1.3968771e-5
-0.328, 1.1390712e-5, 1.3935909e-5
-0.329, 1.1355698e-5, 1.3916091e-5
-0.330, 1.1361974e-5, 1.3901592e-5
-0.331, 1.1372014e-5, 1.3913074e-5
-0.332, 1.1379148e-5, 1.3948298e-5
-0.333, 1.1375718e-5, 1.3930674e-5
-0.334, 1.1334479e-5, 1.3909390e-5
-0.335, 1.1331818e-5, 1.3883722e-5
-0.336, 1.1348171e-5, 1.3894334e-5
-0.337, 1.1359365e-5, 1.3949002e-5
-0.338, 1.1337873e-5, 1.3903945e-5
-0.339, 1.1306756e-5, 1.3887851e-5
-0.340, 1.1306372e-5, 1.3869646e-5
-0.341, 1.1327878e-5, 1.3880332e-5
-0.342, 1.1333008e-5, 1.3924032e-5
-0.343, 1.1320212e-5, 1.3892364e-5
-0.344, 1.1282662e-5, 1.3864566e-5
-0.345, 1.1291149e-5, 1.3860965e-5
-0.346, 1.1308472e-5, 1.3862877e-5
-0.347, 1.1324204e-5, 1.3911389e-5
-0.348, 1.1302003e-5, 1.3875060e-5
-0.349, 1.1260736e-5, 1.3842076e-5
-0.350, 1.1271713e-5, 1.3837807e-5
-0.351, 1.1292575e-5, 1.3846726e-5
-0.352, 1.1307310e-5, 1.3891078e-5
-0.353, 1.1282145e-5, 1.3849774e-5
-0.354, 1.1256853e-5, 1.3830855e-5
-0.355, 1.1263855e-5, 1.3817931e-5
-0.356, 1.1279838e-5, 1.3829823e-5
-0.357, 1.1294262e-5, 1.3869959e-5
-0.358, 1.1274537e-5, 1.3829498e-5
-0.359, 1.1243730e-5, 1.3816764e-5
-0.360, 1.1248477e-5, 1.3796689e-5
-0.361, 1.1272254e-5, 1.3810327e-5
-0.362, 1.1290314e-5, 1.3860634e-5
-0.363, 1.1273170e-5, 1.3814493e-5
-0.364, 1.1233824e-5, 1.3792331e-5
-0.365, 1.1246023e-5, 1.3784103e-5
-0.366, 1.1263426e-5, 1.3784218e-5
-0.367, 1.1282737e-5, 1.3842055e-5
-0.368, 1.1266833e-5, 1.3793205e-5
-0.369, 1.1231768e-5, 1.3770668e-5
-0.370, 1.1247221e-5, 1.3772502e-5
-0.371, 1.1256801e-5, 1.3761824e-5
-0.372, 1.1281435e-5, 1.3821917e-5
-0.373, 1.1262789e-5, 1.3777626e-5
-0.374, 1.1228241e-5, 1.3749746e-5
-0.375, 1.1235791e-5, 1.3741837e-5
-0.376, 1.1264040e-5, 1.3751642e-5
-0.377, 1.1280918e-5, 1.3797993e-5
-0.378, 1.1257977e-5, 1.3758130e-5
-0.379, 1.1226837e-5, 1.3729452e-5
-0.380, 1.1237335e-5, 1.3721386e-5
-0.381, 1.1258273e-5, 1.3734543e-5
-0.382, 1.1276637e-5, 1.3779438e-5
-0.383, 1.1264579e-5, 1.3742265e-5
-0.384, 1.1224412e-5, 1.3712127e-5
-0.385, 1.1236789e-5, 1.3700994e-5
-0.386, 1.1257947e-5, 1.3712694e-5
-0.387, 1.1278301e-5, 1.3765026e-5
-0.388, 1.1263151e-5, 1.3716504e-5
-0.389, 1.1229677e-5, 1.3704370e-5
-0.390, 1.1239716e-5, 1.3686297e-5
-0.391, 1.1259574e-5, 1.3691690e-5
-0.392, 1.1280230e-5, 1.3752956e-5
-0.393, 1.1258555e-5, 1.3695880e-5
-0.394, 1.1237809e-5, 1.3688917e-5
-0.395, 1.1241786e-5, 1.3676317e-5
-0.396, 1.1262117e-5, 1.3675046e-5
-0.397, 1.1282958e-5, 1.3735753e-5
-0.398, 1.1270080e-5, 1.3692687e-5
-0.399, 1.1232914e-5, 1.3664092e-5
-0.400, 1.1239318e-5, 1.3655679e-5
-0.401, 1.1268534e-5, 1.3664471e-5
-0.402, 1.1288857e-5, 1.3721555e-5
-0.403, 1.1271424e-5, 1.3682135e-5
-0.404, 1.1232258e-5, 1.3651705e-5
-0.405, 1.1254126e-5, 1.3655133e-5
-0.406, 1.1271728e-5, 1.3657020e-5
-0.407, 1.1295489e-5, 1.3711833e-5
-0.408, 1.1273192e-5, 1.3668326e-5
-0.409, 1.1244285e-5, 1.3650320e-5
-0.410, 1.1259877e-5, 1.3642990e-5
-0.411, 1.1273762e-5, 1.3649358e-5
-0.412, 1.1294084e-5, 1.3695746e-5
-0.413, 1.1282049e-5, 1.3660760e-5
-0.414, 1.1246584e-5, 1.3644290e-5
-0.415, 1.1255655e-5, 1.3627505e-5
-0.416, 1.1278604e-5, 1.3635678e-5
-0.417, 1.1300886e-5, 1.3696025e-5
-0.418, 1.1287579e-5, 1.3651272e-5
-0.419, 1.1250480e-5, 1.3633682e-5
-0.420, 1.1264394e-5, 1.3629233e-5
-0.421, 1.1292814e-5, 1.3636540e-5
-0.422, 1.1304516e-5, 1.3687728e-5
-0.423, 1.1288777e-5, 1.3641706e-5
-0.424, 1.1256041e-5, 1.3624378e-5
-0.425, 1.1270464e-5, 1.3629076e-5
-0.426, 1.1287608e-5, 1.3625449e-5
-0.427, 1.1316847e-5, 1.3688994e-5
-0.428, 1.1296363e-5, 1.3643756e-5
-0.429, 1.1262820e-5, 1.3622132e-5
-0.430, 1.1274064e-5, 1.3620989e-5
-0.431, 1.1304081e-5, 1.3632631e-5
-0.432, 1.1323324e-5, 1.3683506e-5
-0.433, 1.1302972e-5, 1.3645684e-5
-0.434, 1.1272948e-5, 1.3622269e-5
-0.435, 1.1281856e-5, 1.3618232e-5
-0.436, 1.1308619e-5, 1.3633566e-5
-0.437, 1.1329372e-5, 1.3683772e-5
-0.438, 1.1312013e-5, 1.3641085e-5
-0.439, 1.1277523e-5, 1.3623117e-5
-0.440, 1.1291128e-5, 1.3617424e-5
-0.441, 1.1312567e-5, 1.3628111e-5
-0.442, 1.1338443e-5, 1.3690347e-5
-0.443, 1.1321808e-5, 1.3640523e-5
-0.444, 1.1274005e-5, 1.3610555e-5
-0.445, 1.1298505e-5, 1.3616758e-5
-0.446, 1.1321801e-5, 1.3625868e-5
-0.447, 1.1339633e-5, 1.3686848e-5
-0.448, 1.1323280e-5, 1.3637096e-5
-0.449, 1.1292311e-5, 1.3621466e-5
-0.450, 1.1305026e-5, 1.3621816e-5
-0.451, 1.1329565e-5, 1.3625173e-5
-0.452, 1.1344328e-5, 1.3683004e-5
-0.453, 1.1337910e-5, 1.3648896e-5
-0.454, 1.1298085e-5, 1.3617833e-5
-0.455, 1.1303497e-5, 1.3617006e-5
-0.456, 1.1332802e-5, 1.3622285e-5
-0.457, 1.1353502e-5, 1.3683195e-5
-0.458, 1.1345592e-5, 1.3654622e-5
-0.459, 1.1298780e-5, 1.3614768e-5
-0.460, 1.1315636e-5, 1.3617784e-5
-0.461, 1.1342559e-5, 1.3631397e-5
-0.462, 1.1364940e-5, 1.3687179e-5
-0.463, 1.1351565e-5, 1.3652318e-5
-0.464, 1.1313735e-5, 1.3628774e-5
-0.465, 1.1327013e-5, 1.3621917e-5
-0.466, 1.1349281e-5, 1.3632384e-5
-0.467, 1.1375023e-5, 1.3692040e-5
-0.468, 1.1359365e-5, 1.3649874e-5
-0.469, 1.1325549e-5, 1.3639185e-5
-0.470, 1.1337630e-5, 1.3628565e-5
-0.471, 1.1367112e-5, 1.3643057e-5
-0.472, 1.1385566e-5, 1.3702112e-5
-0.473, 1.1376162e-5, 1.3661277e-5
-0.474, 1.1338279e-5, 1.3644464e-5
-0.475, 1.1352644e-5, 1.3642812e-5
-0.476, 1.1383192e-5, 1.3650773e-5
-0.477, 1.1396840e-5, 1.3711706e-5
-0.478, 1.1390097e-5, 1.3669524e-5
-0.479, 1.1350065e-5, 1.3647324e-5
-0.480, 1.1366936e-5, 1.3655008e-5
-0.481, 1.1394637e-5, 1.3657240e-5
-0.482, 1.1421392e-5, 1.3726032e-5
-0.483, 1.1408092e-5, 1.3686452e-5
-0.484, 1.1370543e-5, 1.3659634e-5
-0.485, 1.1386430e-5, 1.3665630e-5
-0.486, 1.1418930e-5, 1.3678071e-5
-0.487, 1.1438189e-5, 1.3733143e-5
-0.488, 1.1424504e-5, 1.3695019e-5
-0.489, 1.1388183e-5, 1.3669649e-5
-0.490, 1.1407693e-5, 1.3678647e-5
-0.491, 1.1438440e-5, 1.3696429e-5
-0.492, 1.1445774e-5, 1.3736937e-5
-0.493, 1.1451408e-5, 1.3714067e-5
-0.494, 1.1413156e-5, 1.3691987e-5
-0.495, 1.1429060e-5, 1.3690054e-5
-0.496, 1.1458334e-5, 1.3706070e-5
-0.497, 1.1480765e-5, 1.3768367e-5
-0.498, 1.1479966e-5, 1.3731384e-5
-0.499, 1.1429879e-5, 1.3705700e-5
-0.500, 1.1451933e-5, 1.3705023e-5
