Jan. 28, 2006   04:03:01
Square Wave Voltammetry
File: z:\users\scottsaunders\git\labwork\ida\01_17_19_psoralen_nonequil_2\data\control\4\75um_control_transfer_4_swv_29.txt
Data Source:  Experiment
Instrument Model:  CHI760E
Header: 
Note: 

Init E (V) = 0.1
Final E (V) = -0.5
Incr E (V) = 0.001
Amplitude (V) = 0.025
Frequency (Hz) = 300
Quiet Time (sec) = 2
Sensitivity (A/V) = 1e-6
Sens 2 (A/V) = 1e-6

Potential/V, i1/A, i2/A

0.099, 2.2399456e-7, 6.4775875e-8
0.098, 1.4492117e-7, 8.1860343e-8
0.097, 1.6307756e-7, 1.3342709e-7
0.096, 1.2463748e-7, 1.4261245e-7
0.095, 1.6085129e-7, 1.5130311e-7
0.094, 1.2409329e-7, 1.0890526e-7
0.093, 1.5974641e-7, 1.3235518e-7
0.092, 1.5409006e-7, 1.7048193e-7
0.091, 1.4797196e-7, 1.5511249e-7
0.090, 1.6132952e-7, 1.6182425e-7
0.089, 1.2904054e-7, 1.3299831e-7
0.088, 1.4965404e-7, 1.2707812e-7
0.087, 1.4023779e-7, 1.1339076e-7
0.086, 1.5682754e-7, 1.2175160e-7
0.085, 1.6233545e-7, 1.4628991e-7
0.084, 1.2544552e-7, 1.0484852e-7
0.083, 1.5878994e-7, 1.0052793e-7
0.082, 1.3169554e-7, 5.8822692e-8
0.081, 1.4920877e-7, 1.4215071e-7
0.080, 1.5100628e-7, 1.4256298e-7
0.079, 1.4241456e-7, 1.0916911e-7
0.078, 1.4805443e-7, 1.3599966e-7
0.077, 1.2183405e-7, 1.1757943e-7
0.076, 1.5997728e-7, 1.5186382e-7
0.075, 1.3418567e-7, 1.5417251e-7
0.074, 1.4289282e-7, 1.5728926e-7
0.073, 1.4462434e-7, 1.5694297e-7
0.072, 1.2615463e-7, 8.3954674e-8
0.071, 1.5717383e-7, 1.1701873e-7
0.070, 1.1987164e-7, 1.0130299e-7
0.069, 1.4995086e-7, 1.5263888e-7
0.068, 1.3692313e-7, 1.1078521e-7
0.067, 1.3820940e-7, 6.9541713e-8
0.066, 1.5425496e-7, 1.0178123e-7
0.065, 1.2597323e-7, 8.7665107e-8
0.064, 1.6119760e-7, 1.4502012e-7
0.063, 1.2638552e-7, 1.1663944e-7
0.062, 1.4530046e-7, 1.3050821e-7
0.061, 1.4399768e-7, 1.4577870e-7
0.060, 1.2412627e-7, 1.2066320e-7
0.059, 1.5474969e-7, 1.4686708e-7
0.058, 1.1746398e-7, 1.4818634e-7
0.057, 1.4675166e-7, 1.7226293e-7
0.056, 1.3007946e-7, 1.2010251e-7
0.055, 1.3027734e-7, 9.6454706e-8
0.054, 1.5354587e-7, 1.1729908e-7
0.053, 1.1807415e-7, 1.0991119e-7
0.052, 1.5148451e-7, 1.2819950e-7
0.051, 1.1838748e-7, 7.7869565e-8
0.050, 1.3359200e-7, 8.1167734e-8
0.049, 1.3740136e-7, 8.8423683e-8
0.048, 1.2239474e-7, 8.4103092e-8
0.047, 1.4889545e-7, 1.2917245e-7
0.046, 1.0880631e-7, 1.1405039e-7
0.045, 1.4388226e-7, 1.2869423e-7
0.044, 1.1340725e-7, 1.1228587e-7
0.043, 1.3190993e-7, 1.1607877e-7
0.042, 1.4140863e-7, 1.4177142e-7
0.041, 1.1409986e-7, 1.5832819e-7
0.040, 1.4751024e-7, 1.3642841e-7
0.039, 1.0905367e-7, 1.1050486e-7
0.038, 1.4220018e-7, 1.1884921e-7
0.037, 1.3606561e-7, 1.2737496e-7
0.036, 1.3306428e-7, 9.9934262e-8
0.035, 1.4673516e-7, 1.1790924e-7
0.034, 1.1695278e-7, 6.5913738e-8
0.033, 1.4493767e-7, 9.2447443e-8
0.032, 1.1589736e-7, 6.9673639e-8
0.031, 1.2659990e-7, 9.1820787e-8
0.030, 1.3748382e-7, 1.4058409e-7
0.029, 1.0593692e-7, 1.2430766e-7
0.028, 1.3786311e-7, 1.2138879e-7
0.027, 1.1192307e-7, 8.8027903e-8
0.026, 1.3980903e-7, 1.4099636e-7
0.025, 1.2285648e-7, 1.5183082e-7
0.024, 1.2627007e-7, 1.2791915e-7
0.023, 1.3728592e-7, 1.4126022e-7
0.022, 1.0671199e-7, 1.1442967e-7
0.021, 1.3817643e-7, 1.0585445e-7
0.020, 1.1830502e-7, 9.8845874e-8
0.019, 1.2565991e-7, 1.0883929e-7
0.018, 1.4231563e-7, 1.2757285e-7
0.017, 1.1254973e-7, 6.8486301e-8
0.016, 1.3964411e-7, 8.1134743e-8
0.015, 1.0623375e-7, 6.6029173e-8
0.014, 1.3499371e-7, 1.1546860e-7
0.013, 1.2798512e-7, 1.3200888e-7
0.012, 1.2130634e-7, 9.5745591e-8
0.011, 1.3019488e-7, 1.3515861e-7
0.010, 1.1160975e-7, 1.0577200e-7
0.009, 1.3974305e-7, 1.4314017e-7
0.008, 1.0717372e-7, 1.3431759e-7
0.007, 1.3827538e-7, 1.4642184e-7
0.006, 1.2948578e-7, 1.3451547e-7
0.005, 1.0999365e-7, 8.7500197e-8
0.004, 1.4048514e-7, 9.7312224e-8
0.003, 1.0878982e-7, 7.7193448e-8
0.002, 1.3189344e-7, 1.3139871e-7
0.001, 1.1607877e-7, 1.0316646e-7
-0.000, 1.2249369e-7, 5.9070057e-8
-0.001, 1.3202538e-7, 8.7384763e-8
-0.002, 9.9967245e-8, 7.5989618e-8
-0.003, 1.3774766e-7, 9.7460642e-8
-0.004, 1.0643164e-7, 1.0235841e-7
-0.005, 1.3024436e-7, 1.1151081e-7
-0.006, 1.2518169e-7, 1.2773776e-7
-0.007, 1.0834457e-7, 1.1212096e-7
-0.008, 1.3865466e-7, 1.2628657e-7
-0.009, 9.4624220e-8, 1.4958808e-7
-0.010, 1.3482881e-7, 1.7196609e-7
-0.011, 1.1304445e-7, 1.1790924e-7
-0.012, 1.2112494e-7, 9.5366310e-8
-0.013, 1.3796205e-7, 1.0986172e-7
-0.014, 1.0852597e-7, 9.3750216e-8
-0.015, 1.4274438e-7, 1.1019154e-7
-0.016, 1.0410643e-7, 9.7081355e-8
-0.017, 1.2161966e-7, 7.7473786e-8
-0.018, 1.2280701e-7, 9.6636100e-8
-0.019, 1.1426476e-7, 6.7727726e-8
-0.020, 1.3595017e-7, 9.4475809e-8
-0.021, 9.4178972e-8, 1.1020803e-7
-0.022, 1.3378988e-7, 1.3238817e-7
-0.023, 1.0245736e-7, 9.5762090e-8
-0.024, 1.1863484e-7, 9.3766701e-8
-0.025, 1.2636902e-7, 1.4906036e-7
-0.026, 9.5877525e-8, 1.6156039e-7
-0.027, 1.3560387e-7, 1.4948913e-7
-0.028, 1.0127002e-7, 9.7526609e-8
-0.029, 1.2579184e-7, 1.0334786e-7
-0.030, 1.2468695e-7, 1.1383601e-7
-0.031, 1.1912955e-7, 9.1293082e-8
-0.032, 1.2948578e-7, 1.0781687e-7
-0.033, 9.8070799e-8, 9.9439539e-8
-0.034, 1.3408672e-7, 9.9324097e-8
-0.035, 1.1213746e-7, 6.4033784e-8
-0.036, 1.1599631e-7, 7.6385398e-8
-0.037, 1.2805108e-7, 1.1405039e-7
-0.038, 1.0598638e-7, 9.3337945e-8
-0.039, 1.3726944e-7, 1.1842046e-7
-0.040, 9.2233059e-8, 1.0377661e-7
-0.041, 1.2770478e-7, 1.1541913e-7
-0.042, 1.2170212e-7, 1.3146467e-7
-0.043, 1.1632612e-7, 1.2496730e-7
-0.044, 1.2925491e-7, 1.5676157e-7
-0.045, 9.7262756e-8, 1.0550815e-7
-0.046, 1.3636244e-7, 9.5382802e-8
-0.047, 1.0282015e-7, 7.7688171e-8
-0.048, 1.2341717e-7, 1.0212754e-7
-0.049, 1.2760583e-7, 1.2430766e-7
-0.050, 1.0257278e-7, 9.1540443e-8
-0.051, 1.3352603e-7, 6.4858327e-8
-0.052, 9.8054315e-8, 4.3008015e-8
-0.053, 1.2574236e-7, 1.0458467e-7
-0.054, 1.1370408e-7, 1.1687032e-7
-0.055, 1.0728917e-7, 9.5778574e-8
-0.056, 1.2638552e-7, 1.2971665e-7
-0.057, 8.8473151e-8, 1.1017505e-7
-0.058, 1.2539607e-7, 1.2404382e-7
-0.059, 1.0611831e-7, 1.0273770e-7
-0.060, 1.2292244e-7, 1.5176485e-7
-0.061, 1.2369750e-7, 1.5638227e-7
-0.062, 9.7493626e-8, 1.0854247e-7
-0.063, 1.3222325e-7, 9.0600466e-8
-0.064, 1.0092371e-7, 8.6857057e-8
-0.065, 1.3296534e-7, 1.2229579e-7
-0.066, 1.0799826e-7, 1.1378654e-7
-0.067, 1.1259920e-7, 9.6652592e-8
-0.068, 1.3309727e-7, 8.4020641e-8
-0.069, 9.3964594e-8, 5.4980337e-8
-0.070, 1.2625358e-7, 8.2124195e-8
-0.071, 1.0171527e-7, 1.0578850e-7
-0.072, 1.1967376e-7, 1.2003656e-7
-0.073, 1.1617770e-7, 1.2678129e-7
-0.074, 1.0014864e-7, 1.0466712e-7
-0.075, 1.2635253e-7, 1.0661304e-7
-0.076, 8.8786479e-8, 1.1167572e-7
-0.077, 1.2656690e-7, 1.4896142e-7
-0.078, 1.0016514e-7, 1.2965069e-7
-0.079, 1.1688681e-7, 7.8001491e-8
-0.080, 1.1898114e-7, 1.1635910e-7
-0.081, 9.5844541e-8, 9.4921063e-8
-0.082, 1.3430110e-7, 1.0636568e-7
-0.083, 9.9670409e-8, 8.9215241e-8
-0.084, 1.2493432e-7, 1.0446923e-7
-0.085, 1.1532018e-7, 8.2355065e-8
-0.086, 1.1306094e-7, 5.8229020e-8
-0.087, 1.2265859e-7, 7.7572736e-8
-0.088, 9.7295732e-8, 1.0773442e-7
-0.089, 1.2128984e-7, 1.3050821e-7
-0.090, 1.0206158e-7, 9.8961308e-8
-0.091, 1.0895474e-7, 1.0306752e-7
-0.092, 1.2185053e-7, 1.1959129e-7
-0.093, 9.9142710e-8, 1.1489142e-7
-0.094, 1.3247062e-7, 1.4533344e-7
-0.095, 9.9373580e-8, 1.2935385e-7
-0.096, 1.1334129e-7, 1.2013550e-7
-0.097, 1.1154378e-7, 1.0939999e-7
-0.098, 1.0836106e-7, 7.5362969e-8
-0.099, 1.3370742e-7, 1.1182414e-7
-0.100, 8.8901913e-8, 9.9554974e-8
-0.101, 1.3286639e-7, 1.1523773e-7
-0.102, 9.7394675e-8, 6.4033784e-8
-0.103, 1.1419881e-7, 6.4891303e-8
-0.104, 1.1754644e-7, 9.6091902e-8
-0.105, 1.0628322e-7, 8.4944126e-8
-0.106, 1.2161968e-7, 1.2176808e-7
-0.107, 8.7731074e-8, 9.5861033e-8
-0.108, 1.2531360e-7, 1.2021795e-7
-0.109, 1.0735513e-7, 1.0329839e-7
-0.110, 1.1190659e-7, 1.0204509e-7
-0.111, 1.3359200e-7, 1.4305772e-7
-0.112, 9.4525276e-8, 1.4732882e-7
-0.113, 1.3383935e-7, 1.4467381e-7
-0.114, 1.0328190e-7, 9.4030561e-8
-0.115, 1.2260911e-7, 1.0306751e-7
-0.116, 1.2856231e-7, 1.1299498e-7
-0.117, 1.0044548e-7, 1.0267173e-7
-0.118, 1.3311376e-7, 1.0907016e-7
-0.119, 9.7378191e-8, 8.1629473e-8
-0.120, 1.2439011e-7, 8.5207972e-8
-0.121, 1.0808072e-7, 7.0613616e-8
-0.122, 1.0766846e-7, 6.7645267e-8
-0.123, 1.3032681e-7, 1.1652401e-7
-0.124, 1.0204509e-7, 1.1378654e-7
-0.125, 1.2476940e-7, 1.2251017e-7
-0.126, 9.0435563e-8, 9.7724495e-8
-0.127, 1.1921202e-7, 1.1004313e-7
-0.128, 1.1945937e-7, 1.3848975e-7
-0.129, 1.0364469e-7, 1.2371400e-7
-0.130, 1.2897456e-7, 1.4708147e-7
-0.131, 9.1375533e-8, 1.1335777e-7
-0.132, 1.3093697e-7, 1.3740136e-7
-0.133, 9.8120275e-8, 9.9043760e-8
-0.134, 1.1724961e-7, 9.2859707e-8
-0.135, 1.2602271e-7, 1.2940333e-7
-0.136, 9.7394675e-8, 1.1647453e-7
-0.137, 1.3299832e-7, 1.1355566e-7
-0.138, 9.3403898e-8, 5.5425588e-8
-0.139, 1.2396137e-7, 7.9353740e-8
-0.140, 1.2298841e-7, 1.0443625e-7
-0.141, 1.1752995e-7, 8.0722472e-8
-0.142, 1.3252009e-7, 1.2918895e-7
-0.143, 9.6388739e-8, 1.1314339e-7
-0.144, 1.2968367e-7, 1.2076215e-7
-0.145, 9.6454698e-8, 1.0689337e-7
-0.146, 1.2091057e-7, 1.1348970e-7
-0.147, 1.2290596e-7, 1.9196943e-7
-0.148, 1.0041249e-7, 1.5212765e-7
-0.149, 1.3024436e-7, 1.5745418e-7
-0.150, 9.5382802e-8, 1.1593035e-7
-0.151, 1.2262561e-7, 1.0882280e-7
-0.152, 1.2117442e-7, 1.1939341e-7
-0.153, 1.2066320e-7, 9.2249550e-8
-0.154, 1.3329515e-7, 1.3499371e-7
-0.155, 9.4525284e-8, 1.1677137e-7
-0.156, 1.3034330e-7, 1.3047523e-7
-0.157, 1.0646463e-7, 6.2994872e-8
-0.158, 1.1965726e-7, 8.5059561e-8
-0.159, 1.2864476e-7, 1.0722319e-7
-0.160, 1.1154379e-7, 8.9050339e-8
-0.161, 1.3951220e-7, 1.2927140e-7
-0.162, 9.6768026e-8, 1.0278717e-7
-0.163, 1.2315331e-7, 1.4175494e-7
-0.164, 1.2391189e-7, 1.2691322e-7
-0.165, 1.2003655e-7, 1.1785976e-7
-0.166, 1.3326218e-7, 1.5786645e-7
-0.167, 1.0598639e-7, 1.5702543e-7
-0.168, 1.4045216e-7, 1.6827214e-7
-0.169, 1.0943297e-7, 1.1398443e-7
-0.170, 1.2991454e-7, 1.3398778e-7
-0.171, 1.3322919e-7, 1.2757285e-7
-0.172, 1.0915263e-7, 1.0715724e-7
-0.173, 1.4525099e-7, 1.2076214e-7
-0.174, 1.1055434e-7, 1.0428784e-7
-0.175, 1.2927140e-7, 1.4779057e-7
-0.176, 1.1888220e-7, 7.5082625e-8
-0.177, 1.1441318e-7, 6.8832612e-8
-0.178, 1.3682418e-7, 1.0234192e-7
-0.179, 1.0440327e-7, 1.0954840e-7
-0.180, 1.3712102e-7, 1.3956166e-7
-0.181, 1.0451870e-7, 1.1602928e-7
-0.182, 1.2635253e-7, 1.3543895e-7
-0.183, 1.2946930e-7, 1.5346340e-7
-0.184, 1.0918561e-7, 1.1964077e-7
-0.185, 1.4805443e-7, 1.4248054e-7
-0.186, 1.0573902e-7, 1.4729584e-7
-0.187, 1.4264543e-7, 1.8242126e-7
-0.188, 1.1901412e-7, 1.5484862e-7
-0.189, 1.2254316e-7, 1.0166580e-7
-0.190, 1.3529055e-7, 1.1733205e-7
-0.191, 1.2018496e-7, 1.1568298e-7
-0.192, 1.4203529e-7, 1.3923184e-7
-0.193, 1.1471002e-7, 1.2163616e-7
-0.194, 1.4652078e-7, 1.4236510e-7
-0.195, 1.3499371e-7, 1.2790267e-7
-0.196, 1.2100951e-7, 8.5752177e-8
-0.197, 1.4177144e-7, 1.0577201e-7
-0.198, 1.0601937e-7, 1.0070933e-7
-0.199, 1.4749375e-7, 1.6222002e-7
-0.200, 1.1309392e-7, 1.4947264e-7
-0.201, 1.2562694e-7, 1.4007287e-7
-0.202, 1.3599964e-7, 1.6426489e-7
-0.203, 1.0397451e-7, 1.4886248e-7
-0.204, 1.5019825e-7, 1.4137565e-7
-0.205, 1.2030040e-7, 1.3933079e-7
-0.206, 1.3636244e-7, 1.8044237e-7
-0.207, 1.3476284e-7, 1.9182102e-7
-0.208, 1.3242115e-7, 1.5526091e-7
-0.209, 1.4502012e-7, 1.7135594e-7
-0.210, 1.2063022e-7, 1.3266850e-7
-0.211, 1.4751024e-7, 1.4483872e-7
-0.212, 1.2688024e-7, 1.4464082e-7
-0.213, 1.3822591e-7, 1.4249702e-7
-0.214, 1.4869757e-7, 1.7366463e-7
-0.215, 1.3306429e-7, 1.5029717e-7
-0.216, 1.5679456e-7, 1.1728258e-7
-0.217, 1.2437364e-7, 9.4739654e-8
-0.218, 1.4995086e-7, 1.3471336e-7
-0.219, 1.4858213e-7, 1.5046207e-7
-0.220, 1.4460785e-7, 1.5951554e-7
-0.221, 1.5661314e-7, 1.9554793e-7
-0.222, 1.2331822e-7, 1.7119103e-7
-0.223, 1.6083480e-7, 1.7384605e-7
-0.224, 1.3166257e-7, 1.4320612e-7
-0.225, 1.6259932e-7, 1.8004658e-7
-0.226, 1.6320948e-7, 1.9858224e-7
-0.227, 1.4224966e-7, 1.8120093e-7
-0.228, 1.6639220e-7, 1.9312380e-7
-0.229, 1.3037629e-7, 1.6302806e-7
-0.230, 1.5446936e-7, 2.0481578e-7
-0.231, 1.5056104e-7, 1.5311709e-7
-0.232, 1.5298517e-7, 1.4821933e-7
-0.233, 1.8027745e-7, 1.8070622e-7
-0.234, 1.4023779e-7, 1.6881634e-7
-0.235, 1.7222995e-7, 1.7979923e-7
-0.236, 1.4477277e-7, 1.3143170e-7
-0.237, 1.7043244e-7, 1.3924833e-7
-0.238, 1.7244432e-7, 1.4421207e-7
-0.239, 1.5620088e-7, 1.5077541e-7
-0.240, 1.8230583e-7, 1.6452874e-7
-0.241, 1.4719690e-7, 1.9315678e-7
-0.242, 1.7493443e-7, 2.0397474e-7
-0.243, 1.5890538e-7, 1.9591073e-7
-0.244, 1.5893835e-7, 1.7905714e-7
-0.245, 1.8873723e-7, 2.0333160e-7
-0.246, 1.5940010e-7, 1.9800507e-7
-0.247, 1.9154068e-7, 2.2015222e-7
-0.248, 1.5399111e-7, 2.2691344e-7
-0.249, 1.8336124e-7, 2.3281714e-7
-0.250, 1.8266861e-7, 2.2161990e-7
-0.251, 1.7279062e-7, 1.9807102e-7
-0.252, 1.9027087e-7, 1.7884275e-7
-0.253, 1.4922526e-7, 1.8092059e-7
-0.254, 1.9846681e-7, 2.0738833e-7
-0.255, 1.6419892e-7, 1.8758287e-7
-0.256, 1.7831505e-7, 1.7358218e-7
-0.257, 1.8682429e-7, 2.0643186e-7
-0.258, 1.5417251e-7, 1.4889547e-7
-0.259, 2.0026431e-7, 1.6838759e-7
-0.260, 1.6345683e-7, 1.5936713e-7
-0.261, 1.9442656e-7, 2.0268845e-7
-0.262, 1.8581837e-7, 2.3128351e-7
-0.263, 1.7851293e-7, 1.9360203e-7
-0.264, 1.9650439e-7, 2.0225970e-7
-0.265, 1.6169233e-7, 2.1119770e-7
-0.266, 1.9485532e-7, 2.2524787e-7
-0.267, 1.8367456e-7, 2.1767859e-7
-0.268, 1.8374053e-7, 2.2089429e-7
-0.269, 1.9350307e-7, 2.5946628e-7
-0.270, 1.7564354e-7, 2.3355923e-7
-0.271, 1.9787315e-7, 2.2669906e-7
-0.272, 1.6106566e-7, 2.0229268e-7
-0.273, 1.9739491e-7, 2.0206180e-7
-0.274, 1.9272801e-7, 2.0684413e-7
-0.275, 1.8354264e-7, 1.8865478e-7
-0.276, 1.9597668e-7, 2.3016213e-7
-0.277, 1.6982227e-7, 1.9996747e-7
-0.278, 2.0631643e-7, 2.1200576e-7
-0.279, 1.7099313e-7, 1.5727279e-7
-0.280, 1.8573590e-7, 1.6753006e-7
-0.281, 1.9106244e-7, 1.9609213e-7
-0.282, 1.6896476e-7, 2.0425507e-7
-0.283, 1.8967721e-7, 2.2275776e-7
-0.284, 1.6307754e-7, 1.8911652e-7
-0.285, 1.8689026e-7, 2.3060738e-7
-0.286, 1.7018507e-7, 2.1771159e-7
-0.287, 1.7351623e-7, 1.8947932e-7
-0.288, 1.9417919e-7, 2.2707835e-7
-0.289, 1.6108216e-7, 2.2194972e-7
-0.290, 1.8736849e-7, 2.4576244e-7
-0.291, 1.6403401e-7, 2.1870103e-7
-0.292, 1.7979922e-7, 2.1616145e-7
-0.293, 1.8718711e-7, 2.2778745e-7
-0.294, 1.6289616e-7, 1.8543908e-7
-0.295, 1.9259608e-7, 1.9746088e-7
-0.296, 1.5789944e-7, 2.0024783e-7
-0.297, 1.8951229e-7, 2.1957504e-7
-0.298, 1.6851951e-7, 2.0298529e-7
-0.299, 1.6767848e-7, 1.6406699e-7
-0.300, 1.8059077e-7, 1.7750700e-7
-0.301, 1.5151750e-7, 1.5531037e-7
-0.302, 1.8555450e-7, 1.7420885e-7
-0.303, 1.5135258e-7, 1.9073262e-7
-0.304, 1.7096015e-7, 2.1032371e-7
-0.305, 1.6543572e-7, 2.2124061e-7
-0.306, 1.4864810e-7, 1.8769832e-7
-0.307, 1.6785987e-7, 1.9551496e-7
-0.308, 1.4104583e-7, 1.8535663e-7
-0.309, 1.8172865e-7, 2.2608891e-7
-0.310, 1.4292577e-7, 2.2846358e-7
-0.311, 1.6263230e-7, 2.1441342e-7
-0.312, 1.6997070e-7, 2.2785341e-7
-0.313, 1.3893502e-7, 2.0996089e-7
-0.314, 1.6842056e-7, 1.8636257e-7
-0.315, 1.3278394e-7, 1.7946940e-7
-0.316, 1.6790933e-7, 1.9233224e-7
-0.317, 1.6523785e-7, 1.9772472e-7
-0.318, 1.5806434e-7, 1.7533023e-7
-0.319, 1.6893178e-7, 1.8252020e-7
-0.320, 1.3875362e-7, 1.3853924e-7
-0.321, 1.6728269e-7, 1.5534336e-7
-0.322, 1.3652735e-7, 1.5102277e-7
-0.323, 1.5954851e-7, 1.7534670e-7
-0.324, 1.6502345e-7, 2.3291609e-7
-0.325, 1.3438355e-7, 1.9035333e-7
-0.326, 1.6532030e-7, 1.9290940e-7
-0.327, 1.3228922e-7, 1.7598984e-7
-0.328, 1.5054454e-7, 2.0009939e-7
-0.329, 1.5098979e-7, 2.0938373e-7
-0.330, 1.5468373e-7, 1.8761585e-7
-0.331, 1.6372070e-7, 2.2989828e-7
-0.332, 1.2872721e-7, 1.9919240e-7
-0.333, 1.6449575e-7, 2.1113173e-7
-0.334, 1.3370742e-7, 1.8717060e-7
-0.335, 1.4520153e-7, 1.6634273e-7
-0.336, 1.6393507e-7, 1.9671879e-7
-0.337, 1.4266192e-7, 1.6251686e-7
-0.338, 1.6781040e-7, 1.8143182e-7
-0.339, 1.2536309e-7, 1.7340079e-7
-0.340, 1.5290273e-7, 1.9315678e-7
-0.341, 1.4332157e-7, 1.4426152e-7
-0.342, 1.4238159e-7, 1.2069619e-7
-0.343, 1.6858547e-7, 1.7064683e-7
-0.344, 1.2384592e-7, 1.7227941e-7
-0.345, 1.6197266e-7, 2.1002687e-7
-0.346, 1.3707155e-7, 1.7348324e-7
-0.347, 1.5987834e-7, 1.9808751e-7
-0.348, 1.6091725e-7, 1.9004001e-7
-0.349, 1.2410977e-7, 1.7528073e-7
-0.350, 1.6596344e-7, 1.6997069e-7
-0.351, 1.3352602e-7, 1.8316334e-7
-0.352, 1.4600957e-7, 2.2394511e-7
-0.353, 1.4403066e-7, 2.1972346e-7
-0.354, 1.3961113e-7, 1.9220030e-7
-0.355, 1.6208810e-7, 2.0247410e-7
-0.356, 1.2590729e-7, 1.5910325e-7
-0.357, 1.6495751e-7, 1.8202547e-7
-0.358, 1.2056427e-7, 1.7044894e-7
-0.359, 1.5730576e-7, 1.8116795e-7
-0.360, 1.5681104e-7, 1.9909346e-7
-0.361, 1.3835783e-7, 1.7208153e-7
-0.362, 1.6025763e-7, 1.6345683e-7
-0.363, 1.2622060e-7, 1.3177801e-7
-0.364, 1.6108216e-7, 1.5738821e-7
-0.365, 1.3609859e-7, 1.5054454e-7
-0.366, 1.4478924e-7, 1.4215072e-7
-0.367, 1.5745420e-7, 2.0113832e-7
-0.368, 1.2038286e-7, 1.9025440e-7
-0.369, 1.5979589e-7, 1.9637247e-7
-0.370, 1.2531362e-7, 1.6182425e-7
-0.371, 1.5620087e-7, 1.7988168e-7
-0.372, 1.5240801e-7, 2.0931776e-7
-0.373, 1.5051155e-7, 1.9535004e-7
-0.374, 1.6391857e-7, 2.1203873e-7
-0.375, 1.2986507e-7, 2.1184086e-7
-0.376, 1.5768505e-7, 1.9825244e-7
-0.377, 1.2998051e-7, 1.8787972e-7
-0.378, 1.4426155e-7, 1.6355578e-7
-0.379, 1.6230248e-7, 1.9180453e-7
-0.380, 1.3232220e-7, 1.7288959e-7
-0.381, 1.7424180e-7, 1.7415935e-7
-0.382, 1.2683076e-7, 1.6482556e-7
-0.383, 1.5841066e-7, 1.7803471e-7
-0.384, 1.5095679e-7, 1.4551486e-7
-0.385, 1.4594360e-7, 1.1988814e-7
-0.386, 1.6525433e-7, 1.5479917e-7
-0.387, 1.2927140e-7, 1.4577870e-7
-0.388, 1.7124050e-7, 1.9332168e-7
-0.389, 1.4399768e-7, 1.8730253e-7
-0.390, 1.4264543e-7, 1.9386587e-7
-0.391, 1.5826224e-7, 2.0463436e-7
-0.392, 1.3872064e-7, 1.7016858e-7
-0.393, 1.6695289e-7, 1.8961124e-7
-0.394, 1.2711111e-7, 1.8632959e-7
-0.395, 1.5911975e-7, 2.4157376e-7
-0.396, 1.5230904e-7, 2.2938706e-7
-0.397, 1.5098979e-7, 2.0131972e-7
-0.398, 1.6157688e-7, 2.2361527e-7
-0.399, 1.3378988e-7, 1.5826222e-7
-0.400, 1.6106569e-7, 1.8489487e-7
-0.401, 1.4628991e-7, 1.5041262e-7
-0.402, 1.7002017e-7, 1.8326227e-7
-0.403, 1.6377017e-7, 1.9749385e-7
-0.404, 1.4358542e-7, 1.6855249e-7
-0.405, 1.7246082e-7, 1.4483871e-7
-0.406, 1.3240464e-7, 1.1865133e-7
-0.407, 1.6182425e-7, 1.6927810e-7
-0.408, 1.4871405e-7, 1.4055111e-7
-0.409, 1.5171538e-7, 1.5964747e-7
-0.410, 1.7161977e-7, 2.1373729e-7
-0.411, 1.3934729e-7, 1.8139883e-7
-0.412, 1.6947598e-7, 1.9836787e-7
-0.413, 1.4266195e-7, 1.7081172e-7
-0.414, 1.5705839e-7, 1.8637905e-7
-0.415, 1.6233547e-7, 1.9922538e-7
-0.416, 1.4231563e-7, 2.2059744e-7
-0.417, 1.7979923e-7, 2.0925178e-7
-0.418, 1.3575229e-7, 2.1898138e-7
-0.419, 1.6790935e-7, 2.2443983e-7
-0.420, 1.4502012e-7, 1.6937703e-7
-0.421, 1.5474970e-7, 1.5567318e-7
-0.422, 1.7100962e-7, 1.8443313e-7
-0.423, 1.4896142e-7, 1.8016203e-7
-0.424, 1.9282695e-7, 2.0537644e-7
-0.425, 1.4541590e-7, 1.6837109e-7
-0.426, 1.7452217e-7, 1.7737509e-7
-0.427, 1.5966395e-7, 1.6124707e-7
-0.428, 1.5869099e-7, 1.2744093e-7
-0.429, 1.7242783e-7, 1.6157688e-7
-0.430, 1.4607554e-7, 1.6708482e-7
-0.431, 1.7823260e-7, 2.0806444e-7
-0.432, 1.5196274e-7, 1.8006308e-7
-0.433, 1.6022463e-7, 1.8372401e-7
-0.434, 1.6449576e-7, 1.9838436e-7
-0.435, 1.3637893e-7, 1.9182100e-7
-0.436, 1.7585792e-7, 1.8999053e-7
-0.437, 1.5722331e-7, 2.0507962e-7
-0.438, 1.7018507e-7, 2.3817668e-7
-0.439, 1.7176821e-7, 2.3570304e-7
-0.440, 1.6324246e-7, 2.1198927e-7
-0.441, 1.8341071e-7, 1.8034342e-7
-0.442, 1.3537300e-7, 1.8031044e-7
-0.443, 1.8143180e-7, 1.8037639e-7
-0.444, 1.5806435e-7, 1.8667589e-7
-0.445, 1.7430777e-7, 1.8022797e-7
-0.446, 1.7798521e-7, 2.0059412e-7
-0.447, 1.6177478e-7, 1.6668903e-7
-0.448, 1.8807761e-7, 1.5488160e-7
-0.449, 1.4464084e-7, 1.3504319e-7
-0.450, 1.7645158e-7, 1.6213758e-7
-0.451, 1.8078867e-7, 1.9335465e-7
-0.452, 1.7345025e-7, 1.8538961e-7
-0.453, 1.8197601e-7, 2.2575909e-7
-0.454, 1.5024770e-7, 1.8952878e-7
-0.455, 1.7843050e-7, 2.0079200e-7
-0.456, 1.5037963e-7, 1.7818311e-7
-0.457, 1.8517522e-7, 1.9838437e-7
-0.458, 1.9013896e-7, 2.5498079e-7
-0.459, 1.6490803e-7, 2.2392861e-7
-0.460, 1.8219039e-7, 2.2585803e-7
-0.461, 1.5519494e-7, 2.0549187e-7
-0.462, 1.7943641e-7, 1.9610860e-7
-0.463, 1.7153734e-7, 1.7485198e-7
-0.464, 1.7371411e-7, 1.6985528e-7
-0.465, 1.9543251e-7, 2.0633290e-7
-0.466, 1.6499050e-7, 1.8003010e-7
-0.467, 1.8891863e-7, 2.1113172e-7
-0.468, 1.6756306e-7, 1.5059399e-7
-0.469, 1.8301493e-7, 1.4892844e-7
-0.470, 1.8090410e-7, 1.7905714e-7
-0.471, 1.7508285e-7, 1.5969692e-7
-0.472, 1.9785665e-7, 1.7722665e-7
-0.473, 1.6001025e-7, 2.1624388e-7
-0.474, 1.9723001e-7, 2.3477955e-7
-0.475, 1.7346676e-7, 2.0672869e-7
-0.476, 1.7435725e-7, 1.8509277e-7
-0.477, 1.9688369e-7, 2.1626037e-7
-0.478, 1.6787638e-7, 1.9924187e-7
-0.479, 2.0474981e-7, 2.4134289e-7
-0.480, 1.6365473e-7, 2.4633962e-7
-0.481, 1.9226627e-7, 2.6378689e-7
-0.482, 1.9068315e-7, 2.4538312e-7
-0.483, 1.7354921e-7, 1.8113496e-7
-0.484, 1.9582828e-7, 1.9091402e-7
-0.485, 1.6908021e-7, 1.9292588e-7
-0.486, 1.9963765e-7, 2.1903085e-7
-0.487, 1.8151427e-7, 1.9932433e-7
-0.488, 1.8634607e-7, 2.0019834e-7
-0.489, 2.0229267e-7, 2.2640225e-7
-0.490, 1.6342385e-7, 1.9863174e-7
-0.491, 2.1043914e-7, 1.7650106e-7
-0.492, 1.8035990e-7, 1.5247397e-7
-0.493, 2.0621749e-7, 2.0789955e-7
-0.494, 1.9444305e-7, 2.2389563e-7
-0.495, 1.9094699e-7, 2.1198925e-7
-0.496, 2.0211128e-7, 2.4116150e-7
-0.497, 1.7775434e-7, 2.2148799e-7
-0.498, 1.9929134e-7, 2.4976970e-7
-0.499, 1.9093052e-7, 2.1319309e-7
-0.500, 1.9541601e-7, 2.2536331e-7
