Jan. 28, 2006   03:53:18
Square Wave Voltammetry
File: z:\users\scottsaunders\git\labwork\ida\01_17_19_psoralen_nonequil_2\data\control\4\75um_control_transfer_4_swv_20.txt
Data Source:  Experiment
Instrument Model:  CHI760E
Header: 
Note: 

Init E (V) = 0.1
Final E (V) = -0.5
Incr E (V) = 0.001
Amplitude (V) = 0.025
Frequency (Hz) = 300
Quiet Time (sec) = 2
Sensitivity (A/V) = 1e-6
Sens 2 (A/V) = 1e-6

Potential/V, i1/A, i2/A

0.099, 2.3740159e-7, 1.2668234e-7
0.098, 1.4276087e-7, 1.2638552e-7
0.097, 1.4873055e-7, 1.3426812e-7
0.096, 1.5420549e-7, 1.8951231e-7
0.095, 1.2867774e-7, 1.6611186e-7
0.094, 1.6604589e-7, 1.5598650e-7
0.093, 1.3065662e-7, 9.6735036e-8
0.092, 1.6091725e-7, 1.2011901e-7
0.091, 1.5171537e-7, 1.4137564e-7
0.090, 1.3962762e-7, 1.0888877e-7
0.089, 1.6205512e-7, 1.1426478e-7
0.088, 1.2475293e-7, 1.1386900e-7
0.087, 1.5618440e-7, 1.1475950e-7
0.086, 1.4220019e-7, 8.7500204e-8
0.085, 1.4218369e-7, 9.0946770e-8
0.084, 1.6398454e-7, 1.5369429e-7
0.083, 1.2592378e-7, 1.2951875e-7
0.082, 1.5669562e-7, 1.4371733e-7
0.081, 1.2326875e-7, 1.0282016e-7
0.080, 1.5285325e-7, 1.4475627e-7
0.079, 1.4772461e-7, 1.5765207e-7
0.078, 1.2750689e-7, 1.5948257e-7
0.077, 1.5585458e-7, 1.5877345e-7
0.076, 1.1888219e-7, 9.6702067e-8
0.075, 1.4586114e-7, 1.3565334e-7
0.074, 1.3740137e-7, 1.0643164e-7
0.073, 1.4879652e-7, 1.0344681e-7
0.072, 1.5936712e-7, 1.3149766e-7
0.071, 1.2455503e-7, 1.1348970e-7
0.070, 1.5219361e-7, 9.7559578e-8
0.069, 1.2608868e-7, 7.1537102e-8
0.068, 1.4406365e-7, 9.6322772e-8
0.067, 1.3901746e-7, 1.2872721e-7
0.066, 1.2988156e-7, 1.2486835e-7
0.065, 1.4513554e-7, 1.2486835e-7
0.064, 1.1223641e-7, 1.1947586e-7
0.063, 1.4970351e-7, 1.3291587e-7
0.062, 1.2369750e-7, 1.3100293e-7
0.061, 1.4267843e-7, 1.3293236e-7
0.060, 1.4577870e-7, 1.7338429e-7
0.059, 1.1901412e-7, 1.3215728e-7
0.058, 1.5095681e-7, 1.3806100e-7
0.057, 1.1233534e-7, 1.0268823e-7
0.056, 1.4480574e-7, 1.1899763e-7
0.055, 1.4221668e-7, 1.2180107e-7
0.054, 1.3426812e-7, 1.0755301e-7
0.053, 1.4927474e-7, 9.9719877e-8
0.052, 1.1302797e-7, 7.3433540e-8
0.051, 1.4536643e-7, 9.1853771e-8
0.050, 1.2094355e-7, 7.4521935e-8
0.049, 1.2940333e-7, 1.3621403e-7
0.048, 1.4427803e-7, 1.3801153e-7
0.047, 1.2056425e-7, 1.1782679e-7
0.046, 1.4157354e-7, 1.2445608e-7
0.045, 1.1040592e-7, 9.0386088e-8
0.044, 1.4163950e-7, 1.5338095e-7
0.043, 1.3321269e-7, 1.6901424e-7
0.042, 1.2961772e-7, 1.4373384e-7
0.041, 1.3890204e-7, 1.4831828e-7
0.040, 1.1456160e-7, 1.1929447e-7
0.039, 1.4414610e-7, 1.1043890e-7
0.038, 1.2630306e-7, 9.3733718e-8
0.037, 1.4150757e-7, 1.1761241e-7
0.036, 1.3941325e-7, 1.3085452e-7
0.035, 1.2819950e-7, 8.4614307e-8
0.034, 1.4823583e-7, 7.1784463e-8
0.033, 1.0841053e-7, 6.8568752e-8
0.032, 1.3931430e-7, 1.1912956e-7
0.031, 1.2927140e-7, 1.1962427e-7
0.030, 1.2425819e-7, 1.1820607e-7
0.029, 1.4596009e-7, 1.3210781e-7
0.028, 1.0989471e-7, 1.1807414e-7
0.027, 1.3905044e-7, 1.1274762e-7
0.026, 1.1205501e-7, 1.1001014e-7
0.025, 1.3964411e-7, 1.4408013e-7
0.024, 1.4045216e-7, 1.5854258e-7
0.023, 1.1715066e-7, 1.2374699e-7
0.022, 1.4229913e-7, 1.0519484e-7
0.021, 1.0862491e-7, 1.0349628e-7
0.020, 1.4675165e-7, 1.3656035e-7
0.019, 1.2061373e-7, 1.0743757e-7
0.018, 1.2546202e-7, 1.0432082e-7
0.017, 1.3834135e-7, 1.0526079e-7
0.016, 1.1706821e-7, 6.3720464e-8
0.015, 1.3319621e-7, 9.8911840e-8
0.014, 1.1400091e-7, 8.6675655e-8
0.013, 1.3852275e-7, 1.2739146e-7
0.012, 1.2734198e-7, 1.3669226e-7
0.011, 1.1812362e-7, 1.0418889e-7
0.010, 1.2725953e-7, 1.1007612e-7
0.009, 1.0784986e-7, 1.0102265e-7
0.008, 1.3685717e-7, 1.6781041e-7
0.007, 1.1535316e-7, 1.4008937e-7
0.006, 1.2608868e-7, 1.2274104e-7
0.005, 1.3413619e-7, 1.2389540e-7
0.004, 1.0433731e-7, 1.0211104e-7
0.003, 1.3487826e-7, 1.1629314e-7
0.002, 1.1005962e-7, 1.0483203e-7
0.001, 1.3474636e-7, 1.1738153e-7
-0.000, 1.1903061e-7, 1.2785318e-7
-0.001, 1.1879975e-7, 4.8565411e-8
-0.002, 1.3540597e-7, 7.4027213e-8
-0.003, 1.0664601e-7, 7.1207282e-8
-0.004, 1.4134267e-7, 1.2778723e-7
-0.005, 1.1899763e-7, 1.1109854e-7
-0.006, 1.2227930e-7, 1.2218035e-7
-0.007, 1.3035979e-7, 1.1685383e-7
-0.008, 1.0761898e-7, 1.0507939e-7
-0.009, 1.3336113e-7, 1.3146467e-7
-0.010, 1.0783336e-7, 1.2819950e-7
-0.011, 1.2671532e-7, 1.5813032e-7
-0.012, 1.2157020e-7, 1.4838425e-7
-0.013, 1.1777730e-7, 8.6114966e-8
-0.014, 1.2946930e-7, 1.1263218e-7
-0.015, 1.0549167e-7, 9.6718558e-8
-0.016, 1.4188686e-7, 1.2909001e-7
-0.017, 1.1342374e-7, 8.8093870e-8
-0.018, 1.2379645e-7, 1.0384258e-7
-0.019, 1.2714409e-7, 8.7500197e-8
-0.020, 1.0855895e-7, 5.7519919e-8
-0.021, 1.3291586e-7, 7.9864954e-8
-0.022, 1.0395802e-7, 1.0923507e-7
-0.023, 1.2935385e-7, 1.2757286e-7
-0.024, 1.1508931e-7, 1.1165923e-7
-0.025, 1.1170870e-7, 9.5151933e-8
-0.026, 1.2834792e-7, 1.2569291e-7
-0.027, 1.0034653e-7, 1.3115135e-7
-0.028, 1.3347656e-7, 1.6451224e-7
-0.029, 1.0290260e-7, 1.2646797e-7
-0.030, 1.3383935e-7, 1.1794222e-7
-0.031, 1.2716059e-7, 1.1375356e-7
-0.032, 1.1352268e-7, 9.1359041e-8
-0.033, 1.3909991e-7, 9.8829375e-8
-0.034, 1.0352926e-7, 8.9413135e-8
-0.035, 1.3291586e-7, 1.2016848e-7
-0.036, 1.1177465e-7, 7.4521935e-8
-0.037, 1.1073574e-7, 5.4254741e-8
-0.038, 1.3441654e-7, 8.1810867e-8
-0.039, 9.7213281e-8, 7.8892000e-8
-0.040, 1.3265202e-7, 1.2864476e-7
-0.041, 1.0188018e-7, 9.1573426e-8
-0.042, 1.2267509e-7, 1.0890525e-7
-0.043, 1.1856886e-7, 1.3182748e-7
-0.044, 1.1302797e-7, 1.2140529e-7
-0.045, 1.2594026e-7, 1.2668235e-7
-0.046, 1.0095670e-7, 1.3626349e-7
-0.047, 1.2460450e-7, 1.5664614e-7
-0.048, 1.0986172e-7, 1.1114801e-7
-0.049, 1.1253324e-7, 8.7137394e-8
-0.050, 1.2768828e-7, 1.2285648e-7
-0.051, 1.0314997e-7, 9.9142710e-8
-0.052, 1.3082153e-7, 1.0250682e-7
-0.053, 9.6223829e-8, 6.0884041e-8
-0.054, 1.2196597e-7, 7.5643314e-8
-0.055, 1.1416583e-7, 8.7912468e-8
-0.056, 1.0921858e-7, 6.1988928e-8
-0.057, 1.2508275e-7, 1.2933737e-7
-0.058, 9.5399294e-8, 9.9406563e-8
-0.059, 1.2305438e-7, 1.0656356e-7
-0.060, 1.0463414e-7, 1.0298506e-7
-0.061, 1.1421530e-7, 9.6537164e-8
-0.062, 1.2912298e-7, 1.3867117e-7
-0.063, 9.5564204e-8, 1.2241122e-7
-0.064, 1.2645148e-7, 1.3895151e-7
-0.065, 8.7252836e-8, 9.7856422e-8
-0.066, 1.1576543e-7, 9.8037816e-8
-0.067, 1.1527071e-7, 9.8186234e-8
-0.068, 1.2183405e-7, 8.5092545e-8
-0.069, 1.2295541e-7, 1.1057083e-7
-0.070, 9.0452048e-8, 1.0982875e-7
-0.071, 1.2348313e-7, 9.4871581e-8
-0.072, 1.0661304e-7, 6.1972436e-8
-0.073, 1.1165923e-7, 7.6599775e-8
-0.074, 1.2716058e-7, 1.2232877e-7
-0.075, 1.0207807e-7, 1.1024101e-7
-0.076, 1.2602271e-7, 1.2328525e-7
-0.077, 9.4376858e-8, 9.4987023e-8
-0.078, 1.2034988e-7, 1.2041585e-7
-0.079, 1.1355566e-7, 1.1665594e-7
-0.080, 1.1167572e-7, 1.1045539e-7
-0.081, 1.2381295e-7, 1.4742778e-7
-0.082, 9.3799684e-8, 1.3616456e-7
-0.083, 1.2096004e-7, 1.2133933e-7
-0.084, 9.8829375e-8, 8.4449397e-8
-0.085, 1.3001349e-7, 9.7609060e-8
-0.086, 1.2490133e-7, 1.1040592e-7
-0.087, 1.0689338e-7, 9.5498237e-8
-0.088, 1.2885913e-7, 9.7444158e-8
-0.089, 9.7708003e-8, 5.6382056e-8
-0.090, 1.1871729e-7, 8.8918412e-8
-0.091, 1.1652402e-7, 9.1787804e-8
-0.092, 1.1779380e-7, 1.0710776e-7
-0.093, 1.2157020e-7, 1.2890861e-7
-0.094, 9.5135434e-8, 1.1492440e-7
-0.095, 1.2491782e-7, 1.1670542e-7
-0.096, 9.4228440e-8, 9.3997571e-8
-0.097, 1.1998708e-7, 1.3283342e-7
-0.098, 1.2292244e-7, 1.5606895e-7
-0.099, 1.0362820e-7, 1.3141521e-7
-0.100, 1.2463749e-7, 1.1823906e-7
-0.101, 9.4459317e-8, 8.9957325e-8
-0.102, 1.2674830e-7, 1.2089407e-7
-0.103, 1.1217045e-7, 1.0372715e-7
-0.104, 1.1223639e-7, 9.7031879e-8
-0.105, 1.1922850e-7, 1.1063679e-7
-0.106, 1.0072582e-7, 7.0184861e-8
-0.107, 1.2651743e-7, 8.0161790e-8
-0.108, 1.0029706e-7, 6.4973761e-8
-0.109, 1.1530369e-7, 1.3125030e-7
-0.110, 1.1589736e-7, 1.4132618e-7
-0.111, 1.0638217e-7, 1.0982875e-7
-0.112, 1.1843695e-7, 1.1591385e-7
-0.113, 9.3535832e-8, 1.0435380e-7
-0.114, 1.3232220e-7, 1.3815995e-7
-0.115, 1.0593692e-7, 1.4643832e-7
-0.116, 1.1883272e-7, 1.2519817e-7
-0.117, 1.1916254e-7, 1.4330507e-7
-0.118, 9.5432277e-8, 1.2175160e-7
-0.119, 1.3103592e-7, 1.0407345e-7
-0.120, 9.9076736e-8, 9.9142710e-8
-0.121, 1.2590728e-7, 1.2630306e-7
-0.122, 1.2020146e-7, 1.1886570e-7
-0.123, 1.1017505e-7, 6.3225734e-8
-0.124, 1.2940333e-7, 7.2229717e-8
-0.125, 9.2134115e-8, 7.9403208e-8
-0.126, 1.3344358e-7, 1.1187361e-7
-0.127, 1.0844352e-7, 1.1832151e-7
-0.128, 1.1286305e-7, 1.2272456e-7
-0.129, 1.1754645e-7, 1.3047523e-7
-0.130, 1.0173176e-7, 1.1573245e-7
-0.131, 1.3095347e-7, 1.3219028e-7
-0.132, 9.8417111e-8, 1.3685717e-7
-0.133, 1.2445609e-7, 1.6691990e-7
-0.134, 1.1896466e-7, 1.3860520e-7
-0.135, 1.1474300e-7, 1.0742108e-7
-0.136, 1.3073908e-7, 1.2608868e-7
-0.137, 1.0451870e-7, 1.1078521e-7
-0.138, 1.3042576e-7, 1.1680436e-7
-0.139, 1.0611831e-7, 1.0290260e-7
-0.140, 1.2033338e-7, 6.9920993e-8
-0.141, 1.3166257e-7, 9.2200082e-8
-0.142, 1.0740460e-7, 7.9584616e-8
-0.143, 1.3466389e-7, 1.1283007e-7
-0.144, 9.9934262e-8, 1.2181755e-7
-0.145, 1.2788618e-7, 1.4759269e-7
-0.146, 1.0916911e-7, 1.2236175e-7
-0.147, 1.1822257e-7, 1.0877333e-7
-0.148, 1.2876018e-7, 1.5041262e-7
-0.149, 1.0014865e-7, 1.4922529e-7
-0.150, 1.3159661e-7, 1.5681105e-7
-0.151, 1.0314997e-7, 1.1170869e-7
-0.152, 1.3064013e-7, 1.1710118e-7
-0.153, 1.3002997e-7, 1.2361505e-7
-0.154, 1.1619419e-7, 1.2143826e-7
-0.155, 1.3623053e-7, 1.1238482e-7
-0.156, 1.0146791e-7, 1.0159984e-7
-0.157, 1.3190993e-7, 1.0895474e-7
-0.158, 1.0903719e-7, 9.1276590e-8
-0.159, 1.1210447e-7, 7.9700044e-8
-0.160, 1.3774766e-7, 1.5244098e-7
-0.161, 1.0102265e-7, 1.1853589e-7
-0.162, 1.3006297e-7, 1.3858870e-7
-0.163, 1.0171527e-7, 1.1372057e-7
-0.164, 1.2765530e-7, 1.3293236e-7
-0.165, 1.2699567e-7, 1.5399111e-7
-0.166, 1.2211439e-7, 1.5310061e-7
-0.167, 1.2669884e-7, 1.6540274e-7
-0.168, 1.0752004e-7, 1.2203193e-7
-0.169, 1.3029383e-7, 1.3413619e-7
-0.170, 1.1621069e-7, 1.1601280e-7
-0.171, 1.2796863e-7, 1.0433731e-7
-0.172, 1.2963420e-7, 1.4406365e-7
-0.173, 1.1261569e-7, 1.1457809e-7
-0.174, 1.3731891e-7, 9.0419071e-8
-0.175, 1.0402398e-7, 7.9172338e-8
-0.176, 1.3441654e-7, 1.2495082e-7
-0.177, 1.2592378e-7, 1.5662965e-7
-0.178, 1.2142178e-7, 1.3298184e-7
-0.179, 1.3190993e-7, 1.3994095e-7
-0.180, 1.0389206e-7, 1.2279051e-7
-0.181, 1.3926483e-7, 1.6456173e-7
-0.182, 1.1718364e-7, 1.3911641e-7
-0.183, 1.3220676e-7, 1.6126354e-7
-0.184, 1.3553790e-7, 1.6271474e-7
-0.185, 1.1147782e-7, 1.4216722e-7
-0.186, 1.4523449e-7, 1.3837433e-7
-0.187, 1.1042241e-7, 1.2259262e-7
-0.188, 1.3888553e-7, 1.5331500e-7
-0.189, 1.2777075e-7, 1.4531695e-7
-0.190, 1.2706163e-7, 9.2579370e-8
-0.191, 1.4467382e-7, 1.0682741e-7
-0.192, 1.1157676e-7, 1.0902070e-7
-0.193, 1.4300824e-7, 1.6383612e-7
-0.194, 1.1883272e-7, 1.3583475e-7
-0.195, 1.2762233e-7, 1.4104583e-7
-0.196, 1.3687367e-7, 1.6250037e-7
-0.197, 1.2458801e-7, 1.3352602e-7
-0.198, 1.5272133e-7, 1.6809075e-7
-0.199, 1.1675488e-7, 1.8304790e-7
-0.200, 1.4970350e-7, 1.8733552e-7
-0.201, 1.4032024e-7, 1.5577211e-7
-0.202, 1.3332813e-7, 1.2612165e-7
-0.203, 1.4762566e-7, 1.6103269e-7
-0.204, 1.2721004e-7, 1.5092381e-7
-0.205, 1.5969694e-7, 1.6579853e-7
-0.206, 1.2946929e-7, 1.1589737e-7
-0.207, 1.5324903e-7, 1.1622718e-7
-0.208, 1.4906036e-7, 1.3647788e-7
-0.209, 1.2955174e-7, 1.1558404e-7
-0.210, 1.6250037e-7, 1.5720681e-7
-0.211, 1.2767180e-7, 1.5623385e-7
-0.212, 1.5024771e-7, 1.8590082e-7
-0.213, 1.3232220e-7, 1.6691990e-7
-0.214, 1.4624044e-7, 1.6472661e-7
-0.215, 1.6444628e-7, 1.9084806e-7
-0.216, 1.3733541e-7, 1.8946284e-7
-0.217, 1.6668903e-7, 1.8159670e-7
-0.218, 1.3944623e-7, 1.5791592e-7
-0.219, 1.6080182e-7, 1.6367122e-7
-0.220, 1.6461119e-7, 1.7313694e-7
-0.221, 1.5493109e-7, 1.6414944e-7
-0.222, 1.7655053e-7, 1.6969035e-7
-0.223, 1.3895151e-7, 1.2501677e-7
-0.224, 1.7216398e-7, 1.5376024e-7
-0.225, 1.5319955e-7, 1.3660981e-7
-0.226, 1.6842056e-7, 1.5821274e-7
-0.227, 1.7115804e-7, 2.0494770e-7
-0.228, 1.4279385e-7, 1.9109542e-7
-0.229, 1.7658351e-7, 1.9055123e-7
-0.230, 1.5394164e-7, 1.6856899e-7
-0.231, 1.7628668e-7, 2.1662318e-7
-0.232, 1.7312044e-7, 2.3674197e-7
-0.233, 1.6442979e-7, 2.2089429e-7
-0.234, 1.8240476e-7, 1.9635598e-7
-0.235, 1.5257291e-7, 1.6474313e-7
-0.236, 1.9625703e-7, 1.9104596e-7
-0.237, 1.7542916e-7, 1.8634606e-7
-0.238, 1.8717061e-7, 1.8263565e-7
-0.239, 1.9012245e-7, 2.0628346e-7
-0.240, 1.6820618e-7, 1.7330184e-7
-0.241, 1.9581179e-7, 1.7508286e-7
-0.242, 1.6825567e-7, 1.5920222e-7
-0.243, 1.9983555e-7, 2.2498402e-7
-0.244, 1.8990809e-7, 2.3667600e-7
-0.245, 1.9210137e-7, 1.9751035e-7
-0.246, 2.0483226e-7, 2.1078543e-7
-0.247, 1.7191662e-7, 2.3080528e-7
-0.248, 2.0709149e-7, 2.3921558e-7
-0.249, 1.8410331e-7, 2.4170569e-7
-0.250, 1.9902751e-7, 2.4432774e-7
-0.251, 2.0677815e-7, 2.2260934e-7
-0.252, 1.9185400e-7, 2.0989492e-7
-0.253, 2.1672213e-7, 2.1886592e-7
-0.254, 1.8908355e-7, 2.0882302e-7
-0.255, 2.1124718e-7, 2.3971029e-7
-0.256, 2.0183094e-7, 1.9531706e-7
-0.257, 2.0199585e-7, 1.7168576e-7
-0.258, 2.2013573e-7, 2.0468384e-7
-0.259, 1.8692324e-7, 2.2923865e-7
-0.260, 2.2155393e-7, 2.4386600e-7
-0.261, 1.9577881e-7, 2.1228608e-7
-0.262, 2.1993783e-7, 2.2612188e-7
-0.263, 2.1598004e-7, 2.4912657e-7
-0.264, 2.0465087e-7, 2.4645504e-7
-0.265, 2.3065685e-7, 2.6723345e-7
-0.266, 1.9345362e-7, 2.5968066e-7
-0.267, 2.2003677e-7, 2.6154416e-7
-0.268, 2.0672869e-7, 2.2226304e-7
-0.269, 2.1287977e-7, 2.1606250e-7
-0.270, 2.2813376e-7, 2.4126044e-7
-0.271, 2.0001694e-7, 2.3895171e-7
-0.272, 2.3118457e-7, 2.2374721e-7
-0.273, 1.9342063e-7, 1.7572599e-7
-0.274, 2.2074587e-7, 2.1795896e-7
-0.275, 2.2295565e-7, 2.3078877e-7
-0.276, 2.0420561e-7, 2.3759948e-7
-0.277, 2.2158692e-7, 2.3444973e-7
-0.278, 1.8604922e-7, 2.3349328e-7
-0.279, 2.1403412e-7, 2.5699268e-7
-0.280, 1.9620757e-7, 2.6179148e-7
-0.281, 2.0814691e-7, 2.4828552e-7
-0.282, 2.1706845e-7, 2.8064048e-7
-0.283, 1.8393841e-7, 2.6159361e-7
-0.284, 2.1464427e-7, 2.6810747e-7
-0.285, 1.8975967e-7, 2.1489164e-7
-0.286, 2.1179137e-7, 2.3661005e-7
-0.287, 2.0278740e-7, 2.4955531e-7
-0.288, 2.0148464e-7, 2.2668257e-7
-0.289, 2.0984547e-7, 2.0262249e-7
-0.290, 1.8235529e-7, 1.8077218e-7
-0.291, 2.0628346e-7, 2.3534024e-7
-0.292, 1.9821945e-7, 2.3552163e-7
-0.293, 1.9810400e-7, 2.2382967e-7
-0.294, 1.9559741e-7, 2.4686730e-7
-0.295, 1.6596344e-7, 2.3440026e-7
-0.296, 2.0326563e-7, 2.5108898e-7
-0.297, 1.6357228e-7, 2.3820964e-7
-0.298, 1.8924844e-7, 2.7272489e-7
-0.299, 1.8370754e-7, 2.6490827e-7
-0.300, 1.7999710e-7, 2.1942662e-7
-0.301, 1.9111191e-7, 2.1555127e-7
-0.302, 1.7186716e-7, 2.0813042e-7
-0.303, 1.9206837e-7, 2.4454212e-7
-0.304, 1.7064683e-7, 2.0629994e-7
-0.305, 1.7716069e-7, 1.8214092e-7
-0.306, 1.8642851e-7, 1.9919240e-7
-0.307, 1.6659008e-7, 1.7603931e-7
-0.308, 1.9567986e-7, 2.3773140e-7
-0.309, 1.5529388e-7, 2.2288970e-7
-0.310, 1.7869434e-7, 2.3473008e-7
-0.311, 1.5799837e-7, 2.2556119e-7
-0.312, 1.6911318e-7, 2.1949258e-7
-0.313, 1.8177811e-7, 2.5189701e-7
-0.314, 1.5946607e-7, 2.5366154e-7
-0.315, 1.7653404e-7, 2.4490490e-7
-0.316, 1.5507950e-7, 2.1833823e-7
-0.317, 1.7185066e-7, 2.0199583e-7
-0.318, 1.7668246e-7, 2.2137253e-7
-0.319, 1.5629983e-7, 2.0940021e-7
-0.320, 1.7826557e-7, 2.2582506e-7
-0.321, 1.5065997e-7, 1.6068637e-7
-0.322, 1.6789286e-7, 1.8726955e-7
-0.323, 1.5822924e-7, 1.7275765e-7
-0.324, 1.6464416e-7, 1.8468049e-7
-0.325, 1.6703532e-7, 2.3703876e-7
-0.326, 1.3900097e-7, 2.1941011e-7
-0.327, 1.6071935e-7, 2.2302160e-7
-0.328, 1.4188686e-7, 1.8980914e-7
-0.329, 1.7091068e-7, 2.2844709e-7
-0.330, 1.6523785e-7, 2.6045575e-7
-0.331, 1.4325560e-7, 2.4112850e-7
-0.332, 1.7218048e-7, 1.8689026e-7
-0.333, 1.3113485e-7, 1.8961124e-7
-0.334, 1.6560064e-7, 2.2536332e-7
-0.335, 1.5470022e-7, 1.9323923e-7
-0.336, 1.5098978e-7, 2.0224321e-7
-0.337, 1.6665605e-7, 2.1029069e-7
-0.338, 1.3700559e-7, 1.6096672e-7
-0.339, 1.6055445e-7, 1.7663299e-7
-0.340, 1.4177142e-7, 1.8098655e-7
-0.341, 1.5405708e-7, 2.2165288e-7
-0.342, 1.5310061e-7, 2.2965094e-7
-0.343, 1.4323911e-7, 2.0354598e-7
-0.344, 1.6753006e-7, 1.9640545e-7
-0.345, 1.2526414e-7, 2.1235206e-7
-0.346, 1.6743112e-7, 2.4376706e-7
-0.347, 1.3863817e-7, 2.2734221e-7
-0.348, 1.5244099e-7, 1.9318976e-7
-0.349, 1.5958149e-7, 2.0537645e-7
-0.350, 1.3509265e-7, 1.9454200e-7
-0.351, 1.7048193e-7, 2.0108884e-7
-0.352, 1.3771471e-7, 1.8176161e-7
-0.353, 1.5344692e-7, 2.1190681e-7
-0.354, 1.4878002e-7, 1.7528073e-7
-0.355, 1.5023122e-7, 1.6246739e-7
-0.356, 1.6479260e-7, 1.7500041e-7
-0.357, 1.2526412e-7, 2.1202224e-7
-0.358, 1.6652412e-7, 2.2312055e-7
-0.359, 1.3245413e-7, 2.0712449e-7
-0.360, 1.4708148e-7, 1.9676827e-7
-0.361, 1.6316000e-7, 2.0847671e-7
-0.362, 1.3344358e-7, 2.5016547e-7
-0.363, 1.6170881e-7, 2.3646164e-7
-0.364, 1.3590071e-7, 2.0816340e-7
-0.365, 1.5351289e-7, 2.1924521e-7
-0.366, 1.5155048e-7, 1.9965415e-7
-0.367, 1.5057752e-7, 1.7796876e-7
-0.368, 1.6708481e-7, 2.0864164e-7
-0.369, 1.3252010e-7, 1.8961126e-7
-0.370, 1.7036648e-7, 1.7246080e-7
-0.371, 1.3771469e-7, 1.3566984e-7
-0.372, 1.5171538e-7, 1.7628666e-7
-0.373, 1.5963096e-7, 2.2852953e-7
-0.374, 1.4127670e-7, 1.9243116e-7
-0.375, 1.6634273e-7, 2.0313371e-7
-0.376, 1.2226280e-7, 1.8939687e-7
-0.377, 1.5977939e-7, 2.0466734e-7
-0.378, 1.5186380e-7, 2.1306118e-7
-0.379, 1.4759269e-7, 2.2544577e-7
-0.380, 1.6599641e-7, 2.3308098e-7
-0.381, 1.3484529e-7, 2.0994437e-7
-0.382, 1.6505643e-7, 2.0125375e-7
-0.383, 1.4432752e-7, 1.6886582e-7
-0.384, 1.6995422e-7, 1.9754332e-7
-0.385, 1.5902081e-7, 2.1161000e-7
-0.386, 1.4480574e-7, 1.6124706e-7
-0.387, 1.7002017e-7, 1.5875696e-7
-0.388, 1.3200888e-7, 1.5689349e-7
-0.389, 1.6426489e-7, 2.2376369e-7
-0.390, 1.5100628e-7, 2.0301827e-7
-0.391, 1.4663621e-7, 1.8154725e-7
-0.392, 1.6649113e-7, 2.0323267e-7
-0.393, 1.3204186e-7, 1.9650440e-7
-0.394, 1.6838757e-7, 2.2602293e-7
-0.395, 1.3974307e-7, 2.1210471e-7
-0.396, 1.6025761e-7, 2.3839104e-7
-0.397, 1.6101620e-7, 2.2244443e-7
-0.398, 1.4764215e-7, 1.7003667e-7
-0.399, 1.7196608e-7, 1.8547206e-7
-0.400, 1.3692313e-7, 1.7918906e-7
-0.401, 1.6706831e-7, 2.1151104e-7
-0.402, 1.5067647e-7, 1.6550169e-7
-0.403, 1.5197924e-7, 1.4017184e-7
-0.404, 1.6116461e-7, 1.7368114e-7
-0.405, 1.3870414e-7, 1.6886582e-7
-0.406, 1.7503338e-7, 2.2203217e-7
-0.407, 1.3652735e-7, 1.8621415e-7
-0.408, 1.6987175e-7, 2.0625048e-7
-0.409, 1.5305113e-7, 2.0344704e-7
-0.410, 1.5245749e-7, 2.0021483e-7
-0.411, 1.6761251e-7, 2.1573267e-7
-0.412, 1.3397128e-7, 2.2656715e-7
-0.413, 1.7293905e-7, 2.1881644e-7
-0.414, 1.4962104e-7, 2.0404070e-7
-0.415, 1.6306105e-7, 1.7819960e-7
-0.416, 1.6654062e-7, 2.1146155e-7
-0.417, 1.3835782e-7, 2.1261590e-7
-0.418, 1.7833153e-7, 2.0260600e-7
-0.419, 1.4173845e-7, 1.4554783e-7
-0.420, 1.6993772e-7, 1.6753006e-7
-0.421, 1.6438032e-7, 1.7249380e-7
-0.422, 1.6479260e-7, 2.0473333e-7
-0.423, 1.7719367e-7, 2.0318319e-7
-0.424, 1.4337103e-7, 1.8954526e-7
-0.425, 1.7219696e-7, 2.0567330e-7
-0.426, 1.5723980e-7, 1.8011255e-7
-0.427, 1.6863495e-7, 2.1065348e-7
-0.428, 1.7288957e-7, 2.6619455e-7
-0.429, 1.5880643e-7, 2.2005329e-7
-0.430, 1.7829855e-7, 1.8872075e-7
-0.431, 1.4071603e-7, 1.6995422e-7
-0.432, 1.7457164e-7, 1.9261257e-7
-0.433, 1.6367122e-7, 2.0865812e-7
-0.434, 1.6025763e-7, 1.9056770e-7
-0.435, 1.7508286e-7, 1.9835136e-7
-0.436, 1.4327209e-7, 1.5837767e-7
-0.437, 1.8321282e-7, 1.7064683e-7
-0.438, 1.6114814e-7, 1.6431434e-7
-0.439, 1.7841398e-7, 2.1246748e-7
-0.440, 1.8408683e-7, 2.1901437e-7
-0.441, 1.5926818e-7, 1.8903407e-7
-0.442, 1.8321280e-7, 1.9962117e-7
-0.443, 1.5199572e-7, 2.0306776e-7
-0.444, 1.8377351e-7, 2.5788319e-7
-0.445, 1.6428137e-7, 2.3989170e-7
-0.446, 1.6523784e-7, 1.9648790e-7
-0.447, 1.7998062e-7, 1.9925838e-7
-0.448, 1.5529388e-7, 1.8327877e-7
-0.449, 1.8369104e-7, 1.9780717e-7
-0.450, 1.6141198e-7, 1.9053473e-7
-0.451, 1.7836453e-7, 1.8962771e-7
-0.452, 1.8408683e-7, 1.7016859e-7
-0.453, 1.5606894e-7, 1.7549510e-7
-0.454, 1.9084807e-7, 1.9135928e-7
-0.455, 1.5291920e-7, 2.1225313e-7
-0.456, 1.8565346e-7, 2.3820964e-7
-0.457, 1.5974639e-7, 1.9464096e-7
-0.458, 1.7340079e-7, 2.0306774e-7
-0.459, 1.9566336e-7, 2.2605595e-7
-0.460, 1.6957492e-7, 2.3499393e-7
-0.461, 1.8753340e-7, 2.3881978e-7
-0.462, 1.6170881e-7, 2.0704205e-7
-0.463, 1.7966730e-7, 2.1576565e-7
-0.464, 1.8134935e-7, 2.2086132e-7
-0.465, 1.8263565e-7, 1.8534010e-7
-0.466, 1.9694966e-7, 1.9487180e-7
-0.467, 1.6151093e-7, 2.0249055e-7
-0.468, 1.9356905e-7, 1.8017852e-7
-0.469, 1.6931106e-7, 1.6401751e-7
-0.470, 1.8527416e-7, 1.7602284e-7
-0.471, 1.8585135e-7, 2.3900120e-7
-0.472, 1.6693639e-7, 2.2018517e-7
-0.473, 1.9375044e-7, 2.1593058e-7
-0.474, 1.5895485e-7, 1.9625702e-7
-0.475, 1.9173856e-7, 2.4149131e-7
-0.476, 1.8220688e-7, 2.4277759e-7
-0.477, 1.8453208e-7, 2.2686396e-7
-0.478, 1.9154068e-7, 2.2940355e-7
-0.479, 1.6393507e-7, 2.0964757e-7
-0.480, 1.9775770e-7, 2.1459479e-7
-0.481, 1.7750700e-7, 2.0738834e-7
-0.482, 1.8862180e-7, 2.1584810e-7
-0.483, 2.0047868e-7, 2.2803479e-7
-0.484, 1.8118445e-7, 1.7046543e-7
-0.485, 2.0232567e-7, 1.7206503e-7
-0.486, 1.7382955e-7, 1.6776092e-7
-0.487, 1.9882961e-7, 2.4302497e-7
-0.488, 1.9149120e-7, 2.4995109e-7
-0.489, 1.8646151e-7, 2.0793254e-7
-0.490, 1.9904398e-7, 2.3690686e-7
-0.491, 1.8174514e-7, 2.3260277e-7
-0.492, 2.1479269e-7, 2.6838782e-7
-0.493, 1.8463102e-7, 2.4129341e-7
-0.494, 1.9864819e-7, 2.5117140e-7
-0.495, 2.0057763e-7, 2.6665626e-7
-0.496, 1.9559741e-7, 1.9686718e-7
-0.497, 2.1787649e-7, 2.2481910e-7
-0.498, 1.8764885e-7, 2.1373731e-7
-0.499, 2.1327556e-7, 2.3697284e-7
-0.500, 2.0122079e-7, 2.0595364e-7
