Jan. 28, 2006   03:10:26
Cyclic Voltammetry
File: z:\users\scottsaunders\git\labwork\ida\01_17_19_psoralen_nonequil_2\data\control\3\75um_control_transfer_3_gc_15.txt
Data Source:  Experiment
Instrument Model:  CHI760E
Header: 
Note: 

Init E (V) = 0
High E (V) = 0
Low E (V) = -0.4
Init P/N = N
Scan Rate (V/s) = 0.003
Segment = 1
Sample Interval (V) = 0.001
Quiet Time (sec) = 2
Sensitivity (A/V) = 1e-7
2nd E (V) = 0
Sens 2 (A/V) = 1e-7

Potential/V, i1/A, i2/A, Time/s

0.000, -4.5089294e-8, -5.8068299e-8, 3.3333334e-1
-0.001, -4.0879154e-8, -5.3978301e-8, 6.6666669e-1
-0.002, -3.7525581e-8, -5.0400182e-8, 1.0000000e+0
-0.003, -3.4669345e-8, -4.7359102e-8, 1.3333334e+0
-0.004, -3.2050519e-8, -4.4636590e-8, 1.6666667e+0
-0.005, -2.9873757e-8, -4.2282249e-8, 2.0000000e+0
-0.006, -2.7925610e-8, -4.0152617e-8, 2.3333333e+0
-0.007, -2.6201535e-8, -3.8274447e-8, 2.6666665e+0
-0.008, -2.4612538e-8, -3.6508911e-8, 2.9999998e+0
-0.009, -2.3245290e-8, -3.4967922e-8, 3.3333330e+0
-0.010, -2.1948658e-8, -3.3535734e-8, 3.6666663e+0
-0.011, -2.0790699e-8, -3.2269696e-8, 3.9999995e+0
-0.012, -1.9705512e-8, -3.1078425e-8, 4.3333330e+0
-0.013, -1.8733198e-8, -3.0000827e-8, 4.6666665e+0
-0.014, -1.7878229e-8, -2.8975073e-8, 5.0000000e+0
-0.015, -1.7049700e-8, -2.7947403e-8, 5.3333335e+0
-0.016, -1.6260314e-8, -2.7010236e-8, 5.6666670e+0
-0.017, -1.5548652e-8, -2.6280601e-8, 6.0000005e+0
-0.018, -1.4822212e-8, -2.5472522e-8, 6.3333340e+0
-0.019, -1.4213278e-8, -2.4843937e-8, 6.6666675e+0
-0.020, -1.3656585e-8, -2.4130834e-8, 7.0000010e+0
-0.021, -1.3086632e-8, -2.3512875e-8, 7.3333344e+0
-0.022, -1.2562771e-8, -2.2965448e-8, 7.6666679e+0
-0.023, -1.2036274e-8, -2.2478412e-8, 8.0000010e+0
-0.024, -1.1549478e-8, -2.1943846e-8, 8.3333340e+0
-0.025, -1.1129223e-8, -2.1472149e-8, 8.6666670e+0
-0.026, -1.0682207e-8, -2.0995737e-8, 9.0000000e+0
-0.027, -1.0237029e-8, -2.0536659e-8, 9.3333330e+0
-0.028, -9.8141379e-9, -2.0061446e-8, 9.6666660e+0
-0.029, -9.4716075e-9, -1.9664675e-8, 9.9999990e+0
-0.030, -9.1389021e-9, -1.9342913e-8, 1.0333332e+1
-0.031, -8.7769596e-9, -1.9034653e-8, 1.0666665e+1
-0.032, -8.4341094e-9, -1.8610802e-8, 1.0999998e+1
-0.033, -8.1807263e-9, -1.8291276e-8, 1.1333331e+1
-0.034, -7.8274116e-9, -1.8048597e-8, 1.1666664e+1
-0.035, -7.5472686e-9, -1.7654383e-8, 1.1999997e+1
-0.036, -7.2850184e-9, -1.7460113e-8, 1.2333330e+1
-0.037, -6.9552684e-9, -1.7120138e-8, 1.2666663e+1
-0.038, -6.7836039e-9, -1.6895671e-8, 1.2999996e+1
-0.039, -6.4921970e-9, -1.6625753e-8, 1.3333329e+1
-0.040, -6.2849850e-9, -1.6407437e-8, 1.3666662e+1
-0.041, -5.9891847e-9, -1.6131448e-8, 1.3999995e+1
-0.042, -5.8306204e-9, -1.5989020e-8, 1.4333328e+1
-0.043, -5.6208522e-9, -1.5672690e-8, 1.4666661e+1
-0.044, -5.3714628e-9, -1.5573157e-8, 1.4999994e+1
-0.045, -5.2208868e-9, -1.5241492e-8, 1.5333327e+1
-0.046, -4.9460955e-9, -1.5128300e-8, 1.5666660e+1
-0.047, -4.8239572e-9, -1.4929954e-8, 1.5999993e+1
-0.048, -4.6684283e-9, -1.4706128e-8, 1.6333326e+1
-0.049, -4.4416453e-9, -1.4622492e-8, 1.6666660e+1
-0.050, -4.3068855e-9, -1.4332043e-8, 1.6999994e+1
-0.051, -4.0788248e-9, -1.4179790e-8, 1.7333328e+1
-0.052, -3.9334411e-9, -1.4110292e-8, 1.7666662e+1
-0.053, -3.8045926e-9, -1.3852915e-8, 1.7999996e+1
-0.054, -3.6490637e-9, -1.3692434e-8, 1.8333330e+1
-0.055, -3.4542333e-9, -1.3650257e-8, 1.8666664e+1
-0.056, -3.3556600e-9, -1.3466291e-8, 1.8999998e+1
-0.057, -3.2268916e-9, -1.3246217e-8, 1.9333332e+1
-0.058, -3.0120908e-9, -1.3174245e-8, 1.9666666e+1
-0.059, -2.9319698e-9, -1.3094603e-8, 2.0000000e+1
-0.060, -2.8303608e-9, -1.2851284e-8, 2.0333334e+1
-0.061, -2.7233999e-9, -1.2726272e-8, 2.0666668e+1
-0.062, -2.5601228e-9, -1.2681058e-8, 2.1000002e+1
-0.063, -2.4002804e-9, -1.2595825e-8, 2.1333336e+1
-0.064, -2.2969140e-9, -1.2337249e-8, 2.1666670e+1
-0.065, -2.1726987e-9, -1.2219743e-8, 2.2000004e+1
-0.066, -2.0119777e-9, -1.2181001e-8, 2.2333338e+1
-0.067, -1.9219515e-9, -1.2044245e-8, 2.2666672e+1
-0.068, -1.8673927e-9, -1.1852610e-8, 2.3000006e+1
-0.069, -1.7323933e-9, -1.1757392e-8, 2.3333340e+1
-0.070, -1.6025065e-9, -1.1709143e-8, 2.3666674e+1
-0.071, -1.4968236e-9, -1.1681584e-8, 2.4000008e+1
-0.072, -1.4049601e-9, -1.1540115e-8, 2.4333342e+1
-0.073, -1.3474456e-9, -1.1345284e-8, 2.4666676e+1
-0.074, -1.2500704e-9, -1.1249426e-8, 2.5000010e+1
-0.075, -1.1258550e-9, -1.1215078e-8, 2.5333344e+1
-0.076, -9.9956288e-10, -1.1185841e-8, 2.5666677e+1
-0.077, -9.4324648e-10, -1.1055155e-8, 2.6000011e+1
-0.078, -9.1369051e-10, -1.0906576e-8, 2.6333345e+1
-0.079, -8.5074409e-10, -1.0830210e-8, 2.6666679e+1
-0.080, -7.4857598e-10, -1.0783079e-8, 2.7000013e+1
-0.081, -6.0974237e-10, -1.0740424e-8, 2.7333347e+1
-0.082, -5.4008592e-10, -1.0691297e-8, 2.7666681e+1
-0.083, -4.9551219e-10, -1.0588249e-8, 2.8000015e+1
-0.084, -4.4638523e-10, -1.0434638e-8, 2.8333349e+1
-0.085, -3.7624950e-10, -1.0306668e-8, 2.8666683e+1
-0.086, -2.8798072e-10, -1.0250512e-8, 2.9000017e+1
-0.087, -1.8653157e-10, -1.0232698e-8, 2.9333351e+1
-0.088, -7.4538056e-11, -1.0200346e-8, 2.9666685e+1
-0.089, -4.1547110e-11, -1.0080924e-8, 3.0000019e+1
-0.090, 8.5384269e-12, -9.9289892e-9, 3.0333353e+1
-0.091, 4.9996791e-11, -9.8599715e-9, 3.0666687e+1
-0.092, 8.2268810e-11, -9.8098871e-9, 3.1000021e+1
-0.093, 1.4896964e-10, -9.7660315e-9, 3.1333355e+1
-0.094, 2.2421777e-10, -9.7440642e-9, 3.1666689e+1
-0.095, 3.5777922e-10, -9.7248130e-9, 3.2000023e+1
-0.096, 4.1753034e-10, -9.6539585e-9, 3.2333355e+1
-0.097, 4.4908346e-10, -9.5123296e-9, 3.2666687e+1
-0.098, 4.9525484e-10, -9.3989776e-9, 3.3000019e+1
-0.099, 5.3807114e-10, -9.3117469e-9, 3.3333351e+1
-0.100, 5.7026328e-10, -9.2748422e-9, 3.3666683e+1
-0.101, 6.3688427e-10, -9.2581462e-9, 3.4000015e+1
-0.102, 7.0366496e-10, -9.2480814e-9, 3.4333347e+1
-0.103, 8.1517920e-10, -9.2265138e-9, 3.4666679e+1
-0.104, 8.8771135e-10, -9.1849763e-9, 3.5000011e+1
-0.105, 9.3452179e-10, -9.0681898e-9, 3.5333344e+1
-0.106, 9.7350372e-10, -8.9685779e-9, 3.5666676e+1
-0.107, 9.9962494e-10, -8.9085859e-9, 3.6000008e+1
-0.108, 1.0263053e-9, -8.8426848e-9, 3.6333340e+1
-0.109, 1.0500300e-9, -8.8017851e-9, 3.6666672e+1
-0.110, 1.0894914e-9, -8.7772616e-9, 3.7000004e+1
-0.111, 1.1725678e-9, -8.7628029e-9, 3.7333336e+1
-0.112, 1.2297628e-9, -8.7376408e-9, 3.7666668e+1
-0.113, 1.2936678e-9, -8.7009751e-9, 3.8000000e+1
-0.114, 1.3724307e-9, -8.5919369e-9, 3.8333332e+1
-0.115, 1.3961554e-9, -8.5001535e-9, 3.8666664e+1
-0.116, 1.4167648e-9, -8.4145215e-9, 3.8999996e+1
-0.117, 1.4392914e-9, -8.3483798e-9, 3.9333328e+1
-0.118, 1.4575841e-9, -8.3081995e-9, 3.9666660e+1
-0.119, 1.4944094e-9, -8.2880689e-9, 3.9999992e+1
-0.120, 1.5219684e-9, -8.2761673e-9, 4.0333324e+1
-0.121, 1.5466517e-9, -8.2646636e-9, 4.0666656e+1
-0.122, 1.5877107e-9, -8.2365457e-9, 4.0999989e+1
-0.123, 1.6294885e-9, -8.1954070e-9, 4.1333321e+1
-0.124, 1.6980266e-9, -8.1206384e-9, 4.1666653e+1
-0.125, 1.7726356e-9, -8.0310913e-9, 4.1999985e+1
-0.126, 1.8260762e-9, -7.9483335e-9, 4.2333317e+1
-0.127, 1.8736055e-9, -7.9004057e-9, 4.2666649e+1
-0.128, 1.9047592e-9, -7.8624618e-9, 4.2999981e+1
-0.129, 1.9255284e-9, -7.8281124e-9, 4.3333313e+1
-0.130, 1.9601969e-9, -7.8038287e-9, 4.3666645e+1
-0.131, 1.9780901e-9, -7.7922468e-9, 4.3999977e+1
-0.132, 1.9918298e-9, -7.7831395e-9, 4.4333309e+1
-0.133, 2.0258593e-9, -7.7721962e-9, 4.4666641e+1
-0.134, 2.0379214e-9, -7.7604536e-9, 4.4999973e+1
-0.135, 2.0676372e-9, -7.6960696e-9, 4.5333305e+1
-0.136, 2.1121311e-9, -7.6486995e-9, 4.5666637e+1
-0.137, 2.1407285e-9, -7.5591524e-9, 4.5999969e+1
-0.138, 2.2023969e-9, -7.4644131e-9, 4.6333302e+1
-0.139, 2.2755682e-9, -7.4138486e-9, 4.6666634e+1
-0.140, 2.3171063e-9, -7.3883668e-9, 4.6999966e+1
-0.141, 2.3526534e-9, -7.3374822e-9, 4.7333298e+1
-0.142, 2.3818101e-9, -7.3171922e-9, 4.7666630e+1
-0.143, 2.4102478e-9, -7.3043318e-9, 4.7999962e+1
-0.144, 2.4278217e-9, -7.2973818e-9, 4.8333294e+1
-0.145, 2.4517062e-9, -7.2961042e-9, 4.8666626e+1
-0.146, 2.4845372e-9, -7.2881954e-9, 4.8999958e+1
-0.147, 2.5047473e-9, -7.2769324e-9, 4.9333290e+1
-0.148, 2.5330253e-9, -7.2501720e-9, 4.9666622e+1
-0.149, 2.5699303e-9, -7.2172615e-9, 4.9999954e+1
-0.150, 2.5932556e-9, -7.1253980e-9, 5.0333286e+1
-0.151, 2.6353530e-9, -7.1056672e-9, 5.0666618e+1
-0.152, 2.6980598e-9, -7.0353718e-9, 5.0999950e+1
-0.153, 2.7320892e-9, -6.9847270e-9, 5.1333282e+1
-0.154, 2.7958345e-9, -6.9612414e-9, 5.1666615e+1
-0.155, 2.8458402e-9, -6.9294490e-9, 5.1999947e+1
-0.156, 2.8975233e-9, -6.9042860e-9, 5.2333279e+1
-0.157, 2.9238041e-9, -6.8942212e-9, 5.2666611e+1
-0.158, 2.9460911e-9, -6.8706565e-9, 5.2999943e+1
-0.159, 2.9721323e-9, -6.8594734e-9, 5.3333275e+1
-0.160, 2.9863512e-9, -6.8464527e-9, 5.3666607e+1
-0.161, 2.9963363e-9, -6.8267219e-9, 5.3999939e+1
-0.162, 3.0132714e-9, -6.8150587e-9, 5.4333271e+1
-0.163, 3.0183038e-9, -6.8007604e-9, 5.4666603e+1
-0.164, 3.0346794e-9, -6.7903758e-9, 5.4999935e+1
-0.165, 3.1041760e-9, -6.7792723e-9, 5.5333267e+1
-0.166, 3.1216700e-9, -6.7471602e-9, 5.5666599e+1
-0.167, 3.1817406e-9, -6.6810983e-9, 5.5999931e+1
-0.168, 3.2589860e-9, -6.6300543e-9, 5.6333263e+1
-0.169, 3.3046779e-9, -6.5621548e-9, 5.6666595e+1
-0.170, 3.3413436e-9, -6.5050401e-9, 5.6999928e+1
-0.171, 3.3692218e-9, -6.4658181e-9, 5.7333260e+1
-0.172, 3.3876748e-9, -6.4263568e-9, 5.7666592e+1
-0.173, 3.4138758e-9, -6.4101413e-9, 5.7999924e+1
-0.174, 3.4324079e-9, -6.3737953e-9, 5.8333256e+1
-0.175, 3.4621239e-9, -6.3631709e-9, 5.8666588e+1
-0.176, 3.4842511e-9, -6.3483125e-9, 5.8999920e+1
-0.177, 3.5142866e-9, -6.3288219e-9, 5.9333252e+1
-0.178, 3.5654102e-9, -6.3229906e-9, 5.9666584e+1
-0.179, 3.5920109e-9, -6.3169199e-9, 5.9999916e+1
-0.180, 3.6629453e-9, -6.3162804e-9, 6.0333248e+1
-0.181, 3.7724628e-9, -6.3125261e-9, 6.0666580e+1
-0.182, 3.7918735e-9, -6.3050973e-9, 6.0999912e+1
-0.183, 3.8321337e-9, -6.2887215e-9, 6.1333244e+1
-0.184, 3.8762282e-9, -6.2741035e-9, 6.1666576e+1
-0.185, 3.8969974e-9, -6.2410326e-9, 6.1999908e+1
-0.186, 3.9369379e-9, -6.2187455e-9, 6.2333241e+1
-0.187, 3.9528345e-9, -6.1713759e-9, 6.2666573e+1
-0.188, 3.9816714e-9, -6.1380656e-9, 6.2999905e+1
-0.189, 4.0092303e-9, -6.1605121e-9, 6.3333237e+1
-0.190, 4.0478132e-9, -6.0975656e-9, 6.3666569e+1
-0.191, 4.1284931e-9, -6.0513945e-9, 6.3999901e+1
-0.192, 4.2021440e-9, -6.0267111e-9, 6.4333237e+1
-0.193, 4.2863384e-9, -5.9813385e-9, 6.4666573e+1
-0.194, 4.3387405e-9, -5.9739897e-9, 6.4999908e+1
-0.195, 4.3714921e-9, -5.9569749e-9, 6.5333244e+1
-0.196, 4.4069592e-9, -5.9455521e-9, 6.5666580e+1
-0.197, 4.4718229e-9, -5.9286966e-9, 6.5999916e+1
-0.198, 4.4962665e-9, -5.9020961e-9, 6.6333252e+1
-0.199, 4.5606505e-9, -5.9009779e-9, 6.6666588e+1
-0.200, 4.6533928e-9, -5.9020961e-9, 6.6999924e+1
-0.201, 4.7286410e-9, -5.8885163e-9, 6.7333260e+1
-0.202, 4.8189066e-9, -5.8742979e-9, 6.7666595e+1
-0.203, 4.8781787e-9, -5.8681469e-9, 6.7999931e+1
-0.204, 4.9111692e-9, -5.8659104e-9, 6.8333267e+1
-0.205, 4.9359330e-9, -5.8539280e-9, 6.8666603e+1
-0.206, 4.9847402e-9, -5.8470579e-9, 6.8999939e+1
-0.207, 5.0785207e-9, -5.8469785e-9, 6.9333275e+1
-0.208, 5.1883573e-9, -5.8449814e-9, 6.9666611e+1
-0.209, 5.2979545e-9, -5.8412271e-9, 6.9999947e+1
-0.210, 5.3658535e-9, -5.8417862e-9, 7.0333282e+1
-0.211, 5.4107470e-9, -5.8385909e-9, 7.0666618e+1
-0.212, 5.4779270e-9, -5.8374727e-9, 7.0999954e+1
-0.213, 5.5933556e-9, -5.8369136e-9, 7.1333290e+1
-0.214, 5.7255587e-9, -5.8394694e-9, 7.1666626e+1
-0.215, 5.8337979e-9, -5.8506529e-9, 7.1999962e+1
-0.216, 5.9042531e-9, -5.8487357e-9, 7.2333298e+1
-0.217, 5.9547380e-9, -5.8411467e-9, 7.2666634e+1
-0.218, 6.0565868e-9, -5.8451413e-9, 7.2999969e+1
-0.219, 6.2241776e-9, -5.8494547e-9, 7.3333305e+1
-0.220, 6.3420824e-9, -5.8526499e-9, 7.3666641e+1
-0.221, 6.4357835e-9, -5.8589604e-9, 7.3999977e+1
-0.222, 6.5460988e-9, -5.8719012e-9, 7.4333313e+1
-0.223, 6.7715238e-9, -5.8753362e-9, 7.4666649e+1
-0.224, 6.8930230e-9, -5.8778924e-9, 7.4999985e+1
-0.225, 6.9316060e-9, -5.8996199e-9, 7.5333321e+1
-0.226, 7.1359421e-9, -5.9130403e-9, 7.5666656e+1
-0.227, 7.2855593e-9, -5.9367649e-9, 7.5999992e+1
-0.228, 7.3671185e-9, -5.9401999e-9, 7.6333328e+1
-0.229, 7.5445348e-9, -5.9742291e-9, 7.6666664e+1
-0.230, 7.7555811e-9, -6.0095369e-9, 7.7000000e+1
-0.231, 7.8691720e-9, -6.0808709e-9, 7.7333336e+1
-0.232, 8.0163929e-9, -6.1569172e-9, 7.7666672e+1
-0.233, 8.2416580e-9, -6.2232188e-9, 7.8000008e+1
-0.234, 8.3941512e-9, -6.2613221e-9, 7.8333344e+1
-0.235, 8.6015230e-9, -6.3071743e-9, 7.8666679e+1
-0.236, 8.8223144e-9, -6.3160415e-9, 7.9000015e+1
-0.237, 8.9321519e-9, -6.3269048e-9, 7.9333351e+1
-0.238, 9.2032684e-9, -6.3499908e-9, 7.9666687e+1
-0.239, 9.3566408e-9, -6.3912893e-9, 8.0000023e+1
-0.240, 9.6132986e-9, -6.4595880e-9, 8.0333359e+1
-0.241, 9.8068513e-9, -6.5523298e-9, 8.0666695e+1
-0.242, 9.9712469e-9, -6.6949979e-9, 8.1000031e+1
-0.243, 1.0252509e-8, -6.7799912e-9, 8.1333366e+1
-0.244, 1.0425930e-8, -6.8160975e-9, 8.1666702e+1
-0.245, 1.0759834e-8, -6.8475710e-9, 8.2000038e+1
-0.246, 1.0860325e-8, -6.8887092e-9, 8.2333374e+1
-0.247, 1.1155645e-8, -6.9374368e-9, 8.2666710e+1
-0.248, 1.1324595e-8, -7.0293003e-9, 8.3000046e+1
-0.249, 1.1620315e-8, -7.1699717e-9, 8.3333382e+1
-0.250, 1.1809314e-8, -7.2738171e-9, 8.3666718e+1
-0.251, 1.2003665e-8, -7.2968231e-9, 8.4000053e+1
-0.252, 1.2288521e-8, -7.3169528e-9, 8.4333389e+1
-0.253, 1.2553328e-8, -7.3896445e-9, 8.4666725e+1
-0.254, 1.2764534e-8, -7.5324724e-9, 8.5000061e+1
-0.255, 1.2971905e-8, -7.7212317e-9, 8.5333397e+1
-0.256, 1.3219297e-8, -7.7770688e-9, 8.5666733e+1
-0.257, 1.3372350e-8, -7.8029503e-9, 8.6000069e+1
-0.258, 1.3682929e-8, -7.8565510e-9, 8.6333405e+1
-0.259, 1.3808822e-8, -7.9453786e-9, 8.6666740e+1
-0.260, 1.4087287e-8, -8.1150464e-9, 8.7000076e+1
-0.261, 1.4279721e-8, -8.2533216e-9, 8.7333412e+1
-0.262, 1.4466084e-8, -8.2803204e-9, 8.7666748e+1
-0.263, 1.4718749e-8, -8.3411900e-9, 8.8000084e+1
-0.264, 1.4843843e-8, -8.4382457e-9, 8.8333420e+1
-0.265, 1.5114320e-8, -8.6202947e-9, 8.8666756e+1
-0.266, 1.5230388e-8, -8.7424343e-9, 8.9000092e+1
-0.267, 1.5394942e-8, -8.7745455e-9, 8.9333427e+1
-0.268, 1.5626119e-8, -8.8243919e-9, 8.9666763e+1
-0.269, 1.5735477e-8, -8.9310337e-9, 9.0000099e+1
-0.270, 1.5893802e-8, -9.0625969e-9, 9.0333435e+1
-0.271, 1.6119786e-8, -9.2270733e-9, 9.0666771e+1
-0.272, 1.6227306e-8, -9.2499990e-9, 9.1000107e+1
-0.273, 1.6361986e-8, -9.2686916e-9, 9.1333443e+1
-0.274, 1.6570237e-8, -9.3104688e-9, 9.1666779e+1
-0.275, 1.6669208e-8, -9.4029717e-9, 9.2000114e+1
-0.276, 1.6746533e-8, -9.5367723e-9, 9.2333450e+1
-0.277, 1.6978190e-8, -9.6792006e-9, 9.2666786e+1
-0.278, 1.7079637e-8, -9.7388719e-9, 9.3000122e+1
-0.279, 1.7163513e-8, -9.7565254e-9, 9.3333458e+1
-0.280, 1.7240120e-8, -9.7762562e-9, 9.3666794e+1
-0.281, 1.7332065e-8, -9.8327329e-9, 9.4000130e+1
-0.282, 1.7517467e-8, -9.8723536e-9, 9.4333466e+1
-0.283, 1.7618119e-8, -9.9968087e-9, 9.4666801e+1
-0.284, 1.7670441e-8, -1.0177740e-8, 9.5000137e+1
-0.285, 1.7720287e-8, -1.0208494e-8, 9.5333473e+1
-0.286, 1.7797133e-8, -1.0227906e-8, 9.5666809e+1
-0.287, 1.7944751e-8, -1.0250751e-8, 9.6000145e+1
-0.288, 1.8058584e-8, -1.0276953e-8, 9.6333481e+1
-0.289, 1.8113461e-8, -1.0328716e-8, 9.6666817e+1
-0.290, 1.8182320e-8, -1.0386709e-8, 9.7000153e+1
-0.291, 1.8223298e-8, -1.0446939e-8, 9.7333488e+1
-0.292, 1.8278177e-8, -1.0562448e-8, 9.7666824e+1
-0.293, 1.8395282e-8, -1.0660622e-8, 9.8000160e+1
-0.294, 1.8489862e-8, -1.0700802e-8, 9.8333496e+1
-0.295, 1.8565908e-8, -1.0726684e-8, 9.8666832e+1
-0.296, 1.8630452e-8, -1.0746414e-8, 9.9000168e+1
-0.297, 1.8664242e-8, -1.0755840e-8, 9.9333504e+1
-0.298, 1.8684613e-8, -1.0769500e-8, 9.9666840e+1
-0.299, 1.8719042e-8, -1.0792346e-8, 1.0000018e+2
-0.300, 1.8801160e-8, -1.0811518e-8, 1.0033351e+2
-0.301, 1.8899494e-8, -1.0818547e-8, 1.0066685e+2
-0.302, 1.8971706e-8, -1.0837799e-8, 1.0100018e+2
-0.303, 1.9037367e-8, -1.0865198e-8, 1.0133352e+2
-0.304, 1.9072916e-8, -1.0904819e-8, 1.0166685e+2
-0.305, 1.9102153e-8, -1.0931259e-8, 1.0200019e+2
-0.306, 1.9148803e-8, -1.1011220e-8, 1.0233353e+2
-0.307, 1.9166697e-8, -1.1041975e-8, 1.0266686e+2
-0.308, 1.9203281e-8, -1.1092620e-8, 1.0300020e+2
-0.309, 1.9282762e-8, -1.1148776e-8, 1.0333353e+2
-0.310, 1.9333328e-8, -1.1178812e-8, 1.0366687e+2
-0.311, 1.9407379e-8, -1.1194627e-8, 1.0400021e+2
-0.312, 1.9489496e-8, -1.1201817e-8, 1.0433354e+2
-0.313, 1.9533589e-8, -1.1209406e-8, 1.0466688e+2
-0.314, 1.9567619e-8, -1.1213480e-8, 1.0500021e+2
-0.315, 1.9599014e-8, -1.1217473e-8, 1.0533355e+2
-0.316, 1.9630246e-8, -1.1227059e-8, 1.0566689e+2
-0.317, 1.9644546e-8, -1.1231213e-8, 1.0600022e+2
-0.318, 1.9675140e-8, -1.1239521e-8, 1.0633356e+2
-0.319, 1.9712605e-8, -1.1266761e-8, 1.0666689e+2
-0.320, 1.9750468e-8, -1.1263725e-8, 1.0700023e+2
-0.321, 1.9798316e-8, -1.1294319e-8, 1.0733356e+2
-0.322, 1.9903840e-8, -1.1305823e-8, 1.0766690e+2
-0.323, 1.9941144e-8, -1.1300151e-8, 1.0800024e+2
-0.324, 1.9988834e-8, -1.1316766e-8, 1.0833357e+2
-0.325, 2.0043233e-8, -1.1395609e-8, 1.0866691e+2
-0.326, 2.0063283e-8, -1.1371245e-8, 1.0900024e+2
-0.327, 2.0098589e-8, -1.1447053e-8, 1.0933358e+2
-0.328, 2.0121595e-8, -1.1410466e-8, 1.0966692e+2
-0.329, 2.0162815e-8, -1.1341290e-8, 1.1000025e+2
-0.330, 2.0172241e-8, -1.1615362e-8, 1.1033359e+2
-0.331, 2.0198042e-8, -1.1598267e-8, 1.1066692e+2
-0.332, 2.0266659e-8, -1.1625986e-8, 1.1100026e+2
-0.333, 2.0293500e-8, -1.1631737e-8, 1.1133360e+2
-0.334, 2.0357724e-8, -1.1624708e-8, 1.1166693e+2
-0.335, 2.0411646e-8, -1.1660496e-8, 1.1200027e+2
-0.336, 2.0472674e-8, -1.1616241e-8, 1.1233360e+2
-0.337, 2.0504467e-8, -1.1667844e-8, 1.1266694e+2
-0.338, 2.0552635e-8, -1.1666486e-8, 1.1300027e+2
-0.339, 2.0573644e-8, -1.1685898e-8, 1.1333361e+2
-0.340, 2.0600323e-8, -1.1689652e-8, 1.1366695e+2
-0.341, 2.0626445e-8, -1.1693646e-8, 1.1400028e+2
-0.342, 2.0638268e-8, -1.1693166e-8, 1.1433362e+2
-0.343, 2.0669022e-8, -1.1697002e-8, 1.1466695e+2
-0.344, 2.0711520e-8, -1.1697800e-8, 1.1500029e+2
-0.345, 2.0738279e-8, -1.1699318e-8, 1.1533363e+2
-0.346, 2.0804901e-8, -1.1703791e-8, 1.1566696e+2
-0.347, 2.0865450e-8, -1.1700835e-8, 1.1600030e+2
-0.348, 2.0948766e-8, -1.1706107e-8, 1.1633363e+2
-0.349, 2.0977444e-8, -1.1704589e-8, 1.1666697e+2
-0.350, 2.1027608e-8, -1.1698440e-8, 1.1700031e+2
-0.351, 2.1027848e-8, -1.1709462e-8, 1.1733364e+2
-0.352, 2.1041508e-8, -1.1716891e-8, 1.1766698e+2
-0.353, 2.1079291e-8, -1.1735424e-8, 1.1800031e+2
-0.354, 2.1115717e-8, -1.1740776e-8, 1.1833365e+2
-0.355, 2.1157337e-8, -1.1699238e-8, 1.1866698e+2
-0.356, 2.1138483e-8, -1.1764262e-8, 1.1900032e+2
-0.357, 2.1138645e-8, -1.1770971e-8, 1.1933366e+2
-0.358, 2.1188809e-8, -1.1766498e-8, 1.1966699e+2
-0.359, 2.1202389e-8, -1.1770811e-8, 1.2000033e+2
-0.360, 2.1295371e-8, -1.1750123e-8, 1.2033366e+2
-0.361, 2.1352486e-8, -1.1750681e-8, 1.2066700e+2
-0.362, 2.1424139e-8, -1.1760826e-8, 1.2100034e+2
-0.363, 2.1464800e-8, -1.1778400e-8, 1.2133367e+2
-0.364, 2.1499067e-8, -1.1772169e-8, 1.2166701e+2
-0.365, 2.1537412e-8, -1.1762663e-8, 1.2200034e+2
-0.366, 2.1553547e-8, -1.1716652e-8, 1.2233368e+2
-0.367, 2.1593648e-8, -1.1825370e-8, 1.2266702e+2
-0.368, 2.1588534e-8, -1.1837512e-8, 1.2300035e+2
-0.369, 2.1612420e-8, -1.1815225e-8, 1.2333369e+2
-0.370, 2.1636305e-8, -1.1797172e-8, 1.2366702e+2
-0.371, 2.1663224e-8, -1.1813947e-8, 1.2400036e+2
-0.372, 2.1686230e-8, -1.1813309e-8, 1.2433369e+2
-0.373, 2.1749177e-8, -1.1825929e-8, 1.2466703e+2
-0.374, 2.1798542e-8, -1.1827926e-8, 1.2500037e+2
-0.375, 2.1859094e-8, -1.1834956e-8, 1.2533370e+2
-0.376, 2.1911655e-8, -1.1849015e-8, 1.2566704e+2
-0.377, 2.1945924e-8, -1.1833598e-8, 1.2600037e+2
-0.378, 2.2002720e-8, -1.1857642e-8, 1.2633371e+2
-0.379, 2.2025805e-8, -1.1863154e-8, 1.2666705e+2
-0.380, 2.2060075e-8, -1.1862196e-8, 1.2700038e+2
-0.381, 2.2087713e-8, -1.1855086e-8, 1.2733372e+2
-0.382, 2.2111436e-8, -1.1866828e-8, 1.2766705e+2
-0.383, 2.2162801e-8, -1.1876733e-8, 1.2800038e+2
-0.384, 2.2193476e-8, -1.1885760e-8, 1.2833371e+2
-0.385, 2.2295724e-8, -1.1886319e-8, 1.2866704e+2
-0.386, 2.2342773e-8, -1.1959730e-8, 1.2900037e+2
-0.387, 2.2394696e-8, -1.2112543e-8, 1.2933369e+2
-0.388, 2.2429045e-8, -1.1866908e-8, 1.2966702e+2
-0.389, 2.2522347e-8, -1.2179404e-8, 1.3000035e+2
-0.390, 2.2469067e-8, -1.2086423e-8, 1.3033368e+2
-0.391, 2.2543356e-8, -1.2070286e-8, 1.3066701e+2
-0.392, 2.2556614e-8, -1.2112623e-8, 1.3100034e+2
-0.393, 2.2574829e-8, -1.2043286e-8, 1.3133366e+2
-0.394, 2.2595838e-8, -1.2101200e-8, 1.3166699e+2
-0.395, 2.2631145e-8, -1.2120451e-8, 1.3200032e+2
-0.396, 2.2650157e-8, -1.2083547e-8, 1.3233365e+2
-0.397, 2.2714781e-8, -1.2113103e-8, 1.3266698e+2
-0.398, 2.2774852e-8, -1.2136348e-8, 1.3300031e+2
-0.399, 2.2875742e-8, -1.2138425e-8, 1.3333363e+2
