Jan. 28, 2006   02:34:18
Cyclic Voltammetry
File: z:\users\scottsaunders\git\labwork\ida\01_17_19_psoralen_nonequil_2\data\control\3\75um_control_transfer_3_gc_2.txt
Data Source:  Experiment
Instrument Model:  CHI760E
Header: 
Note: 

Init E (V) = 0
High E (V) = 0
Low E (V) = -0.4
Init P/N = N
Scan Rate (V/s) = 0.003
Segment = 1
Sample Interval (V) = 0.001
Quiet Time (sec) = 2
Sensitivity (A/V) = 1e-7
2nd E (V) = 0
Sens 2 (A/V) = 1e-7

Potential/V, i1/A, i2/A, Time/s

0.000, -9.1956338e-8, -1.0263181e-7, 3.3333334e-1
-0.001, -8.4797939e-8, -9.6125078e-8, 6.6666669e-1
-0.002, -7.9120298e-8, -9.0459345e-8, 1.0000000e+0
-0.003, -7.4309128e-8, -8.5659842e-8, 1.3333334e+0
-0.004, -7.0129424e-8, -8.1477175e-8, 1.6666667e+0
-0.005, -6.6476296e-8, -7.7798248e-8, 2.0000000e+0
-0.006, -6.3374671e-8, -7.4541965e-8, 2.3333333e+0
-0.007, -6.0475621e-8, -7.1574540e-8, 2.6666665e+0
-0.008, -5.7916385e-8, -6.8956275e-8, 2.9999998e+0
-0.009, -5.5559724e-8, -6.6505514e-8, 3.3333330e+0
-0.010, -5.3485369e-8, -6.4346168e-8, 3.6666663e+0
-0.011, -5.1555844e-8, -6.2305041e-8, 3.9999995e+0
-0.012, -4.9801407e-8, -6.0484147e-8, 4.3333330e+0
-0.013, -4.8173590e-8, -5.8771814e-8, 4.6666665e+0
-0.014, -4.6705452e-8, -5.7207018e-8, 5.0000000e+0
-0.015, -4.5262958e-8, -5.5675375e-8, 5.3333335e+0
-0.016, -4.3982539e-8, -5.4364527e-8, 5.6666670e+0
-0.017, -4.2769145e-8, -5.3057587e-8, 6.0000005e+0
-0.018, -4.1634351e-8, -5.1891323e-8, 6.3333340e+0
-0.019, -4.0553715e-8, -5.0707804e-8, 6.6666675e+0
-0.020, -3.9546254e-8, -4.9665033e-8, 7.0000010e+0
-0.021, -3.8556767e-8, -4.8622343e-8, 7.3333344e+0
-0.022, -3.7678554e-8, -4.7674792e-8, 7.6666679e+0
-0.023, -3.6785480e-8, -4.6732993e-8, 8.0000010e+0
-0.024, -3.6040824e-8, -4.5995371e-8, 8.3333340e+0
-0.025, -3.5209503e-8, -4.5087919e-8, 8.6666670e+0
-0.026, -3.4499436e-8, -4.4351335e-8, 9.0000000e+0
-0.027, -3.3680017e-8, -4.3580400e-8, 9.3333330e+0
-0.028, -3.3007979e-8, -4.2910916e-8, 9.6666660e+0
-0.029, -3.2301266e-8, -4.2185594e-8, 9.9999990e+0
-0.030, -3.1749767e-8, -4.1596628e-8, 1.0333332e+1
-0.031, -3.1156727e-8, -4.0974754e-8, 1.0666665e+1
-0.032, -3.0607225e-8, -4.0349441e-8, 1.0999998e+1
-0.033, -3.0084962e-8, -3.9766149e-8, 1.1333331e+1
-0.034, -2.9507339e-8, -3.9232862e-8, 1.1666664e+1
-0.035, -2.9007683e-8, -3.8693585e-8, 1.1999997e+1
-0.036, -2.8512261e-8, -3.8249766e-8, 1.2333330e+1
-0.037, -2.8090167e-8, -3.7712805e-8, 1.2666663e+1
-0.038, -2.7621505e-8, -3.7255244e-8, 1.2999996e+1
-0.039, -2.7213311e-8, -3.6762692e-8, 1.3333329e+1
-0.040, -2.6788422e-8, -3.6334772e-8, 1.3666662e+1
-0.041, -2.6349554e-8, -3.5876653e-8, 1.3999995e+1
-0.042, -2.5933534e-8, -3.5524614e-8, 1.4333328e+1
-0.043, -2.5540597e-8, -3.5164991e-8, 1.4666661e+1
-0.044, -2.5260375e-8, -3.4750567e-8, 1.4999994e+1
-0.045, -2.4860809e-8, -3.4337180e-8, 1.5333327e+1
-0.046, -2.4468191e-8, -3.4016299e-8, 1.5666660e+1
-0.047, -2.4206422e-8, -3.3691339e-8, 1.5999993e+1
-0.048, -2.3873795e-8, -3.3321573e-8, 1.6333326e+1
-0.049, -2.3500590e-8, -3.2902516e-8, 1.6666660e+1
-0.050, -2.3258071e-8, -3.2719665e-8, 1.6999994e+1
-0.051, -2.2931356e-8, -3.2337514e-8, 1.7333328e+1
-0.052, -2.2585391e-8, -3.2031807e-8, 1.7666662e+1
-0.053, -2.2341673e-8, -3.1774992e-8, 1.7999996e+1
-0.054, -2.2041320e-8, -3.1424310e-8, 1.8333330e+1
-0.055, -2.1817574e-8, -3.1226925e-8, 1.8666664e+1
-0.056, -2.1499885e-8, -3.0883037e-8, 1.8999998e+1
-0.057, -2.1306013e-8, -3.0679260e-8, 1.9333332e+1
-0.058, -2.0994076e-8, -3.0412696e-8, 1.9666666e+1
-0.059, -2.0756989e-8, -3.0135269e-8, 2.0000000e+1
-0.060, -2.0509678e-8, -2.9872940e-8, 2.0333334e+1
-0.061, -2.0346080e-8, -2.9601821e-8, 2.0666668e+1
-0.062, -2.0072566e-8, -2.9393972e-8, 2.1000002e+1
-0.063, -1.9857127e-8, -2.9164553e-8, 2.1333336e+1
-0.064, -1.9588965e-8, -2.8938807e-8, 2.1666670e+1
-0.065, -1.9477691e-8, -2.8727442e-8, 2.2000004e+1
-0.066, -1.9229899e-8, -2.8461757e-8, 2.2333338e+1
-0.067, -1.9013502e-8, -2.8171307e-8, 2.2666672e+1
-0.068, -1.8806290e-8, -2.7949238e-8, 2.3000006e+1
-0.069, -1.8570159e-8, -2.7697373e-8, 2.3333340e+1
-0.070, -1.8473663e-8, -2.7484489e-8, 2.3666674e+1
-0.071, -1.8257426e-8, -2.7359235e-8, 2.4000008e+1
-0.072, -1.8052210e-8, -2.7085004e-8, 2.4333342e+1
-0.073, -1.7933187e-8, -2.6915574e-8, 2.4666676e+1
-0.074, -1.7703609e-8, -2.6779059e-8, 2.5000010e+1
-0.075, -1.7540572e-8, -2.6515291e-8, 2.5333344e+1
-0.076, -1.7415797e-8, -2.6434371e-8, 2.5666677e+1
-0.077, -1.7166407e-8, -2.6202315e-8, 2.6000011e+1
-0.078, -1.7062401e-8, -2.6013796e-8, 2.6333345e+1
-0.079, -1.6920692e-8, -2.5882390e-8, 2.6666679e+1
-0.080, -1.6702058e-8, -2.5642429e-8, 2.7000013e+1
-0.081, -1.6571692e-8, -2.5497204e-8, 2.7333347e+1
-0.082, -1.6458181e-8, -2.5402704e-8, 2.7666681e+1
-0.083, -1.6276770e-8, -2.5157469e-8, 2.8000015e+1
-0.084, -1.6099275e-8, -2.5017519e-8, 2.8333349e+1
-0.085, -1.5969945e-8, -2.4917027e-8, 2.8666683e+1
-0.086, -1.5815296e-8, -2.4726511e-8, 2.9000017e+1
-0.087, -1.5636441e-8, -2.4536392e-8, 2.9333351e+1
-0.088, -1.5547455e-8, -2.4468095e-8, 2.9666685e+1
-0.089, -1.5431228e-8, -2.4334373e-8, 3.0000019e+1
-0.090, -1.5238633e-8, -2.4114540e-8, 3.0333353e+1
-0.091, -1.5112262e-8, -2.3992961e-8, 3.0666687e+1
-0.092, -1.5034777e-8, -2.3906928e-8, 3.1000021e+1
-0.093, -1.4877810e-8, -2.3686296e-8, 3.1333355e+1
-0.094, -1.4710139e-8, -2.3569509e-8, 3.1666689e+1
-0.095, -1.4605893e-8, -2.3477886e-8, 3.2000023e+1
-0.096, -1.4525533e-8, -2.3392893e-8, 3.2333355e+1
-0.097, -1.4414339e-8, -2.3158680e-8, 3.2666687e+1
-0.098, -1.4205450e-8, -2.3058590e-8, 3.3000019e+1
-0.099, -1.4124529e-8, -2.2976712e-8, 3.3333351e+1
-0.100, -1.4051677e-8, -2.2910969e-8, 3.3666683e+1
-0.101, -1.3901740e-8, -2.2674040e-8, 3.4000015e+1
-0.102, -1.3753162e-8, -2.2593280e-8, 3.4333347e+1
-0.103, -1.3647959e-8, -2.2538803e-8, 3.4666679e+1
-0.104, -1.3575186e-8, -2.2437673e-8, 3.5000011e+1
-0.105, -1.3500259e-8, -2.2251790e-8, 3.5333344e+1
-0.106, -1.3359587e-8, -2.2128372e-8, 3.5666676e+1
-0.107, -1.3197588e-8, -2.2036669e-8, 3.6000008e+1
-0.108, -1.3150936e-8, -2.1976359e-8, 3.6333340e+1
-0.109, -1.3076727e-8, -2.1835207e-8, 3.6666672e+1
-0.110, -1.2973042e-8, -2.1673689e-8, 3.7000004e+1
-0.111, -1.2786758e-8, -2.1588296e-8, 3.7333336e+1
-0.112, -1.2704082e-8, -2.1536373e-8, 3.7666668e+1
-0.113, -1.2646407e-8, -2.1469992e-8, 3.8000000e+1
-0.114, -1.2567325e-8, -2.1324288e-8, 3.8333332e+1
-0.115, -1.2503180e-8, -2.1165164e-8, 3.8666664e+1
-0.116, -1.2399575e-8, -2.1102219e-8, 3.8999996e+1
-0.117, -1.2206342e-8, -2.1031843e-8, 3.9333328e+1
-0.118, -1.2160729e-8, -2.0991344e-8, 3.9666660e+1
-0.119, -1.2092990e-8, -2.0853388e-8, 3.9999992e+1
-0.120, -1.1988985e-8, -2.0702812e-8, 4.0333324e+1
-0.121, -1.1852069e-8, -2.0614145e-8, 4.0666656e+1
-0.122, -1.1750140e-8, -2.0579154e-8, 4.0999989e+1
-0.123, -1.1675851e-8, -2.0513093e-8, 4.1333321e+1
-0.124, -1.1613383e-8, -2.0437927e-8, 4.1666653e+1
-0.125, -1.1551076e-8, -2.0277843e-8, 4.1999985e+1
-0.126, -1.1457216e-8, -2.0181748e-8, 4.2333317e+1
-0.127, -1.1290024e-8, -2.0102025e-8, 4.2666649e+1
-0.128, -1.1218290e-8, -2.0057691e-8, 4.2999981e+1
-0.129, -1.1180826e-8, -2.0010960e-8, 4.3333313e+1
-0.130, -1.1100705e-8, -1.9928843e-8, 4.3666645e+1
-0.131, -1.0999097e-8, -1.9775870e-8, 4.3999977e+1
-0.132, -1.0878556e-8, -1.9686084e-8, 4.4333309e+1
-0.133, -1.0770636e-8, -1.9624814e-8, 4.4666641e+1
-0.134, -1.0713681e-8, -1.9587191e-8, 4.4999973e+1
-0.135, -1.0635557e-8, -1.9540300e-8, 4.5333305e+1
-0.136, -1.0586829e-8, -1.9493251e-8, 4.5666637e+1
-0.137, -1.0510703e-8, -1.9374147e-8, 4.5999969e+1
-0.138, -1.0374345e-8, -1.9253287e-8, 4.6333302e+1
-0.139, -1.0246695e-8, -1.9167096e-8, 4.6666634e+1
-0.140, -1.0191976e-8, -1.9128992e-8, 4.6999966e+1
-0.141, -1.0135899e-8, -1.9092806e-8, 4.7333298e+1
-0.142, -1.0057616e-8, -1.9060215e-8, 4.7666630e+1
-0.143, -9.9174251e-9, -1.9016198e-8, 4.7999962e+1
-0.144, -9.8087867e-9, -1.8942071e-8, 4.8333294e+1
-0.145, -9.7411270e-9, -1.8803236e-8, 4.8666626e+1
-0.146, -9.6693134e-9, -1.8724155e-8, 4.8999958e+1
-0.147, -9.6120392e-9, -1.8675108e-8, 4.9333290e+1
-0.148, -9.5617132e-9, -1.8655376e-8, 4.9666622e+1
-0.149, -9.3919654e-9, -1.8612958e-8, 4.9999954e+1
-0.150, -9.2898773e-9, -1.8581726e-8, 5.0333286e+1
-0.151, -9.2257331e-9, -1.8533637e-8, 5.0666618e+1
-0.152, -9.1771648e-9, -1.8465100e-8, 5.0999950e+1
-0.153, -9.0964054e-9, -1.8366366e-8, 5.1333282e+1
-0.154, -8.9673966e-9, -1.8292875e-8, 5.1666615e+1
-0.155, -8.8315986e-9, -1.8217467e-8, 5.1999947e+1
-0.156, -8.7680929e-9, -1.8183437e-8, 5.2333279e+1
-0.157, -8.7028305e-9, -1.8137825e-8, 5.2666611e+1
-0.158, -8.6386054e-9, -1.8118493e-8, 5.2999943e+1
-0.159, -8.5449052e-9, -1.8072802e-8, 5.3333275e+1
-0.160, -8.3965652e-9, -1.8066572e-8, 5.3666607e+1
-0.161, -8.2681959e-9, -1.8034539e-8, 5.3999939e+1
-0.162, -8.1963831e-9, -1.7978863e-8, 5.4333271e+1
-0.163, -8.1116287e-9, -1.7900499e-8, 5.4666603e+1
-0.164, -7.9841387e-9, -1.7832519e-8, 5.4999935e+1
-0.165, -7.8270119e-9, -1.7769095e-8, 5.5333267e+1
-0.166, -7.7595930e-9, -1.7733866e-8, 5.5666599e+1
-0.167, -7.6774747e-9, -1.7696321e-8, 5.5999931e+1
-0.168, -7.5642834e-9, -1.7687773e-8, 5.6333263e+1
-0.169, -7.3775204e-9, -1.7657181e-8, 5.6666595e+1
-0.170, -7.2803847e-9, -1.7645597e-8, 5.6999928e+1
-0.171, -7.2032198e-9, -1.7620755e-8, 5.7333260e+1
-0.172, -7.0481705e-9, -1.7608851e-8, 5.7666592e+1
-0.173, -6.8709136e-9, -1.7592077e-8, 5.7999924e+1
-0.174, -6.7861596e-9, -1.7590001e-8, 5.8333256e+1
-0.175, -6.6698531e-9, -1.7570668e-8, 5.8666588e+1
-0.176, -6.5139241e-9, -1.7570828e-8, 5.8999920e+1
-0.177, -6.3203722e-9, -1.7561881e-8, 5.9333252e+1
-0.178, -6.2118137e-9, -1.7558365e-8, 5.9666584e+1
-0.179, -6.0264895e-9, -1.7536799e-8, 5.9999916e+1
-0.180, -5.8280643e-9, -1.7536719e-8, 6.0333248e+1
-0.181, -5.7023311e-9, -1.7528331e-8, 6.0666580e+1
-0.182, -5.5535123e-9, -1.7544307e-8, 6.0999912e+1
-0.183, -5.3068394e-9, -1.7532086e-8, 6.1333244e+1
-0.184, -5.1725588e-9, -1.7530009e-8, 6.1666576e+1
-0.185, -4.9050364e-9, -1.7543588e-8, 6.1999908e+1
-0.186, -4.7489488e-9, -1.7561881e-8, 6.2333241e+1
-0.187, -4.5608282e-9, -1.7568512e-8, 6.2666573e+1
-0.188, -4.2961017e-9, -1.7584728e-8, 6.2999905e+1
-0.189, -4.0215502e-9, -1.7590159e-8, 6.3333237e+1
-0.190, -3.8197698e-9, -1.7612207e-8, 6.3666569e+1
-0.191, -3.5568808e-9, -1.7626906e-8, 6.3999901e+1
-0.192, -3.3144412e-9, -1.7660774e-8, 6.4333237e+1
-0.193, -2.9705525e-9, -1.7688972e-8, 6.4666573e+1
-0.194, -2.7413731e-9, -1.7724998e-8, 6.4999908e+1
-0.195, -2.3786326e-9, -1.7796893e-8, 6.5333244e+1
-0.196, -2.0576698e-9, -1.7921268e-8, 6.5666580e+1
-0.197, -1.7334318e-9, -1.8035736e-8, 6.5999916e+1
-0.198, -1.3454485e-9, -1.8084943e-8, 6.6333252e+1
-0.199, -9.3437980e-10, -1.8141661e-8, 6.6666588e+1
-0.200, -5.6389055e-10, -1.8222819e-8, 6.6999924e+1
-0.201, -1.5226251e-10, -1.8368603e-8, 6.7333260e+1
-0.202, 2.1535096e-10, -1.8546976e-8, 6.7666595e+1
-0.203, 6.7922129e-10, -1.8635806e-8, 6.7999931e+1
-0.204, 1.1825529e-9, -1.8715607e-8, 6.8333267e+1
-0.205, 1.5926633e-9, -1.8972504e-8, 6.8666603e+1
-0.206, 2.1362552e-9, -1.9077389e-8, 6.8999939e+1
-0.207, 2.7970328e-9, -1.9203920e-8, 6.9333275e+1
-0.208, 3.3593166e-9, -1.9500678e-8, 6.9666611e+1
-0.209, 3.9370178e-9, -1.9629288e-8, 6.9999947e+1
-0.210, 4.6351003e-9, -1.9902242e-8, 7.0333282e+1
-0.211, 5.3088982e-9, -2.0100268e-8, 7.0666618e+1
-0.212, 6.0292673e-9, -2.0429697e-8, 7.0999954e+1
-0.213, 6.8728934e-9, -2.0642183e-8, 7.1333290e+1
-0.214, 7.6017299e-9, -2.1013950e-8, 7.1666626e+1
-0.215, 8.4348910e-9, -2.1298327e-8, 7.1999962e+1
-0.216, 9.3228509e-9, -2.1610504e-8, 7.2333298e+1
-0.217, 1.0242364e-8, -2.2023888e-8, 7.2666634e+1
-0.218, 1.1210044e-8, -2.2464112e-8, 7.2999969e+1
-0.219, 1.2180043e-8, -2.2855531e-8, 7.3333305e+1
-0.220, 1.3359251e-8, -2.3283935e-8, 7.3666641e+1
-0.221, 1.4451866e-8, -2.3733346e-8, 7.3999977e+1
-0.222, 1.5634907e-8, -2.4284208e-8, 7.4333313e+1
-0.223, 1.6892876e-8, -2.4821967e-8, 7.4666649e+1
-0.224, 1.8166663e-8, -2.5408456e-8, 7.4999985e+1
-0.225, 1.9516257e-8, -2.5968024e-8, 7.5333321e+1
-0.226, 2.1016906e-8, -2.6593254e-8, 7.5666656e+1
-0.227, 2.2438392e-8, -2.7346852e-8, 7.5999992e+1
-0.228, 2.3995756e-8, -2.8063548e-8, 7.6333328e+1
-0.229, 2.5665194e-8, -2.8926983e-8, 7.6666664e+1
-0.230, 2.7295650e-8, -2.9759187e-8, 7.7000000e+1
-0.231, 2.9204491e-8, -3.0603214e-8, 7.7333336e+1
-0.232, 3.1047353e-8, -3.1419919e-8, 7.7666672e+1
-0.233, 3.2910503e-8, -3.2381688e-8, 7.8000008e+1
-0.234, 3.4818065e-8, -3.3360873e-8, 7.8333344e+1
-0.235, 3.6829476e-8, -3.4383675e-8, 7.8666679e+1
-0.236, 3.8952880e-8, -3.5437385e-8, 7.9000015e+1
-0.237, 4.1101206e-8, -3.6607087e-8, 7.9333351e+1
-0.238, 4.3269342e-8, -3.7770956e-8, 7.9666687e+1
-0.239, 4.5550667e-8, -3.8969734e-8, 8.0000023e+1
-0.240, 4.7915794e-8, -4.0247755e-8, 8.0333359e+1
-0.241, 5.0218929e-8, -4.1535280e-8, 8.0666695e+1
-0.242, 5.2726637e-8, -4.2878963e-8, 8.1000031e+1
-0.243, 5.5155670e-8, -4.4285112e-8, 8.1333366e+1
-0.244, 5.7647647e-8, -4.5709953e-8, 8.1666702e+1
-0.245, 6.0293154e-8, -4.7199180e-8, 8.2000038e+1
-0.246, 6.2761480e-8, -4.8707179e-8, 8.2333374e+1
-0.247, 6.5392605e-8, -5.0254876e-8, 8.2666710e+1
-0.248, 6.8098352e-8, -5.1854499e-8, 8.3000046e+1
-0.249, 7.0738587e-8, -5.3508682e-8, 8.3333382e+1
-0.250, 7.3387284e-8, -5.5130666e-8, 8.3666718e+1
-0.251, 7.6121140e-8, -5.6828224e-8, 8.4000053e+1
-0.252, 7.8874812e-8, -5.8547350e-8, 8.4333389e+1
-0.253, 8.1452896e-8, -6.0193138e-8, 8.4666725e+1
-0.254, 8.4124039e-8, -6.1973374e-8, 8.5000061e+1
-0.255, 8.6943530e-8, -6.3711269e-8, 8.5333397e+1
-0.256, 8.9531603e-8, -6.5512268e-8, 8.5666733e+1
-0.257, 9.2313222e-8, -6.7273739e-8, 8.6000069e+1
-0.258, 9.4979100e-8, -6.9133769e-8, 8.6333405e+1
-0.259, 9.7575963e-8, -7.0860644e-8, 8.6666740e+1
-0.260, 1.0008911e-7, -7.2710208e-8, 8.7000076e+1
-0.261, 1.0264347e-7, -7.4461049e-8, 8.7333412e+1
-0.262, 1.0499773e-7, -7.6264605e-8, 8.7666748e+1
-0.263, 1.0741421e-7, -7.8006657e-8, 8.8000084e+1
-0.264, 1.0969986e-7, -7.9750222e-8, 8.8333420e+1
-0.265, 1.1204070e-7, -8.1457287e-8, 8.8666756e+1
-0.266, 1.1424159e-7, -8.3138389e-8, 8.9000092e+1
-0.267, 1.1642482e-7, -8.4830113e-8, 8.9333427e+1
-0.268, 1.1848169e-7, -8.6476149e-8, 8.9666763e+1
-0.269, 1.2052010e-7, -8.8089905e-8, 9.0000099e+1
-0.270, 1.2252407e-7, -8.9678423e-8, 9.0333435e+1
-0.271, 1.2438913e-7, -9.1298737e-8, 9.0666771e+1
-0.272, 1.2615467e-7, -9.2888449e-8, 9.1000107e+1
-0.273, 1.2785375e-7, -9.4337416e-8, 9.1333443e+1
-0.274, 1.2959364e-7, -9.5778717e-8, 9.1666779e+1
-0.275, 1.3121939e-7, -9.7184227e-8, 9.2000114e+1
-0.276, 1.3270373e-7, -9.8551155e-8, 9.2333450e+1
-0.277, 1.3418889e-7, -9.9885249e-8, 9.2666786e+1
-0.278, 1.3552634e-7, -1.0113819e-7, 9.3000122e+1
-0.279, 1.3683919e-7, -1.0235646e-7, 9.3333458e+1
-0.280, 1.3811314e-7, -1.0355276e-7, 9.3666794e+1
-0.281, 1.3925175e-7, -1.0470616e-7, 9.4000130e+1
-0.282, 1.4038480e-7, -1.0577897e-7, 9.4333466e+1
-0.283, 1.4143124e-7, -1.0683883e-7, 9.4666801e+1
-0.284, 1.4246331e-7, -1.0784517e-7, 9.5000137e+1
-0.285, 1.4335566e-7, -1.0881750e-7, 9.5333473e+1
-0.286, 1.4425288e-7, -1.0974898e-7, 9.5666809e+1
-0.287, 1.4509811e-7, -1.1065979e-7, 9.6000145e+1
-0.288, 1.4590459e-7, -1.1150932e-7, 9.6333481e+1
-0.289, 1.4660435e-7, -1.1230359e-7, 9.6666817e+1
-0.290, 1.4736443e-7, -1.1311630e-7, 9.7000153e+1
-0.291, 1.4799691e-7, -1.1385072e-7, 9.7333488e+1
-0.292, 1.4858333e-7, -1.1459043e-7, 9.7666824e+1
-0.293, 1.4921798e-7, -1.1526863e-7, 9.8000160e+1
-0.294, 1.4979800e-7, -1.1596374e-7, 9.8333496e+1
-0.295, 1.5030764e-7, -1.1657659e-7, 9.8666832e+1
-0.296, 1.5083462e-7, -1.1716812e-7, 9.9000168e+1
-0.297, 1.5125720e-7, -1.1776890e-7, 9.9333504e+1
-0.298, 1.5173616e-7, -1.1836641e-7, 9.9666840e+1
-0.299, 1.5209187e-7, -1.1891607e-7, 1.0000018e+2
-0.300, 1.5250390e-7, -1.1945399e-7, 1.0033351e+2
-0.301, 1.5288941e-7, -1.1993680e-7, 1.0066685e+2
-0.302, 1.5327028e-7, -1.2043213e-7, 1.0100018e+2
-0.303, 1.5364388e-7, -1.2088091e-7, 1.0133352e+2
-0.304, 1.5398258e-7, -1.2133872e-7, 1.0166685e+2
-0.305, 1.5434588e-7, -1.2167916e-7, 1.0200019e+2
-0.306, 1.5468497e-7, -1.2213761e-7, 1.0233353e+2
-0.307, 1.5488979e-7, -1.2252448e-7, 1.0266686e+2
-0.308, 1.5522626e-7, -1.2293442e-7, 1.0300020e+2
-0.309, 1.5542939e-7, -1.2333663e-7, 1.0333353e+2
-0.310, 1.5570507e-7, -1.2358865e-7, 1.0366687e+2
-0.311, 1.5583831e-7, -1.2393198e-7, 1.0400021e+2
-0.312, 1.5608585e-7, -1.2429727e-7, 1.0433354e+2
-0.313, 1.5627388e-7, -1.2449082e-7, 1.0466688e+2
-0.314, 1.5638892e-7, -1.2484519e-7, 1.0500021e+2
-0.315, 1.5658647e-7, -1.2507684e-7, 1.0533355e+2
-0.316, 1.5677962e-7, -1.2536066e-7, 1.0566689e+2
-0.317, 1.5684664e-7, -1.2557210e-7, 1.0600022e+2
-0.318, 1.5696119e-7, -1.2584833e-7, 1.0633356e+2
-0.319, 1.5718038e-7, -1.2606050e-7, 1.0666689e+2
-0.320, 1.5727753e-7, -1.2631835e-7, 1.0700023e+2
-0.321, 1.5734192e-7, -1.2642420e-7, 1.0733356e+2
-0.322, 1.5745358e-7, -1.2670745e-7, 1.0766690e+2
-0.323, 1.5758866e-7, -1.2685085e-7, 1.0800024e+2
-0.324, 1.5769170e-7, -1.2699638e-7, 1.0833357e+2
-0.325, 1.5776878e-7, -1.2726758e-7, 1.0866691e+2
-0.326, 1.5779955e-7, -1.2735880e-7, 1.0900024e+2
-0.327, 1.5785538e-7, -1.2746816e-7, 1.0933358e+2
-0.328, 1.5792992e-7, -1.2771875e-7, 1.0966692e+2
-0.329, 1.5800516e-7, -1.2781844e-7, 1.1000025e+2
-0.330, 1.5811308e-7, -1.2792205e-7, 1.1033359e+2
-0.331, 1.5820191e-7, -1.2811009e-7, 1.1066692e+2
-0.332, 1.5825272e-7, -1.2826841e-7, 1.1100026e+2
-0.333, 1.5829576e-7, -1.2833567e-7, 1.1133360e+2
-0.334, 1.5832693e-7, -1.2839151e-7, 1.1166693e+2
-0.335, 1.5838268e-7, -1.2854559e-7, 1.1200027e+2
-0.336, 1.5841640e-7, -1.2871686e-7, 1.1233360e+2
-0.337, 1.5848565e-7, -1.2877877e-7, 1.1266694e+2
-0.338, 1.5861227e-7, -1.2884858e-7, 1.1300027e+2
-0.339, 1.5867880e-7, -1.2890978e-7, 1.1333361e+2
-0.340, 1.5871467e-7, -1.2913328e-7, 1.1366695e+2
-0.341, 1.5876476e-7, -1.2924328e-7, 1.1400028e+2
-0.342, 1.5878464e-7, -1.2929904e-7, 1.1433362e+2
-0.343, 1.5883840e-7, -1.2936454e-7, 1.1466695e+2
-0.344, 1.5892267e-7, -1.2948205e-7, 1.1500029e+2
-0.345, 1.5898667e-7, -1.2966186e-7, 1.1533363e+2
-0.346, 1.5908979e-7, -1.2973982e-7, 1.1566696e+2
-0.347, 1.5916200e-7, -1.2978927e-7, 1.1600030e+2
-0.348, 1.5922399e-7, -1.2985629e-7, 1.1633363e+2
-0.349, 1.5926625e-7, -1.2996892e-7, 1.1666697e+2
-0.350, 1.5930452e-7, -1.3011767e-7, 1.1700031e+2
-0.351, 1.5934805e-7, -1.3021504e-7, 1.1733364e+2
-0.352, 1.5939558e-7, -1.3026481e-7, 1.1766698e+2
-0.353, 1.5943199e-7, -1.3030811e-7, 1.1800031e+2
-0.354, 1.5954488e-7, -1.3034725e-7, 1.1833365e+2
-0.355, 1.5961398e-7, -1.3040955e-7, 1.1866698e+2
-0.356, 1.5964241e-7, -1.3052968e-7, 1.1900032e+2
-0.357, 1.5968746e-7, -1.3063705e-7, 1.1933366e+2
-0.358, 1.5970089e-7, -1.3069489e-7, 1.1966699e+2
-0.359, 1.5970839e-7, -1.3072516e-7, 1.2000033e+2
-0.360, 1.5972500e-7, -1.3075392e-7, 1.2033366e+2
-0.361, 1.5972955e-7, -1.3077677e-7, 1.2066700e+2
-0.362, 1.5973738e-7, -1.3079585e-7, 1.2100034e+2
-0.363, 1.5973907e-7, -1.3081439e-7, 1.2133367e+2
-0.364, 1.5973954e-7, -1.3083532e-7, 1.2166701e+2
-0.365, 1.5974122e-7, -1.3085568e-7, 1.2200034e+2
-0.366, 1.5973418e-7, -1.3085273e-7, 1.2233368e+2
-0.367, 1.5973603e-7, -1.3088109e-7, 1.2266702e+2
-0.368, 1.5972827e-7, -1.3092455e-7, 1.2300035e+2
-0.369, 1.5970672e-7, -1.3093062e-7, 1.2333369e+2
-0.370, 1.5971766e-7, -1.3094284e-7, 1.2366702e+2
-0.371, 1.5969633e-7, -1.3094899e-7, 1.2400036e+2
-0.372, 1.5968106e-7, -1.3090394e-7, 1.2433369e+2
-0.373, 1.5968291e-7, -1.3094595e-7, 1.2466703e+2
-0.374, 1.5962556e-7, -1.3094012e-7, 1.2500037e+2
-0.375, 1.5960805e-7, -1.3092279e-7, 1.2533370e+2
-0.376, 1.5953106e-7, -1.3089986e-7, 1.2566704e+2
-0.377, 1.5947522e-7, -1.3088619e-7, 1.2600037e+2
-0.378, 1.5945133e-7, -1.3086552e-7, 1.2633371e+2
-0.379, 1.5939462e-7, -1.3084849e-7, 1.2666705e+2
-0.380, 1.5937896e-7, -1.3083636e-7, 1.2700038e+2
-0.381, 1.5934101e-7, -1.3082190e-7, 1.2733372e+2
-0.382, 1.5931666e-7, -1.3080448e-7, 1.2766705e+2
-0.383, 1.5929892e-7, -1.3078866e-7, 1.2800038e+2
-0.384, 1.5927743e-7, -1.3077236e-7, 1.2833371e+2
-0.385, 1.5925011e-7, -1.3075423e-7, 1.2866704e+2
-0.386, 1.5923166e-7, -1.3073691e-7, 1.2900037e+2
-0.387, 1.5919571e-7, -1.3072356e-7, 1.2933369e+2
-0.388, 1.5914810e-7, -1.3071190e-7, 1.2966702e+2
-0.389, 1.5913156e-7, -1.3069337e-7, 1.3000035e+2
-0.390, 1.5905624e-7, -1.3066669e-7, 1.3033368e+2
-0.391, 1.5900255e-7, -1.3063330e-7, 1.3066701e+2
-0.392, 1.5896622e-7, -1.3057914e-7, 1.3100034e+2
-0.393, 1.5891597e-7, -1.3051356e-7, 1.3133366e+2
-0.394, 1.5892746e-7, -1.3035331e-7, 1.3166699e+2
-0.395, 1.5883816e-7, -1.3045437e-7, 1.3200032e+2
-0.396, 1.5881180e-7, -1.3036401e-7, 1.3233365e+2
-0.397, 1.5880238e-7, -1.3033845e-7, 1.3266698e+2
-0.398, 1.5878032e-7, -1.3031784e-7, 1.3300031e+2
-0.399, 1.5877002e-7, -1.3029612e-7, 1.3333363e+2
