Jan. 28, 2006   05:20:33
Cyclic Voltammetry
File: z:\users\scottsaunders\git\labwork\ida\01_17_19_psoralen_nonequil_2\data\psoralen\5\75um_psoralen_soak_5_gc_1.txt
Data Source:  Experiment
Instrument Model:  CHI760E
Header: 
Note: 

Init E (V) = 0
High E (V) = 0
Low E (V) = -0.4
Init P/N = N
Scan Rate (V/s) = 0.003
Segment = 1
Sample Interval (V) = 0.001
Quiet Time (sec) = 2
Sensitivity (A/V) = 1e-5
2nd E (V) = 0
Sens 2 (A/V) = 1e-5

Potential/V, i1/A, i2/A, Time/s

0.000, -1.1344910e-7, -1.1953955e-7, 3.3333334e-1
-0.001, -1.0289062e-7, -1.1027395e-7, 6.6666669e-1
-0.002, -9.5757180e-8, -1.0273384e-7, 1.0000000e+0
-0.003, -8.9958291e-8, -9.6351940e-8, 1.3333334e+0
-0.004, -8.4797172e-8, -9.0856403e-8, 1.6666667e+0
-0.005, -8.0368295e-8, -8.6152703e-8, 2.0000000e+0
-0.006, -7.6518113e-8, -8.2146272e-8, 2.3333333e+0
-0.007, -7.3045868e-8, -7.8482586e-8, 2.6666665e+0
-0.008, -6.9986989e-8, -7.5197086e-8, 2.9999998e+0
-0.009, -6.7176131e-8, -7.2372494e-8, 3.3333330e+0
-0.010, -6.4814060e-8, -6.9807911e-8, 3.6666663e+0
-0.011, -6.2581897e-8, -6.7408784e-8, 3.9999995e+0
-0.012, -6.0396985e-8, -6.5222387e-8, 4.3333330e+0
-0.013, -5.8471894e-8, -6.3165992e-8, 4.6666665e+0
-0.014, -5.6629482e-8, -6.1345965e-8, 5.0000000e+0
-0.015, -5.4905172e-8, -5.9620490e-8, 5.3333335e+0
-0.016, -5.3346202e-8, -5.8060465e-8, 5.6666670e+0
-0.017, -5.1846289e-8, -5.6665900e-8, 6.0000005e+0
-0.018, -5.0476292e-8, -5.5413153e-8, 6.3333340e+0
-0.019, -4.9106287e-8, -5.4136773e-8, 6.6666675e+0
-0.020, -4.7818958e-8, -5.2954935e-8, 7.0000010e+0
-0.021, -4.6649738e-8, -5.1796732e-8, 7.3333344e+0
-0.022, -4.5480508e-8, -5.0815814e-8, 7.6666679e+0
-0.023, -4.4370339e-8, -4.9846712e-8, 8.0000010e+0
-0.024, -4.3319215e-8, -4.8877606e-8, 8.3333340e+0
-0.025, -4.2421625e-8, -4.8026678e-8, 8.6666670e+0
-0.026, -4.1677573e-8, -4.7057572e-8, 9.0000000e+0
-0.027, -4.0850846e-8, -4.6194838e-8, 9.3333330e+0
-0.028, -4.0047748e-8, -4.5367553e-8, 9.6666660e+0
-0.029, -3.9315506e-8, -4.4693905e-8, 9.9999990e+0
-0.030, -3.8583263e-8, -4.4102990e-8, 1.0333332e+1
-0.031, -3.7933695e-8, -4.3429338e-8, 1.0666665e+1
-0.032, -3.7402231e-8, -4.2791150e-8, 1.0999998e+1
-0.033, -3.6705416e-8, -4.2152958e-8, 1.1333331e+1
-0.034, -3.6126711e-8, -4.1585675e-8, 1.1666664e+1
-0.035, -3.5488952e-8, -4.1030216e-8, 1.1999997e+1
-0.036, -3.4863003e-8, -4.0486569e-8, 1.2333330e+1
-0.037, -3.4296104e-8, -3.9954742e-8, 1.2666663e+1
-0.038, -3.3752830e-8, -3.9482014e-8, 1.2999996e+1
-0.039, -3.3126881e-8, -3.8973820e-8, 1.3333329e+1
-0.040, -3.2654466e-8, -3.8441993e-8, 1.3666662e+1
-0.041, -3.2111188e-8, -3.7945625e-8, 1.3999995e+1
-0.042, -3.1638777e-8, -3.7531983e-8, 1.4333328e+1
-0.043, -3.1201793e-8, -3.7094701e-8, 1.4666661e+1
-0.044, -3.0599466e-8, -3.6751970e-8, 1.4999994e+1
-0.045, -3.0233345e-8, -3.6361968e-8, 1.5333327e+1
-0.046, -2.9737311e-8, -3.5936502e-8, 1.5666660e+1
-0.047, -2.9430240e-8, -3.5499223e-8, 1.5999993e+1
-0.048, -2.8993258e-8, -3.5109220e-8, 1.6333326e+1
-0.049, -2.8544463e-8, -3.4766487e-8, 1.6666660e+1
-0.050, -2.8131101e-8, -3.4506485e-8, 1.6999994e+1
-0.051, -2.7682308e-8, -3.4211023e-8, 1.7333328e+1
-0.052, -2.7398860e-8, -3.3844653e-8, 1.7666662e+1
-0.053, -2.7068170e-8, -3.3501923e-8, 1.7999996e+1
-0.054, -2.6737482e-8, -3.3218281e-8, 1.8333330e+1
-0.055, -2.6253256e-8, -3.2946460e-8, 1.8666664e+1
-0.056, -2.5981617e-8, -3.2603726e-8, 1.8999998e+1
-0.057, -2.5757222e-8, -3.2320084e-8, 1.9333332e+1
-0.058, -2.5497393e-8, -3.2083719e-8, 1.9666666e+1
-0.059, -2.5166702e-8, -3.1977354e-8, 2.0000000e+1
-0.060, -2.4859634e-8, -3.1788261e-8, 2.0333334e+1
-0.061, -2.4587996e-8, -3.1563712e-8, 2.0666668e+1
-0.062, -2.4328168e-8, -3.1362802e-8, 2.1000002e+1
-0.063, -2.4139203e-8, -3.1185525e-8, 2.1333336e+1
-0.064, -2.3962047e-8, -3.0972792e-8, 2.1666670e+1
-0.065, -2.3619545e-8, -3.0712791e-8, 2.2000004e+1
-0.066, -2.3395151e-8, -3.0476421e-8, 2.2333338e+1
-0.067, -2.3158943e-8, -3.0417329e-8, 2.2666672e+1
-0.068, -2.2946356e-8, -3.0346420e-8, 2.3000006e+1
-0.069, -2.2757392e-8, -3.0050963e-8, 2.3333340e+1
-0.070, -2.2592046e-8, -2.9861869e-8, 2.3666674e+1
-0.071, -2.2308599e-8, -2.9684593e-8, 2.4000008e+1
-0.072, -2.2131442e-8, -2.9507317e-8, 2.4333342e+1
-0.073, -2.1918858e-8, -2.9436407e-8, 2.4666676e+1
-0.074, -2.1729893e-8, -2.9223678e-8, 2.5000010e+1
-0.075, -2.1493683e-8, -2.9117313e-8, 2.5333344e+1
-0.076, -2.1222046e-8, -2.9046403e-8, 2.5666677e+1
-0.077, -2.1127562e-8, -2.8821853e-8, 2.6000011e+1
-0.078, -2.0926787e-8, -2.8644576e-8, 2.6333345e+1
-0.079, -2.0690578e-8, -2.8420029e-8, 2.6666679e+1
-0.080, -2.0525233e-8, -2.8254570e-8, 2.7000013e+1
-0.081, -2.0407132e-8, -2.8030021e-8, 2.7333347e+1
-0.082, -2.0218167e-8, -2.7888202e-8, 2.7666681e+1
-0.083, -2.0029200e-8, -2.7793657e-8, 2.8000015e+1
-0.084, -1.9828425e-8, -2.7640016e-8, 2.8333349e+1
-0.085, -1.9639460e-8, -2.7498197e-8, 2.8666683e+1
-0.086, -1.9533166e-8, -2.7474560e-8, 2.9000017e+1
-0.087, -1.9285149e-8, -2.7297284e-8, 2.9333351e+1
-0.088, -1.9226096e-8, -2.7250012e-8, 2.9666685e+1
-0.089, -1.9013509e-8, -2.7025463e-8, 3.0000019e+1
-0.090, -1.8859975e-8, -2.6883644e-8, 3.0333353e+1
-0.091, -1.8694632e-8, -2.6836370e-8, 3.0666687e+1
-0.092, -1.8564716e-8, -2.6730005e-8, 3.1000021e+1
-0.093, -1.8564716e-8, -2.6682731e-8, 3.1333355e+1
-0.094, -1.8352130e-8, -2.6623638e-8, 3.1666689e+1
-0.095, -1.8127734e-8, -2.6434545e-8, 3.2000023e+1
-0.096, -1.7974198e-8, -2.6292726e-8, 3.2333355e+1
-0.097, -1.7785235e-8, -2.6091811e-8, 3.2666687e+1
-0.098, -1.7560836e-8, -2.5949992e-8, 3.3000019e+1
-0.099, -1.7478165e-8, -2.5808173e-8, 3.3333351e+1
-0.100, -1.7324631e-8, -2.5772719e-8, 3.3666683e+1
-0.101, -1.7171095e-8, -2.5749083e-8, 3.4000015e+1
-0.102, -1.6993940e-8, -2.5725443e-8, 3.4333347e+1
-0.103, -1.6934887e-8, -2.5536350e-8, 3.4666679e+1
-0.104, -1.6887647e-8, -2.5512712e-8, 3.5000011e+1
-0.105, -1.6698682e-8, -2.5524534e-8, 3.5333344e+1
-0.106, -1.6592388e-8, -2.5359075e-8, 3.5666676e+1
-0.107, -1.6462474e-8, -2.5193618e-8, 3.6000008e+1
-0.108, -1.6320751e-8, -2.5146344e-8, 3.6333340e+1
-0.109, -1.6273509e-8, -2.5075435e-8, 3.6666672e+1
-0.110, -1.6131784e-8, -2.5004525e-8, 3.7000004e+1
-0.111, -1.5954628e-8, -2.4945432e-8, 3.7333336e+1
-0.112, -1.5848336e-8, -2.4921796e-8, 3.7666668e+1
-0.113, -1.5694802e-8, -2.4921796e-8, 3.8000000e+1
-0.114, -1.5564888e-8, -2.4862704e-8, 3.8333332e+1
-0.115, -1.5505835e-8, -2.4779975e-8, 3.8666664e+1
-0.116, -1.5340490e-8, -2.4720883e-8, 3.8999996e+1
-0.117, -1.5257818e-8, -2.4614520e-8, 3.9333328e+1
-0.118, -1.5127904e-8, -2.4496336e-8, 3.9666660e+1
-0.119, -1.4974368e-8, -2.4437243e-8, 3.9999992e+1
-0.120, -1.4844455e-8, -2.4342697e-8, 4.0333324e+1
-0.121, -1.4714542e-8, -2.4319057e-8, 4.0666656e+1
-0.122, -1.4561007e-8, -2.4248148e-8, 4.0999989e+1
-0.123, -1.4360231e-8, -2.4129967e-8, 4.1333321e+1
-0.124, -1.4183075e-8, -2.4035421e-8, 4.1666653e+1
-0.125, -1.4135834e-8, -2.3905418e-8, 4.1999985e+1
-0.126, -1.3911438e-8, -2.3929053e-8, 4.2333317e+1
-0.127, -1.3710662e-8, -2.3893600e-8, 4.2666649e+1
-0.128, -1.3568938e-8, -2.3787234e-8, 4.2999981e+1
-0.129, -1.3521697e-8, -2.3692687e-8, 4.3333313e+1
-0.130, -1.3356352e-8, -2.3669051e-8, 4.3666645e+1
-0.131, -1.3179196e-8, -2.3550868e-8, 4.3999977e+1
-0.132, -1.3002040e-8, -2.3468138e-8, 4.4333309e+1
-0.133, -1.2848506e-8, -2.3456320e-8, 4.4666641e+1
-0.134, -1.2777644e-8, -2.3432683e-8, 4.4999973e+1
-0.135, -1.2624110e-8, -2.3409045e-8, 4.5333305e+1
-0.136, -1.2529627e-8, -2.3468138e-8, 4.5666637e+1
-0.137, -1.2387902e-8, -2.3539046e-8, 4.5999969e+1
-0.138, -1.2340661e-8, -2.3515412e-8, 4.6333302e+1
-0.139, -1.2210747e-8, -2.3515412e-8, 4.6666634e+1
-0.140, -1.2139885e-8, -2.3432683e-8, 4.6999966e+1
-0.141, -1.2198937e-8, -2.3515412e-8, 4.7333298e+1
-0.142, -1.2045402e-8, -2.3633595e-8, 4.7666630e+1
-0.143, -1.1832817e-8, -2.3503594e-8, 4.7999962e+1
-0.144, -1.1714712e-8, -2.3527232e-8, 4.8333294e+1
-0.145, -1.1443075e-8, -2.3598140e-8, 4.8666626e+1
-0.146, -1.1289540e-8, -2.3716325e-8, 4.8999958e+1
-0.147, -1.1159626e-8, -2.3716325e-8, 4.9333290e+1
-0.148, -1.0982471e-8, -2.3680869e-8, 4.9666622e+1
-0.149, -1.0769885e-8, -2.3633595e-8, 4.9999954e+1
-0.150, -1.0569108e-8, -2.3657233e-8, 5.0333286e+1
-0.151, -1.0380143e-8, -2.3669051e-8, 5.0666618e+1
-0.152, -1.0273850e-8, -2.3716325e-8, 5.0999950e+1
-0.153, -1.0084883e-8, -2.3799052e-8, 5.1333282e+1
-0.154, -9.7778150e-9, -2.3763596e-8, 5.1666615e+1
-0.155, -9.6006598e-9, -2.3834508e-8, 5.1999947e+1
-0.156, -9.3290211e-9, -2.3905418e-8, 5.2333279e+1
-0.157, -9.1046246e-9, -2.3893600e-8, 5.2666611e+1
-0.158, -8.8802281e-9, -2.3929053e-8, 5.2999943e+1
-0.159, -8.6322105e-9, -2.3999966e-8, 5.3333275e+1
-0.160, -8.3487617e-9, -2.4177240e-8, 5.3666607e+1
-0.161, -8.0653129e-9, -2.4189056e-8, 5.3999939e+1
-0.162, -7.7936750e-9, -2.4129967e-8, 5.4333271e+1
-0.163, -7.5692794e-9, -2.4177240e-8, 5.4666603e+1
-0.164, -7.1559163e-9, -2.4200878e-8, 5.4999935e+1
-0.165, -6.8488473e-9, -2.4330879e-8, 5.5333267e+1
-0.166, -6.3646226e-9, -2.4460880e-8, 5.5666599e+1
-0.167, -5.9748810e-9, -2.4508154e-8, 5.5999931e+1
-0.168, -5.5851404e-9, -2.4614520e-8, 5.6333263e+1
-0.169, -5.1717772e-9, -2.4709067e-8, 5.6666595e+1
-0.170, -4.7820357e-9, -2.4827248e-8, 5.6999928e+1
-0.171, -4.2741903e-9, -2.5016343e-8, 5.7333260e+1
-0.172, -3.8372074e-9, -2.5193618e-8, 5.7666592e+1
-0.173, -3.3057417e-9, -2.5240892e-8, 5.7999924e+1
-0.174, -2.7506550e-9, -2.5394531e-8, 5.8333256e+1
-0.175, -2.1365170e-9, -2.5559986e-8, 5.8666588e+1
-0.176, -1.6641029e-9, -2.5760899e-8, 5.8999920e+1
-0.177, -1.1798783e-9, -2.6079995e-8, 5.9333252e+1
-0.178, -5.5392968e-10, -2.6434545e-8, 5.9666584e+1
-0.179, 4.8398258e-11, -2.6836370e-8, 5.9999916e+1
-0.180, 7.4520901e-10, -2.7108191e-8, 6.0333248e+1
-0.181, 1.4302094e-9, -2.7427289e-8, 6.0666580e+1
-0.182, 2.1742617e-9, -2.7758201e-8, 6.0999912e+1
-0.183, 2.9301244e-9, -2.8100935e-8, 6.1333244e+1
-0.184, 3.7804697e-9, -2.8455485e-8, 6.1666576e+1
-0.185, 4.6780562e-9, -2.8975494e-8, 6.1999908e+1
-0.186, 5.6110738e-9, -2.9436407e-8, 6.2333241e+1
-0.187, 6.6267645e-9, -2.9968231e-8, 6.2666573e+1
-0.188, 7.6424547e-9, -3.0464605e-8, 6.2999905e+1
-0.189, 8.7053866e-9, -3.0913704e-8, 6.3333237e+1
-0.190, 9.9218527e-9, -3.1528259e-8, 6.3666569e+1
-0.191, 1.1232801e-8, -3.2213720e-8, 6.3999901e+1
-0.192, 1.2472888e-8, -3.2840092e-8, 6.4333237e+1
-0.193, 1.3890131e-8, -3.3596468e-8, 6.4666573e+1
-0.194, 1.5413667e-8, -3.4411936e-8, 6.4999908e+1
-0.195, 1.6913582e-8, -3.5310130e-8, 6.5333244e+1
-0.196, 1.8602462e-8, -3.6385600e-8, 6.5666580e+1
-0.197, 2.0397634e-8, -3.7508347e-8, 6.5999916e+1
-0.198, 2.2216430e-8, -3.8595633e-8, 6.6333252e+1
-0.199, 2.4023414e-8, -3.9671104e-8, 6.6666588e+1
-0.200, 2.6137466e-8, -4.0722934e-8, 6.6999924e+1
-0.201, 2.8405054e-8, -4.1987498e-8, 6.7333260e+1
-0.202, 3.0767126e-8, -4.3429338e-8, 6.7666595e+1
-0.203, 3.3377212e-8, -4.4953911e-8, 6.7999931e+1
-0.204, 3.6211699e-8, -4.6632117e-8, 6.8333267e+1
-0.205, 3.9117040e-8, -4.8274867e-8, 6.8666603e+1
-0.206, 4.2140496e-8, -5.0130350e-8, 6.8999939e+1
-0.207, 4.5246615e-8, -5.1938560e-8, 6.9333275e+1
-0.208, 4.8636181e-8, -5.3853132e-8, 6.9666611e+1
-0.209, 5.2273776e-8, -5.5921340e-8, 6.9999947e+1
-0.210, 5.5970418e-8, -5.8237742e-8, 7.0333282e+1
-0.211, 6.0044989e-8, -6.0530496e-8, 7.0666618e+1
-0.212, 6.4379385e-8, -6.3319632e-8, 7.0999954e+1
-0.213, 6.8666544e-8, -6.6463315e-8, 7.1333290e+1
-0.214, 7.3130856e-8, -6.9536092e-8, 7.1666626e+1
-0.215, 7.7996717e-8, -7.2833409e-8, 7.1999962e+1
-0.216, 8.3287766e-8, -7.6414366e-8, 7.2333298e+1
-0.217, 8.8921297e-8, -8.0089883e-8, 7.2666634e+1
-0.218, 9.4814659e-8, -8.3907210e-8, 7.2999969e+1
-0.219, 1.0100329e-7, -8.7889987e-8, 7.3333305e+1
-0.220, 1.0766433e-7, -9.2262788e-8, 7.3666641e+1
-0.221, 1.1459701e-7, -9.6990128e-8, 7.3999977e+1
-0.222, 1.2202572e-7, -1.0183565e-7, 7.4333313e+1
-0.223, 1.2965521e-7, -1.0694119e-7, 7.4666649e+1
-0.224, 1.3778073e-7, -1.1231853e-7, 7.4999985e+1
-0.225, 1.4652039e-7, -1.1813317e-7, 7.5333321e+1
-0.226, 1.5540176e-7, -1.2437326e-7, 7.5666656e+1
-0.227, 1.6464928e-7, -1.3100335e-7, 7.5999992e+1
-0.228, 1.7471170e-7, -1.3805891e-7, 7.6333328e+1
-0.229, 1.8491582e-7, -1.4539812e-7, 7.6666664e+1
-0.230, 1.9566326e-7, -1.5323369e-7, 7.7000000e+1
-0.231, 2.0681225e-7, -1.6109290e-7, 7.7333336e+1
-0.232, 2.1863440e-7, -1.6966121e-7, 7.7666672e+1
-0.233, 2.3064553e-7, -1.7885590e-7, 7.8000008e+1
-0.234, 2.4278657e-7, -1.8803874e-7, 7.8333344e+1
-0.235, 2.5625036e-7, -1.9772978e-7, 7.8666679e+1
-0.236, 2.6999763e-7, -2.0815359e-7, 7.9000015e+1
-0.237, 2.8409917e-7, -2.1897920e-7, 7.9333351e+1
-0.238, 2.9887391e-7, -2.3015936e-7, 7.9666687e+1
-0.239, 3.1418014e-7, -2.4178863e-7, 8.0000023e+1
-0.240, 3.2979341e-7, -2.5390244e-7, 8.0333359e+1
-0.241, 3.4632794e-7, -2.6652444e-7, 8.0666695e+1
-0.242, 3.6273252e-7, -2.7966644e-7, 8.1000031e+1
-0.243, 3.7979848e-7, -2.9330482e-7, 8.1333366e+1
-0.244, 3.9754940e-7, -3.0719139e-7, 8.1666702e+1
-0.245, 4.1563106e-7, -3.2118430e-7, 8.2000038e+1
-0.246, 4.3407883e-7, -3.3549637e-7, 8.2333374e+1
-0.247, 4.5279825e-7, -3.5067114e-7, 8.2666710e+1
-0.248, 4.7186015e-7, -3.6625954e-7, 8.3000046e+1
-0.249, 4.9140630e-7, -3.8217885e-7, 8.3333382e+1
-0.250, 5.1110595e-7, -3.9858276e-7, 8.3666718e+1
-0.251, 5.3108909e-7, -4.1528210e-7, 8.4000053e+1
-0.252, 5.5129658e-7, -4.3205233e-7, 8.4333389e+1
-0.253, 5.7146866e-7, -4.4927162e-7, 8.4666725e+1
-0.254, 5.9182969e-7, -4.6683374e-7, 8.5000061e+1
-0.255, 6.1222619e-7, -4.8449039e-7, 8.5333397e+1
-0.256, 6.3272893e-7, -5.0198150e-7, 8.5666733e+1
-0.257, 6.5310178e-7, -5.1950815e-7, 8.6000069e+1
-0.258, 6.7347463e-7, -5.3755480e-7, 8.6333405e+1
-0.259, 6.9398925e-7, -5.5571962e-7, 8.6666740e+1
-0.260, 7.1404321e-7, -5.7375439e-7, 8.7000076e+1
-0.261, 7.3416805e-7, -5.9176557e-7, 8.7333412e+1
-0.262, 7.5434019e-7, -6.0974133e-7, 8.7666748e+1
-0.263, 7.7396891e-7, -6.2759881e-7, 8.8000084e+1
-0.264, 7.9358597e-7, -6.4549181e-7, 8.8333420e+1
-0.265, 8.1271878e-7, -6.6333752e-7, 8.8666756e+1
-0.266, 8.3126093e-7, -6.8079328e-7, 8.9000092e+1
-0.267, 8.4983867e-7, -6.9876893e-7, 8.9333427e+1
-0.268, 8.6797934e-7, -7.1635469e-7, 8.9666763e+1
-0.269, 8.8560040e-7, -7.3332586e-7, 9.0000099e+1
-0.270, 9.0303246e-7, -7.4993062e-7, 9.0333435e+1
-0.271, 9.1985044e-7, -7.6633449e-7, 9.0666771e+1
-0.272, 9.3611328e-7, -7.8232478e-7, 9.1000107e+1
-0.273, 9.5225801e-7, -7.9818494e-7, 9.1333443e+1
-0.274, 9.6741076e-7, -8.1348975e-7, 9.1666779e+1
-0.275, 9.8249257e-7, -8.2858179e-7, 9.2000114e+1
-0.276, 9.9698389e-7, -8.4305930e-7, 9.2333450e+1
-0.277, 1.0110499e-6, -8.5727675e-7, 9.2666786e+1
-0.278, 1.0241949e-6, -8.7065519e-7, 9.3000122e+1
-0.279, 1.0370092e-6, -8.8419898e-7, 9.3333458e+1
-0.280, 1.0500005e-6, -8.9688007e-7, 9.3666794e+1
-0.281, 1.0624367e-6, -9.0928933e-7, 9.4000130e+1
-0.282, 1.0744125e-6, -9.2150952e-7, 9.4333466e+1
-0.283, 1.0861992e-6, -9.3333972e-7, 9.4666801e+1
-0.284, 1.0972656e-6, -9.4464986e-7, 9.5000137e+1
-0.285, 1.1081901e-6, -9.5586540e-7, 9.5333473e+1
-0.286, 1.1185950e-6, -9.6676195e-7, 9.5666809e+1
-0.287, 1.1285512e-6, -9.7715042e-7, 9.6000145e+1
-0.288, 1.1382710e-6, -9.8751502e-7, 9.6333481e+1
-0.289, 1.1477666e-6, -9.9707609e-7, 9.6666817e+1
-0.290, 1.1567425e-6, -1.0066253e-6, 9.7000153e+1
-0.291, 1.1651397e-6, -1.0160209e-6, 9.7333488e+1
-0.292, 1.1733832e-6, -1.0251919e-6, 9.7666824e+1
-0.293, 1.1810482e-6, -1.0340675e-6, 9.8000160e+1
-0.294, 1.1887366e-6, -1.0426357e-6, 9.8333496e+1
-0.295, 1.1961182e-6, -1.0506251e-6, 9.8666832e+1
-0.296, 1.2028737e-6, -1.0582834e-6, 9.9000168e+1
-0.297, 1.2086490e-6, -1.0662371e-6, 9.9333504e+1
-0.298, 1.2137156e-6, -1.0737418e-6, 9.9666840e+1
-0.299, 1.2192664e-6, -1.0807264e-6, 1.0000018e+2
-0.300, 1.2252780e-6, -1.0874629e-6, 1.0033351e+2
-0.301, 1.2311596e-6, -1.0939275e-6, 1.0066685e+2
-0.302, 1.2369583e-6, -1.1003094e-6, 1.0100018e+2
-0.303, 1.2425329e-6, -1.1065023e-6, 1.0133352e+2
-0.304, 1.2479420e-6, -1.1124469e-6, 1.0166685e+2
-0.305, 1.2532093e-6, -1.1183915e-6, 1.0200019e+2
-0.306, 1.2583943e-6, -1.1238634e-6, 1.0233353e+2
-0.307, 1.2633427e-6, -1.1290753e-6, 1.0266686e+2
-0.308, 1.2681732e-6, -1.1343463e-6, 1.0300020e+2
-0.309, 1.2729209e-6, -1.1396882e-6, 1.0333353e+2
-0.310, 1.2777158e-6, -1.1448410e-6, 1.0366687e+2
-0.311, 1.2820857e-6, -1.1500765e-6, 1.0400021e+2
-0.312, 1.2862903e-6, -1.1548865e-6, 1.0433354e+2
-0.313, 1.2902822e-6, -1.1595312e-6, 1.0466688e+2
-0.314, 1.2940496e-6, -1.1646249e-6, 1.0500021e+2
-0.315, 1.2977462e-6, -1.1691277e-6, 1.0533355e+2
-0.316, 1.3015139e-6, -1.1735123e-6, 1.0566689e+2
-0.317, 1.3052929e-6, -1.1779206e-6, 1.0600022e+2
-0.318, 1.3088127e-6, -1.1820097e-6, 1.0633356e+2
-0.319, 1.3122140e-6, -1.1860634e-6, 1.0666689e+2
-0.320, 1.3154972e-6, -1.1901643e-6, 1.0700023e+2
-0.321, 1.3189696e-6, -1.1940053e-6, 1.0733356e+2
-0.322, 1.3223354e-6, -1.1975864e-6, 1.0766690e+2
-0.323, 1.3256778e-6, -1.2010609e-6, 1.0800024e+2
-0.324, 1.3291028e-6, -1.2044410e-6, 1.0833357e+2
-0.325, 1.3325514e-6, -1.2077265e-6, 1.0866691e+2
-0.326, 1.3358111e-6, -1.2109292e-6, 1.0900024e+2
-0.327, 1.3389172e-6, -1.2142619e-6, 1.0933358e+2
-0.328, 1.3421060e-6, -1.2177129e-6, 1.0966692e+2
-0.329, 1.3452002e-6, -1.2211758e-6, 1.1000025e+2
-0.330, 1.3479757e-6, -1.2244849e-6, 1.1033359e+2
-0.331, 1.3507511e-6, -1.2278649e-6, 1.1066692e+2
-0.332, 1.3535620e-6, -1.2311505e-6, 1.1100026e+2
-0.333, 1.3561131e-6, -1.2344595e-6, 1.1133360e+2
-0.334, 1.3589001e-6, -1.2375915e-6, 1.1166693e+2
-0.335, 1.3618056e-6, -1.2404161e-6, 1.1200027e+2
-0.336, 1.3646164e-6, -1.2429924e-6, 1.1233360e+2
-0.337, 1.3676281e-6, -1.2456516e-6, 1.1266694e+2
-0.338, 1.3704154e-6, -1.2483580e-6, 1.1300027e+2
-0.339, 1.3732736e-6, -1.2510881e-6, 1.1333361e+2
-0.340, 1.3760134e-6, -1.2539126e-6, 1.1366695e+2
-0.341, 1.3786827e-6, -1.2566663e-6, 1.1400028e+2
-0.342, 1.3812928e-6, -1.2593490e-6, 1.1433362e+2
-0.343, 1.3839028e-6, -1.2619728e-6, 1.1466695e+2
-0.344, 1.3865720e-6, -1.2646791e-6, 1.1500029e+2
-0.345, 1.3894419e-6, -1.2673618e-6, 1.1533363e+2
-0.346, 1.3922410e-6, -1.2699027e-6, 1.1566696e+2
-0.347, 1.3949573e-6, -1.2723374e-6, 1.1600030e+2
-0.348, 1.3978862e-6, -1.2747128e-6, 1.1633363e+2
-0.349, 1.4005908e-6, -1.2774665e-6, 1.1666697e+2
-0.350, 1.4034134e-6, -1.2805748e-6, 1.1700031e+2
-0.351, 1.4060354e-6, -1.2833402e-6, 1.1733364e+2
-0.352, 1.4085157e-6, -1.2858812e-6, 1.1766698e+2
-0.353, 1.4109366e-6, -1.2884695e-6, 1.1800031e+2
-0.354, 1.4133695e-6, -1.2909042e-6, 1.1833365e+2
-0.355, 1.4158026e-6, -1.2933976e-6, 1.1866698e+2
-0.356, 1.4183416e-6, -1.2960924e-6, 1.1900032e+2
-0.357, 1.4207984e-6, -1.2987633e-6, 1.1933366e+2
-0.358, 1.4232194e-6, -1.3013159e-6, 1.1966699e+2
-0.359, 1.4256523e-6, -1.3038097e-6, 1.2000033e+2
-0.360, 1.4280499e-6, -1.3063152e-6, 1.2033366e+2
-0.361, 1.4304592e-6, -1.3089862e-6, 1.2066700e+2
-0.362, 1.4328095e-6, -1.3116926e-6, 1.2100034e+2
-0.363, 1.4352306e-6, -1.3141625e-6, 1.2133367e+2
-0.364, 1.4376399e-6, -1.3165144e-6, 1.2166701e+2
-0.365, 1.4400492e-6, -1.3188190e-6, 1.2200034e+2
-0.366, 1.4423522e-6, -1.3214308e-6, 1.2233368e+2
-0.367, 1.4445371e-6, -1.3240546e-6, 1.2266702e+2
-0.368, 1.4466159e-6, -1.3265956e-6, 1.2300035e+2
-0.369, 1.4487180e-6, -1.3290420e-6, 1.2333369e+2
-0.370, 1.4508084e-6, -1.3314411e-6, 1.2366702e+2
-0.371, 1.4528634e-6, -1.3337930e-6, 1.2400036e+2
-0.372, 1.4549775e-6, -1.3361446e-6, 1.2433369e+2
-0.373, 1.4569853e-6, -1.3384612e-6, 1.2466703e+2
-0.374, 1.4589693e-6, -1.3408012e-6, 1.2500037e+2
-0.375, 1.4610835e-6, -1.3430703e-6, 1.2533370e+2
-0.376, 1.4631975e-6, -1.3452094e-6, 1.2566704e+2
-0.377, 1.4652996e-6, -1.3474549e-6, 1.2600037e+2
-0.378, 1.4675319e-6, -1.3497121e-6, 1.2633371e+2
-0.379, 1.4696814e-6, -1.3518041e-6, 1.2666705e+2
-0.380, 1.4718898e-6, -1.3537777e-6, 1.2700038e+2
-0.381, 1.4741456e-6, -1.3556213e-6, 1.2733372e+2
-0.382, 1.4766259e-6, -1.3574059e-6, 1.2766705e+2
-0.383, 1.4791651e-6, -1.3594150e-6, 1.2800038e+2
-0.384, 1.4817280e-6, -1.3615305e-6, 1.2833371e+2
-0.385, 1.4843025e-6, -1.3635514e-6, 1.2866704e+2
-0.386, 1.4868654e-6, -1.3656670e-6, 1.2900037e+2
-0.387, 1.4895464e-6, -1.3677824e-6, 1.2933369e+2
-0.388, 1.4921919e-6, -1.3699570e-6, 1.2966702e+2
-0.389, 1.4946602e-6, -1.3721079e-6, 1.3000035e+2
-0.390, 1.4971523e-6, -1.3742235e-6, 1.3033368e+2
-0.391, 1.4996914e-6, -1.3762916e-6, 1.3066701e+2
-0.392, 1.5021952e-6, -1.3784779e-6, 1.3100034e+2
-0.393, 1.5046284e-6, -1.3807826e-6, 1.3133366e+2
-0.394, 1.5068958e-6, -1.3831464e-6, 1.3166699e+2
-0.395, 1.5091634e-6, -1.3854154e-6, 1.3200032e+2
-0.396, 1.5114665e-6, -1.3877317e-6, 1.3233365e+2
-0.397, 1.5134978e-6, -1.3900955e-6, 1.3266698e+2
-0.398, 1.5155881e-6, -1.3925182e-6, 1.3300031e+2
-0.399, 1.5177495e-6, -1.3948584e-6, 1.3333363e+2
