Jan. 28, 2006   05:17:44
Square Wave Voltammetry
File: z:\users\scottsaunders\git\labwork\ida\01_17_19_psoralen_nonequil_2\data\psoralen\5\75um_psoralen_soak_5_swvslow_1.txt
Data Source:  Experiment
Instrument Model:  CHI760E
Header: 
Note: 

Init E (V) = -0.1
Final E (V) = -0.4
Incr E (V) = 0.001
Amplitude (V) = 0.025
Frequency (Hz) = 15
Quiet Time (sec) = 2
Sensitivity (A/V) = 1e-5
Sens 2 (A/V) = 1e-5

Potential/V, i1/A, i2/A

-0.101, 1.8675709e-7, 1.9408591e-7
-0.102, 2.1418074e-7, 2.3287987e-7
-0.103, 2.1445237e-7, 2.3309235e-7
-0.104, 2.1413349e-7, 2.3304523e-7
-0.105, 2.1397996e-7, 2.3266719e-7
-0.106, 2.1403902e-7, 2.3258430e-7
-0.107, 2.1429884e-7, 2.3287959e-7
-0.108, 2.1441694e-7, 2.3311563e-7
-0.109, 2.1491297e-7, 2.3320993e-7
-0.110, 2.1509013e-7, 2.3344595e-7
-0.111, 2.1529090e-7, 2.3374105e-7
-0.112, 2.1608220e-7, 2.3430775e-7
-0.113, 2.1648374e-7, 2.3433111e-7
-0.114, 2.1742858e-7, 2.3541767e-7
-0.115, 2.1774747e-7, 2.3607888e-7
-0.116, 2.1859782e-7, 2.3623218e-7
-0.117, 2.1956626e-7, 2.3711803e-7
-0.118, 2.2026308e-7, 2.3828719e-7
-0.119, 2.2145591e-7, 2.3929107e-7
-0.120, 2.2253067e-7, 2.4004677e-7
-0.121, 2.2379436e-7, 2.4141690e-7
-0.122, 2.2489272e-7, 2.4252711e-7
-0.123, 2.2626273e-7, 2.4364917e-7
-0.124, 2.2756186e-7, 2.4486553e-7
-0.125, 2.2936885e-7, 2.4666096e-7
-0.126, 2.3083334e-7, 2.4840904e-7
-0.127, 2.3251040e-7, 2.4977919e-7
-0.128, 2.3458902e-7, 2.5177548e-7
-0.129, 2.3634877e-7, 2.5352352e-7
-0.130, 2.3880531e-7, 2.5590955e-7
-0.131, 2.4084852e-7, 2.5766946e-7
-0.132, 2.4325783e-7, 2.6019737e-7
-0.133, 2.4570255e-7, 2.6279599e-7
-0.134, 2.4854887e-7, 2.6534750e-7
-0.135, 2.5161955e-7, 2.6819419e-7
-0.136, 2.5465479e-7, 2.7143085e-7
-0.137, 2.5772550e-7, 2.7482093e-7
-0.138, 2.6149300e-7, 2.7828196e-7
-0.139, 2.6527232e-7, 2.8196760e-7
-0.140, 2.6892172e-7, 2.8597213e-7
-0.141, 2.7339786e-7, 2.9039006e-7
-0.142, 2.7788576e-7, 2.9448898e-7
-0.143, 2.8237369e-7, 2.9932053e-7
-0.144, 2.8746396e-7, 3.0489608e-7
-0.145, 2.9289674e-7, 3.0991646e-7
-0.146, 2.9886098e-7, 3.1574024e-7
-0.147, 3.0450633e-7, 3.2187120e-7
-0.148, 3.1094294e-7, 3.2822646e-7
-0.149, 3.1798191e-7, 3.3493603e-7
-0.150, 3.2503272e-7, 3.4241378e-7
-0.151, 3.3234329e-7, 3.4997402e-7
-0.152, 3.4092943e-7, 3.5842027e-7
-0.153, 3.4929118e-7, 3.6666569e-7
-0.154, 3.5845599e-7, 3.7589155e-7
-0.155, 3.6823496e-7, 3.8600342e-7
-0.156, 3.7839186e-7, 3.9600900e-7
-0.157, 3.8928101e-7, 4.0704231e-7
-0.158, 4.0044179e-7, 4.1850097e-7
-0.159, 4.1247654e-7, 4.3045571e-7
-0.160, 4.2499551e-7, 4.4296564e-7
-0.161, 4.3831761e-7, 4.5652700e-7
-0.162, 4.5239554e-7, 4.7077339e-7
-0.163, 4.6720572e-7, 4.8535054e-7
-0.164, 4.8258278e-7, 5.0113272e-7
-0.165, 4.9921175e-7, 5.1790710e-7
-0.166, 5.1611232e-7, 5.3498871e-7
-0.167, 5.3415863e-7, 5.5301535e-7
-0.168, 5.5293708e-7, 5.7229414e-7
-0.169, 5.7275480e-7, 5.9235265e-7
-0.170, 5.9369461e-7, 6.1319076e-7
-0.171, 6.1500043e-7, 6.3472589e-7
-0.172, 6.3782988e-7, 6.5789106e-7
-0.173, 6.6150960e-7, 6.8148154e-7
-0.174, 6.8590981e-7, 7.0624156e-7
-0.175, 7.1149105e-7, 7.3245462e-7
-0.176, 7.3804068e-7, 7.5922287e-7
-0.177, 7.6557069e-7, 7.8710156e-7
-0.178, 7.9409261e-7, 8.1612603e-7
-0.179, 8.2333509e-7, 8.4555222e-7
-0.180, 8.5352235e-7, 8.7628956e-7
-0.181, 8.8536308e-7, 9.0863369e-7
-0.182, 9.1714469e-7, 9.4097754e-7
-0.183, 9.5006021e-7, 9.7438476e-7
-0.184, 9.8440455e-7, 1.0095167e-6
-0.185, 1.0188319e-6, 1.0449322e-6
-0.186, 1.0552430e-6, 1.0817770e-6
-0.187, 1.0915836e-6, 1.1185630e-6
-0.188, 1.1289279e-6, 1.1567309e-6
-0.189, 1.1676541e-6, 1.1960449e-6
-0.190, 1.2060732e-6, 1.2350753e-6
-0.191, 1.2451653e-6, 1.2752632e-6
-0.192, 1.2856867e-6, 1.3164204e-6
-0.193, 1.3261844e-6, 1.3571637e-6
-0.194, 1.3673907e-6, 1.3991475e-6
-0.195, 1.4083137e-6, 1.4410489e-6
-0.196, 1.4493783e-6, 1.4823240e-6
-0.197, 1.4915174e-6, 1.5253950e-6
-0.198, 1.5327357e-6, 1.5674382e-6
-0.199, 1.5741782e-6, 1.6094458e-6
-0.200, 1.6155855e-6, 1.6515719e-6
-0.201, 1.6566618e-6, 1.6936035e-6
-0.202, 1.6978090e-6, 1.7351035e-6
-0.203, 1.7379642e-6, 1.7762140e-6
-0.204, 1.7774935e-6, 1.8167219e-6
-0.205, 1.8168691e-6, 1.8562613e-6
-0.206, 1.8551110e-6, 1.8951156e-6
-0.207, 1.8925498e-6, 1.9333320e-6
-0.208, 1.9293273e-6, 1.9703079e-6
-0.209, 1.9650183e-6, 2.0067998e-6
-0.210, 1.9996696e-6, 2.0421694e-6
-0.211, 2.0326916e-6, 2.0753064e-6
-0.212, 2.0644377e-6, 2.1075809e-6
-0.213, 2.0955345e-6, 2.1392530e-6
-0.214, 2.1240210e-6, 2.1678893e-6
-0.215, 2.1516219e-6, 2.1956866e-6
-0.216, 2.1770495e-6, 2.2217237e-6
-0.217, 2.2003983e-6, 2.2452214e-6
-0.218, 2.2226138e-6, 2.2679153e-6
-0.219, 2.2424315e-6, 2.2878448e-6
-0.220, 2.2601707e-6, 2.3051757e-6
-0.221, 2.2763390e-6, 2.3215966e-6
-0.222, 2.2899565e-6, 2.3354187e-6
-0.223, 2.3012353e-6, 2.3462517e-6
-0.224, 2.3109080e-6, 2.3560335e-6
-0.225, 2.3179234e-6, 2.3631926e-6
-0.226, 2.3230371e-6, 2.3676935e-6
-0.227, 2.3250921e-6, 2.3695950e-6
-0.228, 2.3248206e-6, 2.3697132e-6
-0.229, 2.3230962e-6, 2.3671846e-6
-0.230, 2.3177463e-6, 2.3616790e-6
-0.231, 2.3104001e-6, 2.3544249e-6
-0.232, 2.3007628e-6, 2.3441344e-6
-0.233, 2.2888935e-6, 2.3319421e-6
-0.234, 2.2746974e-6, 2.3175521e-6
-0.235, 2.2581510e-6, 2.3004445e-6
-0.236, 2.2392428e-6, 2.2810218e-6
-0.237, 2.2182085e-6, 2.2601930e-6
-0.238, 2.1952492e-6, 2.2364225e-6
-0.239, 2.1700696e-6, 2.2107140e-6
-0.240, 2.1428821e-6, 2.1831627e-6
-0.241, 2.1144429e-6, 2.1541230e-6
-0.242, 2.0843736e-6, 2.1231808e-6
-0.243, 2.0512457e-6, 2.0900413e-6
-0.244, 2.0174443e-6, 2.0554248e-6
-0.245, 1.9825920e-6, 2.0198163e-6
-0.246, 1.9450940e-6, 1.9823760e-6
-0.247, 1.9073010e-6, 1.9438492e-6
-0.248, 1.8683268e-6, 1.9042232e-6
-0.249, 1.8278528e-6, 1.8636999e-6
-0.250, 1.7869299e-6, 1.8221128e-6
-0.251, 1.7453103e-6, 1.7799470e-6
-0.252, 1.7028520e-6, 1.7372497e-6
-0.253, 1.6608190e-6, 1.6947531e-6
-0.254, 1.6174395e-6, 1.6508269e-6
-0.255, 1.5740366e-6, 1.6074208e-6
-0.256, 1.5306216e-6, 1.5632347e-6
-0.257, 1.4874430e-6, 1.5195687e-6
-0.258, 1.4446540e-6, 1.4765764e-6
-0.259, 1.4016762e-6, 1.4334063e-6
-0.260, 1.3590054e-6, 1.3902604e-6
-0.261, 1.3177400e-6, 1.3485322e-6
-0.262, 1.2759433e-6, 1.3064612e-6
-0.263, 1.2349967e-6, 1.2651824e-6
-0.264, 1.1946526e-6, 1.2247535e-6
-0.265, 1.1549580e-6, 1.1853886e-6
-0.266, 1.1165388e-6, 1.1464724e-6
-0.267, 1.0785213e-6, 1.1084069e-6
-0.268, 1.0415431e-6, 1.0715585e-6
-0.269, 1.0059231e-6, 1.0355604e-6
-0.270, 9.7099996e-7, 1.0007560e-6
-0.271, 9.3706876e-7, 9.6723932e-7
-0.272, 9.0411783e-7, 9.3376991e-7
-0.273, 8.7302118e-7, 9.0281708e-7
-0.274, 8.4245602e-7, 8.7246673e-7
-0.275, 8.1307189e-7, 8.4291975e-7
-0.276, 7.8472709e-7, 8.1468448e-7
-0.277, 7.5752780e-7, 7.8791390e-7
-0.278, 7.3135612e-7, 7.6171057e-7
-0.279, 7.0667249e-7, 7.3719690e-7
-0.280, 6.8244941e-7, 7.1320278e-7
-0.281, 6.5952548e-7, 6.9047297e-7
-0.282, 6.3808972e-7, 6.6879477e-7
-0.283, 6.1699643e-7, 6.4828600e-7
-0.284, 5.9683617e-7, 6.2819095e-7
-0.285, 5.7804584e-7, 6.0938368e-7
-0.286, 5.5971623e-7, 5.9159225e-7
-0.287, 5.4246124e-7, 5.7443896e-7
-0.288, 5.2604491e-7, 5.5813615e-7
-0.289, 5.1040797e-7, 5.4295595e-7
-0.290, 4.9588124e-7, 5.2836629e-7
-0.291, 4.8156710e-7, 5.1400127e-7
-0.292, 4.6841038e-7, 5.0125459e-7
-0.293, 4.5603312e-7, 4.8895697e-7
-0.294, 4.4380943e-7, 4.7676571e-7
-0.295, 4.3250688e-7, 4.6585041e-7
-0.296, 4.2179491e-7, 4.5560836e-7
-0.297, 4.1163801e-7, 4.4513018e-7
-0.298, 4.0214249e-7, 4.3578612e-7
-0.299, 3.9267059e-7, 4.2686739e-7
-0.300, 3.8449781e-7, 4.1862202e-7
-0.301, 3.7627782e-7, 4.1053019e-7
-0.302, 3.6836488e-7, 4.0300552e-7
-0.303, 3.6116057e-7, 3.9602412e-7
-0.304, 3.5442866e-7, 3.8910190e-7
-0.305, 3.4821642e-7, 3.8294775e-7
-0.306, 3.4182702e-7, 3.7694693e-7
-0.307, 3.3608723e-7, 3.7137147e-7
-0.308, 3.3070171e-7, 3.6566593e-7
-0.309, 3.2574130e-7, 3.6081116e-7
-0.310, 3.2080462e-7, 3.5636970e-7
-0.311, 3.1634025e-7, 3.5178675e-7
-0.312, 3.1224207e-7, 3.4762886e-7
-0.313, 3.0821477e-7, 3.4373087e-7
-0.314, 3.0423467e-7, 3.4021096e-7
-0.315, 3.0077422e-7, 3.3646654e-7
-0.316, 2.9771533e-7, 3.3333663e-7
-0.317, 2.9449117e-7, 3.3059638e-7
-0.318, 2.9162123e-7, 3.2780883e-7
-0.319, 2.8885759e-7, 3.2467875e-7
-0.320, 2.8635378e-7, 3.2248195e-7
-0.321, 2.8393265e-7, 3.2014356e-7
-0.322, 2.8190129e-7, 3.1819474e-7
-0.323, 2.7966917e-7, 3.1579702e-7
-0.324, 2.7783852e-7, 3.1397832e-7
-0.325, 2.7590164e-7, 3.1238403e-7
-0.326, 2.7442536e-7, 3.1106134e-7
-0.327, 2.7264198e-7, 3.0905341e-7
-0.328, 2.7136650e-7, 3.0783718e-7
-0.329, 2.6986655e-7, 3.0664447e-7
-0.330, 2.6886264e-7, 3.0561714e-7
-0.331, 2.6751627e-7, 3.0392823e-7
-0.332, 2.6663048e-7, 3.0337347e-7
-0.333, 2.6568569e-7, 3.0273600e-7
-0.334, 2.6500069e-7, 3.0186226e-7
-0.335, 2.6405581e-7, 3.0030330e-7
-0.336, 2.6354803e-7, 3.0013831e-7
-0.337, 2.6273307e-7, 2.9967799e-7
-0.338, 2.6241420e-7, 2.9917038e-7
-0.339, 2.6196540e-7, 2.9835559e-7
-0.340, 2.6154024e-7, 2.9813160e-7
-0.341, 2.6120955e-7, 2.9825003e-7
-0.342, 2.6104419e-7, 2.9771886e-7
-0.343, 2.6086707e-7, 2.9743563e-7
-0.344, 2.6071348e-7, 2.9764877e-7
-0.345, 2.6034741e-7, 2.9741275e-7
-0.346, 2.6051276e-7, 2.9728312e-7
-0.347, 2.6031196e-7, 2.9696457e-7
-0.348, 2.6043008e-7, 2.9727204e-7
-0.349, 2.6040647e-7, 2.9721326e-7
-0.350, 2.6043011e-7, 2.9705996e-7
-0.351, 2.6052456e-7, 2.9716668e-7
-0.352, 2.6051271e-7, 2.9756876e-7
-0.353, 2.6076077e-7, 2.9730907e-7
-0.354, 2.6086707e-7, 2.9719124e-7
-0.355, 2.6107966e-7, 2.9768771e-7
-0.356, 2.6109146e-7, 2.9786523e-7
-0.357, 2.6139850e-7, 2.9781830e-7
-0.358, 2.6148118e-7, 2.9790127e-7
-0.359, 2.6164656e-7, 2.9812611e-7
-0.360, 2.6164656e-7, 2.9826802e-7
-0.361, 2.6209534e-7, 2.9861096e-7
-0.362, 2.6233153e-7, 2.9878848e-7
-0.363, 2.6223705e-7, 2.9885962e-7
-0.364, 2.6248509e-7, 2.9923794e-7
-0.365, 2.6246141e-7, 2.9881289e-7
-0.366, 2.6267404e-7, 2.9906118e-7
-0.367, 2.6282760e-7, 2.9934515e-7
-0.368, 2.6283936e-7, 2.9925081e-7
-0.369, 2.6301655e-7, 2.9906190e-7
-0.370, 2.6332361e-7, 2.9945201e-7
-0.371, 2.6300475e-7, 2.9949950e-7
-0.372, 2.6317008e-7, 2.9914531e-7
-0.373, 2.6306378e-7, 2.9911013e-7
-0.374, 2.6296931e-7, 2.9926389e-7
-0.375, 2.6295749e-7, 2.9903956e-7
-0.376, 2.6281577e-7, 2.9853166e-7
-0.377, 2.6274489e-7, 2.9872095e-7
-0.378, 2.6266224e-7, 2.9869739e-7
-0.379, 2.6261500e-7, 2.9856773e-7
-0.380, 2.6253230e-7, 2.9815436e-7
-0.381, 2.6242600e-7, 2.9810735e-7
-0.382, 2.6217802e-7, 2.9782385e-7
-0.383, 2.6165836e-7, 2.9705598e-7
-0.384, 2.6145761e-7, 2.9700902e-7
-0.385, 2.6133944e-7, 2.9702090e-7
-0.386, 2.6142214e-7, 2.9673754e-7
-0.387, 2.6067812e-7, 2.9592243e-7
-0.388, 2.6053635e-7, 2.9587531e-7
-0.389, 2.6020570e-7, 2.9574545e-7
-0.390, 2.5983957e-7, 2.9513114e-7
-0.391, 2.5948526e-7, 2.9457601e-7
-0.392, 2.5906007e-7, 2.9423350e-7
-0.393, 2.5874118e-7, 2.9406812e-7
-0.394, 2.5844594e-7, 2.9350105e-7
-0.395, 2.5776095e-7, 2.9283970e-7
-0.396, 2.5725308e-7, 2.9249705e-7
-0.397, 2.5707595e-7, 2.9250890e-7
-0.398, 2.5656809e-7, 2.9159924e-7
-0.399, 2.5640276e-7, 2.9107954e-7
-0.400, 2.5568232e-7, 2.9072524e-7
