Dec. 15, 2005   04:41:13
Cyclic Voltammetry
File: d:\ida_biofilms\12_04_18_psoralenbiofilm\control\control_100um_pyo_transfer_gc.txt
Data Source:  Experiment
Instrument Model:  CHI760B
Header: 
Note: 

Init E (V) = 0.1
High E (V) = 0.1
Low E (V) = -0.5
Init P/N = N
Scan Rate (V/s) = 0.003
Segment = 2
Sample Interval (V) = 0.001
Quiet Time (sec) = 2
Sensitivity (A/V) = 1e-7
2nd E (V) = 0.1
Sens 2 (A/V) = 1e-7

Potential/V, i1/A, i2/A, Time/s

0.100, -7.6174757e-8, -7.4104726e-8, 3.3333334e-1
0.099, -6.9127161e-8, -6.9108282e-8, 6.6666669e-1
0.098, -6.3425006e-8, -6.4788082e-8, 1.0000000e+0
0.097, -5.8529611e-8, -6.0937658e-8, 1.3333334e+0
0.096, -5.4293128e-8, -5.7496273e-8, 1.6666667e+0
0.095, -5.0603216e-8, -5.4406357e-8, 2.0000000e+0
0.094, -4.7373437e-8, -5.1625264e-8, 2.3333333e+0
0.093, -4.4490292e-8, -4.9137384e-8, 2.6666665e+0
0.092, -4.1908553e-8, -4.6880075e-8, 2.9999998e+0
0.091, -3.9597147e-8, -4.4825931e-8, 3.3333330e+0
0.090, -3.7489354e-8, -4.2967372e-8, 3.6666663e+0
0.089, -3.5580094e-8, -4.1269551e-8, 3.9999995e+0
0.088, -3.3839367e-8, -3.9722170e-8, 4.3333330e+0
0.087, -3.2214025e-8, -3.8294985e-8, 4.6666665e+0
0.086, -3.0721193e-8, -3.6986698e-8, 5.0000000e+0
0.085, -2.9319189e-8, -3.5784179e-8, 5.3333335e+0
0.084, -2.8020287e-8, -3.4674198e-8, 5.6666670e+0
0.083, -2.6815158e-8, -3.3644586e-8, 6.0000005e+0
0.082, -2.5690458e-8, -3.2694739e-8, 6.3333340e+0
0.081, -2.4632486e-8, -3.1803282e-8, 6.6666675e+0
0.080, -2.3635220e-8, -3.0963236e-8, 7.0000010e+0
0.079, -2.2679053e-8, -3.0172352e-8, 7.3333344e+0
0.078, -2.1788317e-8, -2.9429094e-8, 7.6666679e+0
0.077, -2.0946239e-8, -2.8726136e-8, 8.0000010e+0
0.076, -2.0132505e-8, -2.8061944e-8, 8.3333340e+0
0.075, -1.9385382e-8, -2.7433092e-8, 8.6666670e+0
0.074, -1.8669557e-8, -2.6835913e-8, 9.0000000e+0
0.073, -1.7964835e-8, -2.6267330e-8, 9.3333330e+0
0.072, -1.7307469e-8, -2.5725928e-8, 9.6666660e+0
0.071, -1.6667467e-8, -2.5211477e-8, 9.9999990e+0
0.070, -1.6069272e-8, -2.4717469e-8, 1.0333332e+1
0.069, -1.5485250e-8, -2.4249935e-8, 1.0666665e+1
0.068, -1.4928037e-8, -2.3802020e-8, 1.0999998e+1
0.067, -1.4411807e-8, -2.3370411e-8, 1.1333331e+1
0.066, -1.3895813e-8, -2.2960080e-8, 1.1666664e+1
0.065, -1.3407809e-8, -2.2555774e-8, 1.1999997e+1
0.064, -1.2946143e-8, -2.2176168e-8, 1.2333330e+1
0.063, -1.2487311e-8, -2.1809683e-8, 1.2666663e+1
0.062, -1.2056114e-8, -2.1453948e-8, 1.2999996e+1
0.061, -1.1635784e-8, -2.1112871e-8, 1.3333329e+1
0.060, -1.1227500e-8, -2.0788219e-8, 1.3666662e+1
0.059, -1.0839885e-8, -2.0467706e-8, 1.3999995e+1
0.058, -1.0457583e-8, -2.0161021e-8, 1.4333328e+1
0.057, -1.0095241e-8, -1.9864025e-8, 1.4666661e+1
0.056, -9.7464818e-9, -1.9573175e-8, 1.4999994e+1
0.055, -9.4066976e-9, -1.9295918e-8, 1.5333327e+1
0.054, -9.0881729e-9, -1.9023030e-8, 1.5666660e+1
0.053, -8.7666949e-9, -1.8774372e-8, 1.5999993e+1
0.052, -8.4567917e-9, -1.8525006e-8, 1.6333326e+1
0.051, -8.1624769e-9, -1.8277646e-8, 1.6666660e+1
0.050, -7.8730054e-9, -1.8038090e-8, 1.6999994e+1
0.049, -7.5942808e-9, -1.7804322e-8, 1.7333328e+1
0.048, -7.3290209e-9, -1.7578946e-8, 1.7666662e+1
0.047, -7.0634059e-9, -1.7360188e-8, 1.7999996e+1
0.046, -6.8152706e-9, -1.7148993e-8, 1.8333330e+1
0.045, -6.5645369e-9, -1.6941346e-8, 1.8666664e+1
0.044, -6.3236052e-9, -1.6744924e-8, 1.8999998e+1
0.043, -6.0977916e-9, -1.6547203e-8, 1.9333332e+1
0.042, -5.8687890e-9, -1.6354681e-8, 1.9666666e+1
0.041, -5.6495888e-9, -1.6170553e-8, 2.0000000e+1
0.040, -5.4443250e-9, -1.5988315e-8, 2.0333334e+1
0.039, -5.2305578e-9, -1.5811867e-8, 2.0666668e+1
0.038, -5.0359228e-9, -1.5637664e-8, 2.1000002e+1
0.037, -4.8317217e-9, -1.5465705e-8, 2.1333336e+1
0.036, -4.6376778e-9, -1.5303677e-8, 2.1666670e+1
0.035, -4.4613491e-9, -1.5141410e-8, 2.2000004e+1
0.034, -4.2778159e-9, -1.4985762e-8, 2.2333338e+1
0.033, -4.0985348e-9, -1.4826334e-8, 2.2666672e+1
0.032, -3.9255137e-9, -1.4675531e-8, 2.3000006e+1
0.031, -3.7497752e-9, -1.4526856e-8, 2.3333340e+1
0.030, -3.6037997e-9, -1.4378891e-8, 2.3666674e+1
0.029, -3.4494378e-9, -1.4237070e-8, 2.4000008e+1
0.028, -3.2869276e-9, -1.4098677e-8, 2.4333342e+1
0.027, -3.1384715e-9, -1.3964775e-8, 2.4666676e+1
0.026, -2.9861180e-9, -1.3837254e-8, 2.5000010e+1
0.025, -2.8428584e-9, -1.3712925e-8, 2.5333344e+1
0.024, -2.7023153e-9, -1.3591552e-8, 2.5666677e+1
0.023, -2.5564575e-9, -1.3470058e-8, 2.6000011e+1
0.022, -2.4238269e-9, -1.3345729e-8, 2.6333345e+1
0.021, -2.2863544e-9, -1.3224827e-8, 2.6666679e+1
0.020, -2.1544329e-9, -1.3116336e-8, 2.7000013e+1
0.019, -2.0222750e-9, -1.2994016e-8, 2.7333347e+1
0.018, -1.8951958e-9, -1.2887649e-8, 2.7666681e+1
0.017, -1.7702422e-9, -1.2779866e-8, 2.8000015e+1
0.016, -1.6511937e-9, -1.2668893e-8, 2.8333349e+1
0.015, -1.5297834e-9, -1.2562527e-8, 2.8666683e+1
0.014, -1.4185298e-9, -1.2461125e-8, 2.9000017e+1
0.013, -1.3044419e-9, -1.2365987e-8, 2.9333351e+1
0.012, -1.1889366e-9, -1.2270140e-8, 2.9666685e+1
0.011, -1.0818166e-9, -1.2176658e-8, 3.0000019e+1
0.010, -9.6985453e-10, -1.2082937e-8, 3.0333353e+1
0.009, -8.6249852e-10, -1.1990755e-8, 3.0666687e+1
0.008, -7.5644152e-10, -1.1898926e-8, 3.1000021e+1
0.007, -6.4589661e-10, -1.1808988e-8, 3.1333355e+1
0.006, -5.4905175e-10, -1.1717987e-8, 3.1666689e+1
0.005, -4.4405768e-10, -1.1631359e-8, 3.2000023e+1
0.004, -3.3918177e-10, -1.1544848e-8, 3.2333355e+1
0.003, -2.5024979e-10, -1.1459875e-8, 3.2666687e+1
0.002, -1.4667301e-10, -1.1373127e-8, 3.3000019e+1
0.001, -4.8765186e-11, -1.1293826e-8, 3.3333351e+1
-0.000, 7.0165061e-11, -1.1211807e-8, 3.3666683e+1
-0.001, 1.6311254e-10, -1.1130141e-8, 3.4000015e+1
-0.002, 2.4035224e-10, -1.1054387e-8, 3.4333347e+1
-0.003, 3.4085834e-10, -1.0966340e-8, 3.4666679e+1
-0.004, 4.2837306e-10, -1.0892120e-8, 3.5000011e+1
-0.005, 5.1624205e-10, -1.0819083e-8, 3.5333344e+1
-0.006, 6.2891281e-10, -1.0715436e-8, 3.5666676e+1
-0.007, 6.7969741e-10, -1.0699717e-8, 3.6000008e+1
-0.008, 7.8232931e-10, -1.0597843e-8, 3.6333340e+1
-0.009, 8.6216723e-10, -1.0540997e-8, 3.6666672e+1
-0.010, 9.4235963e-10, -1.0474814e-8, 3.7000004e+1
-0.011, 1.0298743e-9, -1.0397522e-8, 3.7333336e+1
-0.012, 1.1138459e-9, -1.0338312e-8, 3.7666668e+1
-0.013, 1.1925029e-9, -1.0258184e-8, 3.8000000e+1
-0.014, 1.2741125e-9, -1.0200274e-8, 3.8333332e+1
-0.015, 1.3624538e-9, -1.0123337e-8, 3.8666664e+1
-0.016, 1.4318987e-9, -1.0069208e-8, 3.8999996e+1
-0.017, 1.5243737e-9, -9.9994795e-9, 3.9333328e+1
-0.018, 1.5866144e-9, -9.9461790e-9, 3.9666660e+1
-0.019, 1.6544057e-9, -9.9167510e-9, 3.9999992e+1
-0.020, 1.7265670e-9, -9.8647508e-9, 4.0333324e+1
-0.021, 1.7977834e-9, -9.7932489e-9, 4.0666656e+1
-0.022, 1.8822273e-9, -9.7178487e-9, 4.0999989e+1
-0.023, 1.9574593e-9, -9.6535562e-9, 4.1333321e+1
-0.024, 2.0189914e-9, -9.6113650e-9, 4.1666653e+1
-0.025, 2.1020181e-9, -9.5445918e-9, 4.1999985e+1
-0.026, 2.1643767e-9, -9.4847907e-9, 4.2333317e+1
-0.027, 2.2288611e-9, -9.4323171e-9, 4.2666649e+1
-0.028, 2.3000777e-9, -9.3791348e-9, 4.2999981e+1
-0.029, 2.3555864e-9, -9.3227603e-9, 4.3333313e+1
-0.030, 2.4255038e-9, -9.2733599e-9, 4.3666645e+1
-0.031, 2.4886890e-9, -9.2245509e-9, 4.3999977e+1
-0.032, 2.5582521e-9, -9.1649852e-9, 4.4333309e+1
-0.033, 2.6356097e-9, -9.0913570e-9, 4.4666641e+1
-0.034, 2.6796625e-9, -9.0641752e-9, 4.4999973e+1
-0.035, 2.7532410e-9, -8.9919654e-9, 4.5333305e+1
-0.036, 2.7873728e-9, -8.9867642e-9, 4.5666637e+1
-0.037, 2.8455978e-9, -8.9532008e-9, 4.5999969e+1
-0.038, 2.8929574e-9, -8.9133723e-9, 4.6333302e+1
-0.039, 2.9568514e-9, -8.8637355e-9, 4.6666634e+1
-0.040, 3.0032661e-9, -8.8230809e-9, 4.6999966e+1
-0.041, 3.0689316e-9, -8.7742711e-9, 4.7333298e+1
-0.042, 3.1286918e-9, -8.7090335e-9, 4.7666630e+1
-0.043, 3.1790044e-9, -8.6699146e-9, 4.7999962e+1
-0.044, 3.2492757e-9, -8.6010132e-9, 4.8333294e+1
-0.045, 3.2838798e-9, -8.5732408e-9, 4.8666626e+1
-0.046, 3.3545058e-9, -8.5054035e-9, 4.8999958e+1
-0.047, 3.3438770e-9, -8.5693408e-9, 4.9333290e+1
-0.048, 3.4171008e-9, -8.4960670e-9, 4.9666622e+1
-0.049, 3.4713101e-9, -8.4417024e-9, 4.9999954e+1
-0.050, 3.5158356e-9, -8.3958467e-9, 5.0333286e+1
-0.051, 3.5674468e-9, -8.3507006e-9, 5.0666618e+1
-0.052, 3.6176406e-9, -8.3066185e-9, 5.0999950e+1
-0.053, 3.6562604e-9, -8.2651361e-9, 5.1333282e+1
-0.054, 3.7004311e-9, -8.2261353e-9, 5.1666615e+1
-0.055, 3.7447205e-9, -8.1832354e-9, 5.1999947e+1
-0.056, 3.7803871e-9, -8.1452978e-9, 5.2333279e+1
-0.057, 3.8236134e-9, -8.1114973e-9, 5.2666611e+1
-0.058, 3.8584536e-9, -8.0739149e-9, 5.2999943e+1
-0.059, 3.9013250e-9, -8.0340881e-9, 5.3333275e+1
-0.060, 3.9449057e-9, -7.9959142e-9, 5.3666607e+1
-0.061, 3.9770298e-9, -7.9604590e-9, 5.3999939e+1
-0.062, 4.0156496e-9, -7.9213400e-9, 5.4333271e+1
-0.063, 4.0539150e-9, -7.8860030e-9, 5.4666603e+1
-0.064, 4.0862749e-9, -7.8518481e-9, 5.4999935e+1
-0.065, 4.1244230e-9, -7.8154478e-9, 5.5333267e+1
-0.066, 4.1639878e-9, -7.7666371e-9, 5.5666599e+1
-0.067, 4.1883168e-9, -7.7466655e-9, 5.5999931e+1
-0.068, 4.2310706e-9, -7.7125097e-9, 5.6333263e+1
-0.069, 4.2557540e-9, -7.6735098e-9, 5.6666595e+1
-0.070, 4.2817367e-9, -7.6615718e-9, 5.6999928e+1
-0.071, 4.3249631e-9, -7.6144175e-9, 5.7333260e+1
-0.072, 4.3577955e-9, -7.5808533e-9, 5.7666592e+1
-0.073, 4.3913371e-9, -7.5502431e-9, 5.7999924e+1
-0.074, 4.4129500e-9, -7.5197528e-9, 5.8333256e+1
-0.075, 4.4461368e-9, -7.4905611e-9, 5.8666588e+1
-0.076, 4.4814499e-9, -7.4582971e-9, 5.8999920e+1
-0.077, 4.5012913e-9, -7.4282780e-9, 5.9333252e+1
-0.078, 4.5306989e-9, -7.3961326e-9, 5.9666584e+1
-0.079, 4.5598707e-9, -7.3667050e-9, 5.9999916e+1
-0.080, 4.5829007e-9, -7.3355042e-9, 6.0333248e+1
-0.081, 4.6154978e-9, -7.3056041e-9, 6.0666580e+1
-0.082, 4.6401811e-9, -7.2770039e-9, 6.0999912e+1
-0.083, 4.6660458e-9, -7.2473392e-9, 6.1333244e+1
-0.084, 4.6952175e-9, -7.2179112e-9, 6.1666576e+1
-0.085, 4.7164757e-9, -7.1875381e-9, 6.1999908e+1
-0.086, 4.7419864e-9, -7.1584649e-9, 6.2333241e+1
-0.087, 4.7658433e-9, -7.1324648e-9, 6.2666573e+1
-0.088, 4.7881645e-9, -7.1083552e-9, 6.2999905e+1
-0.089, 4.8165094e-9, -7.0831829e-9, 6.3333237e+1
-0.090, 4.8339888e-9, -7.0548176e-9, 6.3666569e+1
-0.091, 4.8617430e-9, -7.0239725e-9, 6.3999901e+1
-0.092, 4.8872537e-9, -6.9950170e-9, 6.4333237e+1
-0.093, 4.9008353e-9, -6.9677175e-9, 6.4666573e+1
-0.094, 4.9281175e-9, -6.9398260e-9, 6.4999908e+1
-0.095, 4.9531552e-9, -6.9119350e-9, 6.5333244e+1
-0.096, 4.9753588e-9, -6.8845161e-9, 6.5666580e+1
-0.097, 5.0001603e-9, -6.8574519e-9, 6.5999916e+1
-0.098, 5.0192934e-9, -6.8274328e-9, 6.6333252e+1
-0.099, 5.0322848e-9, -6.8060415e-9, 6.6666588e+1
-0.100, 5.0535434e-9, -6.7920962e-9, 6.6999924e+1
-0.101, 5.0815339e-9, -6.7482504e-9, 6.7333260e+1
-0.102, 5.0961786e-9, -6.7372592e-9, 6.7666595e+1
-0.103, 5.1245235e-9, -6.7078316e-9, 6.7999931e+1
-0.104, 5.1655054e-9, -6.6417671e-9, 6.8333267e+1
-0.105, 5.1329088e-9, -6.7058221e-9, 6.8666603e+1
-0.106, 5.1716467e-9, -6.6568941e-9, 6.8999939e+1
-0.107, 5.1943227e-9, -6.6026478e-9, 6.9333275e+1
-0.108, 5.2474691e-9, -6.5677837e-9, 6.9666611e+1
-0.109, 5.2136917e-9, -6.6201391e-9, 6.9999947e+1
-0.110, 5.2399107e-9, -6.5881118e-9, 7.0333282e+1
-0.111, 5.2663660e-9, -6.5398926e-9, 7.0666618e+1
-0.112, 5.2830185e-9, -6.5118826e-9, 7.0999954e+1
-0.113, 5.3015605e-9, -6.5000645e-9, 7.1333290e+1
-0.114, 5.3242362e-9, -6.4623640e-9, 7.1666626e+1
-0.115, 5.3673443e-9, -6.4044543e-9, 7.1999962e+1
-0.116, 5.3437237e-9, -6.4192265e-9, 7.2333298e+1
-0.117, 5.3402989e-9, -6.4466454e-9, 7.2666634e+1
-0.118, 5.3851781e-9, -6.3967720e-9, 7.2999969e+1
-0.119, 5.4093894e-9, -6.3649810e-9, 7.3333305e+1
-0.120, 5.4200182e-9, -6.3502075e-9, 7.3666641e+1
-0.121, 5.4367888e-9, -6.3299983e-9, 7.3999977e+1
-0.122, 5.4475366e-9, -6.3195991e-9, 7.4333313e+1
-0.123, 5.4661973e-9, -6.2885159e-9, 7.4666649e+1
-0.124, 5.4889910e-9, -6.2644063e-9, 7.4999985e+1
-0.125, 5.4845031e-9, -6.2683068e-9, 7.5333321e+1
-0.126, 5.5191074e-9, -6.2235150e-9, 7.5666656e+1
-0.127, 5.5372955e-9, -6.2005876e-9, 7.5999992e+1
-0.128, 5.5491056e-9, -6.1812053e-9, 7.6333328e+1
-0.129, 5.5680021e-9, -6.1620598e-9, 7.6666664e+1
-0.130, 5.5818203e-9, -6.1449232e-9, 7.7000000e+1
-0.131, 5.5955200e-9, -6.1270775e-9, 7.7333336e+1
-0.132, 5.6203220e-9, -6.0989498e-9, 7.7666672e+1
-0.133, 5.6330771e-9, -6.0846497e-9, 7.8000008e+1
-0.134, 5.6513834e-9, -6.0551035e-9, 7.8333344e+1
-0.135, 5.6477223e-9, -6.0766130e-9, 7.8666679e+1
-0.136, 5.6679177e-9, -6.0502576e-9, 7.9000015e+1
-0.137, 5.6955538e-9, -6.0205938e-9, 7.9333351e+1
-0.138, 5.7015774e-9, -6.0087757e-9, 7.9666687e+1
-0.139, 5.7194112e-9, -5.9839569e-9, 8.0000023e+1
-0.140, 5.7348828e-9, -5.9682383e-9, 8.0333359e+1
-0.141, 5.7437406e-9, -5.9492113e-9, 8.0666695e+1
-0.142, 5.7633458e-9, -5.9300653e-9, 8.1000031e+1
-0.143, 5.7784630e-9, -5.9116290e-9, 8.1333366e+1
-0.144, 5.7921632e-9, -5.8942558e-9, 8.1666702e+1
-0.145, 5.8121223e-9, -5.8770011e-9, 8.2000038e+1
-0.146, 5.8231056e-9, -5.8629368e-9, 8.2333374e+1
-0.147, 5.8410574e-9, -5.8452096e-9, 8.2666710e+1
-0.148, 5.8608989e-9, -5.8289005e-9, 8.3000046e+1
-0.149, 5.8707013e-9, -5.8129457e-9, 8.3333382e+1
-0.150, 5.8866458e-9, -5.7979359e-9, 8.3666718e+1
-0.151, 5.9047154e-9, -5.7804450e-9, 8.4000053e+1
-0.152, 5.9216041e-9, -5.7668537e-9, 8.4333389e+1
-0.153, 5.9432170e-9, -5.7542082e-9, 8.4666725e+1
-0.154, 5.9558540e-9, -5.7387259e-9, 8.5000061e+1
-0.155, 5.9690817e-9, -5.7241896e-9, 8.5333397e+1
-0.156, 5.9870335e-9, -5.7082348e-9, 8.5666733e+1
-0.157, 5.9974266e-9, -5.6905072e-9, 8.6000069e+1
-0.158, 6.0157328e-9, -5.6744347e-9, 8.6333405e+1
-0.159, 6.0323848e-9, -5.6588338e-9, 8.6666740e+1
-0.160, 6.0517542e-9, -5.6429976e-9, 8.7000076e+1
-0.161, 6.0720677e-9, -5.6296425e-9, 8.7333412e+1
-0.162, 6.0852958e-9, -5.6155787e-9, 8.7666748e+1
-0.163, 6.1036016e-9, -5.6003331e-9, 8.8000084e+1
-0.164, 6.1249783e-9, -5.5854423e-9, 8.8333420e+1
-0.165, 6.1390324e-9, -5.5712603e-9, 8.8666756e+1
-0.166, 6.1572205e-9, -5.5574323e-9, 8.9000092e+1
-0.167, 6.1765895e-9, -5.5415961e-9, 8.9333427e+1
-0.168, 6.1934786e-9, -5.5261138e-9, 8.9666763e+1
-0.169, 6.2183982e-9, -5.5138227e-9, 9.0000099e+1
-0.170, 6.2320984e-9, -5.5003500e-9, 9.0333435e+1
-0.171, 6.2551284e-9, -5.4874683e-9, 9.0666771e+1
-0.172, 6.2763870e-9, -5.4708038e-9, 9.1000107e+1
-0.173, 6.2903234e-9, -5.4521312e-9, 9.1333443e+1
-0.174, 6.3098105e-9, -5.4386584e-9, 9.1666779e+1
-0.175, 6.3294152e-9, -5.4271942e-9, 9.2000114e+1
-0.176, 6.3439423e-9, -5.4139573e-9, 9.2333450e+1
-0.177, 6.3699255e-9, -5.4006031e-9, 9.2666786e+1
-0.178, 6.3868142e-9, -5.3879576e-9, 9.3000122e+1
-0.179, 6.4065366e-9, -5.3747207e-9, 9.3333458e+1
-0.180, 6.4318115e-9, -5.3616027e-9, 9.3666794e+1
-0.181, 6.4491728e-9, -5.3500204e-9, 9.4000130e+1
-0.182, 6.4712586e-9, -5.3390292e-9, 9.4333466e+1
-0.183, 6.4934613e-9, -5.3240199e-9, 9.4666801e+1
-0.184, 6.5140116e-9, -5.3131468e-9, 9.5000137e+1
-0.185, 6.5444818e-9, -5.3008562e-9, 9.5333473e+1
-0.186, 6.5652683e-9, -5.2895102e-9, 9.5666809e+1
-0.187, 6.5879444e-9, -5.2781650e-9, 9.6000145e+1
-0.188, 6.6174701e-9, -5.2668194e-9, 9.6333481e+1
-0.189, 6.6344770e-9, -5.2553553e-9, 9.6666817e+1
-0.190, 6.6632944e-9, -5.2450737e-9, 9.7000153e+1
-0.191, 6.6910490e-9, -5.2339639e-9, 9.7333488e+1
-0.192, 6.7150236e-9, -5.2229727e-9, 9.7666824e+1
-0.193, 6.7427783e-9, -5.2124545e-9, 9.8000160e+1
-0.194, 6.7617933e-9, -5.2018185e-9, 9.8333496e+1
-0.195, 6.7890742e-9, -5.1924816e-9, 9.8666832e+1
-0.196, 6.8198993e-9, -5.1832636e-9, 9.9000168e+1
-0.197, 6.8429298e-9, -5.1740447e-9, 9.9333504e+1
-0.198, 6.8791874e-9, -5.1650635e-9, 9.9666840e+1
-0.199, 6.9075323e-9, -5.1553721e-9, 1.0000018e+2
-0.200, 6.9330426e-9, -5.1496993e-9, 1.0033351e+2
-0.201, 6.9665842e-9, -5.1401261e-9, 1.0066685e+2
-0.202, 6.9896142e-9, -5.1297264e-9, 1.0100018e+2
-0.203, 7.0220927e-9, -5.1223985e-9, 1.0133352e+2
-0.204, 7.0592954e-9, -5.1162532e-9, 1.0166685e+2
-0.205, 7.0963799e-9, -5.1072715e-9, 1.0200019e+2
-0.206, 7.1299211e-9, -5.0994715e-9, 1.0233353e+2
-0.207, 7.1613373e-9, -5.0936806e-9, 1.0266686e+2
-0.208, 7.1925155e-9, -5.0855258e-9, 1.0300020e+2
-0.209, 7.2310180e-9, -5.0803255e-9, 1.0333353e+2
-0.210, 7.2620794e-9, -5.0765436e-9, 1.0366687e+2
-0.211, 7.3027069e-9, -5.0727618e-9, 1.0400021e+2
-0.212, 7.3428623e-9, -5.0692166e-9, 1.0433354e+2
-0.213, 7.3735693e-9, -5.0661439e-9, 1.0466688e+2
-0.214, 7.4158497e-9, -5.0638982e-9, 1.0500021e+2
-0.215, 7.4584854e-9, -5.0621254e-9, 1.0533355e+2
-0.216, 7.5017121e-9, -5.0607070e-9, 1.0566689e+2
-0.217, 7.5501339e-9, -5.0594071e-9, 1.0600022e+2
-0.218, 7.5891080e-9, -5.0591709e-9, 1.0633356e+2
-0.219, 7.6378850e-9, -5.0601163e-9, 1.0666689e+2
-0.220, 7.6893780e-9, -5.0598801e-9, 1.0700023e+2
-0.221, 7.7266984e-9, -5.0631890e-9, 1.0733356e+2
-0.222, 7.7830338e-9, -5.0686251e-9, 1.0766690e+2
-0.223, 7.8372437e-9, -5.0755982e-9, 1.0800024e+2
-0.224, 7.8877909e-9, -5.0805617e-9, 1.0833357e+2
-0.225, 7.9464888e-9, -5.0854072e-9, 1.0866691e+2
-0.226, 7.9956202e-9, -5.0934439e-9, 1.0900024e+2
-0.227, 8.0531368e-9, -5.1043170e-9, 1.0933358e+2
-0.228, 8.1127789e-9, -5.1147167e-9, 1.0966692e+2
-0.229, 8.1673432e-9, -5.1197988e-9, 1.1000025e+2
-0.230, 8.2300557e-9, -5.1310263e-9, 1.1033359e+2
-0.231, 8.2940677e-9, -5.1369353e-9, 1.1066692e+2
-0.232, 8.3583158e-9, -5.1507629e-9, 1.1100026e+2
-0.233, 8.4261078e-9, -5.1618723e-9, 1.1133360e+2
-0.234, 8.4819707e-9, -5.1775908e-9, 1.1166693e+2
-0.235, 8.5497618e-9, -5.1927183e-9, 1.1200027e+2
-0.236, 8.6246406e-9, -5.2092637e-9, 1.1233360e+2
-0.237, 8.6886516e-9, -5.2267550e-9, 1.1266694e+2
-0.238, 8.7634113e-9, -5.2453100e-9, 1.1300027e+2
-0.239, 8.8362810e-9, -5.2656377e-9, 1.1333361e+2
-0.240, 8.9056087e-9, -5.2847833e-9, 1.1366695e+2
-0.241, 8.9847374e-9, -5.3065285e-9, 1.1400028e+2
-0.242, 9.0545367e-9, -5.3299289e-9, 1.1433362e+2
-0.243, 9.1308312e-9, -5.3569931e-9, 1.1466695e+2
-0.244, 9.2091339e-9, -5.3803935e-9, 1.1500029e+2
-0.245, 9.2817674e-9, -5.4053304e-9, 1.1533363e+2
-0.246, 9.3569996e-9, -5.4334581e-9, 1.1566696e+2
-0.247, 9.4348298e-9, -5.4639493e-9, 1.1600030e+2
-0.248, 9.5120702e-9, -5.4920770e-9, 1.1633363e+2
-0.249, 9.5913162e-9, -5.5257594e-9, 1.1666697e+2
-0.250, 9.6641868e-9, -5.5560143e-9, 1.1700031e+2
-0.251, 9.7441433e-9, -5.5873328e-9, 1.1733364e+2
-0.252, 9.8233901e-9, -5.6191243e-9, 1.1766698e+2
-0.253, 9.8901189e-9, -5.6526885e-9, 1.1800031e+2
-0.254, 9.9683035e-9, -5.6834164e-9, 1.1833365e+2
-0.255, 1.0046252e-8, -5.7156804e-9, 1.1866698e+2
-0.256, 1.0117350e-8, -5.7511356e-9, 1.1900032e+2
-0.257, 1.0190102e-8, -5.7855267e-9, 1.1933366e+2
-0.258, 1.0253169e-8, -5.8202732e-9, 1.1966699e+2
-0.259, 1.0322496e-8, -5.8534826e-9, 1.2000033e+2
-0.260, 1.0392413e-8, -5.8863372e-9, 1.2033366e+2
-0.261, 1.0455599e-8, -5.9206107e-9, 1.2066700e+2
-0.262, 1.0523863e-8, -5.9512204e-9, 1.2100034e+2
-0.263, 1.0586693e-8, -5.9826570e-9, 1.2133367e+2
-0.264, 1.0645864e-8, -6.0133849e-9, 1.2166701e+2
-0.265, 1.0711883e-8, -6.0425758e-9, 1.2200034e+2
-0.266, 1.0762077e-8, -6.0759038e-9, 1.2233368e+2
-0.267, 1.0822901e-8, -6.1048588e-9, 1.2266702e+2
-0.268, 1.0884196e-8, -6.1349956e-9, 1.2300035e+2
-0.269, 1.0928012e-8, -6.1663146e-9, 1.2333369e+2
-0.270, 1.0985293e-8, -6.1933783e-9, 1.2366702e+2
-0.271, 1.1041628e-8, -6.2232788e-9, 1.2400036e+2
-0.272, 1.1091704e-8, -6.2486882e-9, 1.2433369e+2
-0.273, 1.1142725e-8, -6.2742158e-9, 1.2466703e+2
-0.274, 1.1185124e-8, -6.2974981e-9, 1.2500037e+2
-0.275, 1.1231303e-8, -6.3224355e-9, 1.2533370e+2
-0.276, 1.1282324e-8, -6.3498535e-9, 1.2566704e+2
-0.277, 1.1320589e-8, -6.3756169e-9, 1.2600037e+2
-0.278, 1.1364287e-8, -6.3949996e-9, 1.2633371e+2
-0.279, 1.1409166e-8, -6.4160357e-9, 1.2666705e+2
-0.280, 1.1450267e-8, -6.4379009e-9, 1.2700038e+2
-0.281, 1.1494673e-8, -6.4598824e-9, 1.2733372e+2
-0.282, 1.1526089e-8, -6.4793828e-9, 1.2766705e+2
-0.283, 1.1565418e-8, -6.4984098e-9, 1.2800038e+2
-0.284, 1.1608998e-8, -6.5164918e-9, 1.2833371e+2
-0.285, 1.1637224e-8, -6.5350467e-9, 1.2866704e+2
-0.286, 1.1676671e-8, -6.5515930e-9, 1.2900037e+2
-0.287, 1.1714818e-8, -6.5664838e-9, 1.2933369e+2
-0.288, 1.1747061e-8, -6.5851564e-9, 1.2966702e+2
-0.289, 1.1785563e-8, -6.6031212e-9, 1.3000035e+2
-0.290, 1.1809655e-8, -6.6207297e-9, 1.3033368e+2
-0.291, 1.1842488e-8, -6.6339667e-9, 1.3066701e+2
-0.292, 1.1876266e-8, -6.6486212e-9, 1.3100034e+2
-0.293, 1.1903075e-8, -6.6636310e-9, 1.3133366e+2
-0.294, 1.1935436e-8, -6.6778130e-9, 1.3166699e+2
-0.295, 1.1966143e-8, -6.6890404e-9, 1.3200032e+2
-0.296, 1.1995668e-8, -6.7022765e-9, 1.3233365e+2
-0.297, 1.2029328e-8, -6.7148038e-9, 1.3266698e+2
-0.298, 1.2051531e-8, -6.7262680e-9, 1.3300031e+2
-0.299, 1.2080822e-8, -6.7365500e-9, 1.3333363e+2
-0.300, 1.2106449e-8, -6.7471868e-9, 1.3366696e+2
-0.301, 1.2123221e-8, -6.7584134e-9, 1.3400029e+2
-0.302, 1.2146014e-8, -6.7696408e-9, 1.3433362e+2
-0.303, 1.2173769e-8, -6.7801595e-9, 1.3466695e+2
-0.304, 1.2197035e-8, -6.7917414e-9, 1.3500027e+2
-0.305, 1.2229632e-8, -6.8026149e-9, 1.3533360e+2
-0.306, 1.2252543e-8, -6.8126607e-9, 1.3566693e+2
-0.307, 1.2289393e-8, -6.8236514e-9, 1.3600026e+2
-0.308, 1.2319390e-8, -6.8322787e-9, 1.3633359e+2
-0.309, 1.2336161e-8, -6.8423240e-9, 1.3666692e+2
-0.310, 1.2365333e-8, -6.8531967e-9, 1.3700024e+2
-0.311, 1.2388717e-8, -6.8621784e-9, 1.3733357e+2
-0.312, 1.2413518e-8, -6.8697430e-9, 1.3766690e+2
-0.313, 1.2444107e-8, -6.8787247e-9, 1.3800023e+2
-0.314, 1.2463949e-8, -6.8858155e-9, 1.3833356e+2
-0.315, 1.2490995e-8, -6.8938526e-9, 1.3866689e+2
-0.316, 1.2518039e-8, -6.9023618e-9, 1.3900021e+2
-0.317, 1.2533513e-8, -6.9129982e-9, 1.3933354e+2
-0.318, 1.2562920e-8, -6.9218613e-9, 1.3966687e+2
-0.319, 1.2589846e-8, -6.9303705e-9, 1.4000020e+2
-0.320, 1.2613940e-8, -6.9360437e-9, 1.4033353e+2
-0.321, 1.2640396e-8, -6.9471531e-9, 1.4066685e+2
-0.322, 1.2661064e-8, -6.9564896e-9, 1.4100018e+2
-0.323, 1.2685274e-8, -6.9635808e-9, 1.4133351e+2
-0.324, 1.2712558e-8, -6.9733894e-9, 1.4166684e+2
-0.325, 1.2731689e-8, -6.9831989e-9, 1.4200017e+2
-0.326, 1.2761097e-8, -6.9907631e-9, 1.4233350e+2
-0.327, 1.2785073e-8, -6.9963182e-9, 1.4266682e+2
-0.328, 1.2804205e-8, -6.9999815e-9, 1.4300015e+2
-0.329, 1.2830305e-8, -7.0064812e-9, 1.4333348e+2
-0.330, 1.2844125e-8, -7.0130999e-9, 1.4366681e+2
-0.331, 1.2870108e-8, -7.0221997e-9, 1.4400014e+2
-0.332, 1.2898334e-8, -7.0285813e-9, 1.4433347e+2
-0.333, 1.2910379e-8, -7.0347275e-9, 1.4466679e+2
-0.334, 1.2936126e-8, -7.0400454e-9, 1.4500012e+2
-0.335, 1.2960574e-8, -7.0485546e-9, 1.4533345e+2
-0.336, 1.2978055e-8, -7.0576540e-9, 1.4566678e+2
-0.337, 1.3006399e-8, -7.0634454e-9, 1.4600011e+2
-0.338, 1.3023524e-8, -7.0703008e-9, 1.4633344e+2
-0.339, 1.3049269e-8, -7.0747914e-9, 1.4666676e+2
-0.340, 1.3074307e-8, -7.0777455e-9, 1.4700009e+2
-0.341, 1.3090133e-8, -7.0861370e-9, 1.4733342e+2
-0.342, 1.3115999e-8, -7.0928738e-9, 1.4766675e+2
-0.343, 1.3135131e-8, -7.1011463e-9, 1.4800008e+2
-0.344, 1.3155799e-8, -7.1059914e-9, 1.4833340e+2
-0.345, 1.3180720e-8, -7.1095370e-9, 1.4866673e+2
-0.346, 1.3199616e-8, -7.1132011e-9, 1.4900006e+2
-0.347, 1.3222174e-8, -7.1189921e-9, 1.4933339e+2
-0.348, 1.3244260e-8, -7.1246649e-9, 1.4966672e+2
-0.349, 1.3254179e-8, -7.1330555e-9, 1.5000005e+2
-0.350, 1.3281698e-8, -7.1331741e-9, 1.5033337e+2
-0.351, 1.3298351e-8, -7.1373107e-9, 1.5066670e+2
-0.352, 1.3318901e-8, -7.1438104e-9, 1.5100003e+2
-0.353, 1.3343348e-8, -7.1388468e-9, 1.5133336e+2
-0.354, 1.3348189e-8, -7.1591741e-9, 1.5166669e+2
-0.355, 1.3373700e-8, -7.1656743e-9, 1.5200002e+2
-0.356, 1.3393070e-8, -7.1785564e-9, 1.5233334e+2
-0.357, 1.3411258e-8, -7.1787931e-9, 1.5266667e+2
-0.358, 1.3434761e-8, -7.1777291e-9, 1.5300000e+2
-0.359, 1.3452239e-8, -7.1802111e-9, 1.5333333e+2
-0.360, 1.3470071e-8, -7.1825750e-9, 1.5366666e+2
-0.361, 1.3486843e-8, -7.1877748e-9, 1.5399998e+2
-0.362, 1.3494402e-8, -7.1949842e-9, 1.5433331e+2
-0.363, 1.3514717e-8, -7.1913204e-9, 1.5466664e+2
-0.364, 1.3534911e-8, -7.1917929e-9, 1.5499997e+2
-0.365, 1.3545777e-8, -7.1977020e-9, 1.5533330e+2
-0.366, 1.3565737e-8, -7.2036110e-9, 1.5566663e+2
-0.367, 1.3588295e-8, -7.2055029e-9, 1.5599995e+2
-0.368, 1.3602231e-8, -7.2013653e-9, 1.5633328e+2
-0.369, 1.3616993e-8, -7.2062112e-9, 1.5666661e+2
-0.370, 1.3626797e-8, -7.2072752e-9, 1.5699994e+2
-0.371, 1.3643448e-8, -7.2084569e-9, 1.5733327e+2
-0.372, 1.3664945e-8, -7.2181479e-9, 1.5766660e+2
-0.373, 1.3673920e-8, -7.2225208e-9, 1.5799992e+2
-0.374, 1.3690101e-8, -7.2254753e-9, 1.5833325e+2
-0.375, 1.3705336e-8, -7.2319755e-9, 1.5866658e+2
-0.376, 1.3726003e-8, -7.2307929e-9, 1.5899991e+2
-0.377, 1.3748089e-8, -7.2370576e-9, 1.5933324e+2
-0.378, 1.3761669e-8, -7.2391848e-9, 1.5966656e+2
-0.379, 1.3781277e-8, -7.2469848e-9, 1.5999989e+2
-0.380, 1.3803598e-8, -7.2506481e-9, 1.6033322e+2
-0.381, 1.3809622e-8, -7.2569124e-9, 1.6066655e+2
-0.382, 1.3834067e-8, -7.2545485e-9, 1.6099988e+2
-0.383, 1.3851312e-8, -7.2630577e-9, 1.6133321e+2
-0.384, 1.3864422e-8, -7.2707391e-9, 1.6166653e+2
-0.385, 1.3898197e-8, -7.2636488e-9, 1.6199986e+2
-0.386, 1.3903395e-8, -7.2713311e-9, 1.6233319e+2
-0.387, 1.3919811e-8, -7.2712125e-9, 1.6266652e+2
-0.388, 1.3937055e-8, -7.2706214e-9, 1.6299985e+2
-0.389, 1.3947447e-8, -7.2799580e-9, 1.6333318e+2
-0.390, 1.3969179e-8, -7.2832669e-9, 1.6366650e+2
-0.391, 1.3985595e-8, -7.2874031e-9, 1.6399983e+2
-0.392, 1.4002129e-8, -7.2870492e-9, 1.6433316e+2
-0.393, 1.4023860e-8, -7.2920128e-9, 1.6466649e+2
-0.394, 1.4034963e-8, -7.2909492e-9, 1.6499982e+2
-0.395, 1.4052795e-8, -7.2865762e-9, 1.6533315e+2
-0.396, 1.4072518e-8, -7.2991035e-9, 1.6566647e+2
-0.397, 1.4080196e-8, -7.2978037e-9, 1.6599980e+2
-0.398, 1.4101218e-8, -7.3052497e-9, 1.6633313e+2
-0.399, 1.4118697e-8, -7.3079667e-9, 1.6666646e+2
-0.400, 1.4134878e-8, -7.3122219e-9, 1.6699979e+2
-0.401, 1.4155663e-8, -7.3148221e-9, 1.6733311e+2
-0.402, 1.4167710e-8, -7.3137589e-9, 1.6766644e+2
-0.403, 1.4189560e-8, -7.3150583e-9, 1.6799977e+2
-0.404, 1.4205739e-8, -7.3178947e-9, 1.6833310e+2
-0.405, 1.4216369e-8, -7.3222677e-9, 1.6866643e+2
-0.406, 1.4233731e-8, -7.3245130e-9, 1.6899976e+2
-0.407, 1.4250383e-8, -7.3269955e-9, 1.6933308e+2
-0.408, 1.4268099e-8, -7.3359772e-9, 1.6966641e+2
-0.409, 1.4293845e-8, -7.3364497e-9, 1.6999974e+2
-0.410, 1.4321363e-8, -7.3366868e-9, 1.7033307e+2
-0.411, 1.4328803e-8, -7.3453137e-9, 1.7066640e+2
-0.412, 1.4346520e-8, -7.3457862e-9, 1.7099973e+2
-0.413, 1.4357503e-8, -7.3444868e-9, 1.7133305e+2
-0.414, 1.4376754e-8, -7.3466131e-9, 1.7166638e+2
-0.415, 1.4395650e-8, -7.3490947e-9, 1.7199971e+2
-0.416, 1.4413601e-8, -7.3540591e-9, 1.7233304e+2
-0.417, 1.4431791e-8, -7.3565412e-9, 1.7266637e+2
-0.418, 1.4444427e-8, -7.3585502e-9, 1.7299969e+2
-0.419, 1.4463206e-8, -7.3600859e-9, 1.7333302e+2
-0.420, 1.4486118e-8, -7.3629232e-9, 1.7366635e+2
-0.421, 1.4497692e-8, -7.3622139e-9, 1.7399968e+2
-0.422, 1.4518596e-8, -7.3639863e-9, 1.7433301e+2
-0.423, 1.4532532e-8, -7.3714324e-9, 1.7466634e+2
-0.424, 1.4548949e-8, -7.3748589e-9, 1.7499966e+2
-0.425, 1.4571389e-8, -7.3754505e-9, 1.7533299e+2
-0.426, 1.4582726e-8, -7.3808866e-9, 1.7566632e+2
-0.427, 1.4605519e-8, -7.3869142e-9, 1.7599965e+2
-0.428, 1.4625834e-8, -7.3944779e-9, 1.7633298e+2
-0.429, 1.4641541e-8, -7.3928237e-9, 1.7666631e+2
-0.430, 1.4662682e-8, -7.3869142e-9, 1.7699963e+2
-0.431, 1.4680988e-8, -7.3953057e-9, 1.7733296e+2
-0.432, 1.4695750e-8, -7.4025146e-9, 1.7766629e+2
-0.433, 1.4722443e-8, -7.4020416e-9, 1.7799962e+2
-0.434, 1.4738623e-8, -7.4016877e-9, 1.7833295e+2
-0.435, 1.4758583e-8, -7.4029871e-9, 1.7866628e+2
-0.436, 1.4782912e-8, -7.4067690e-9, 1.7899960e+2
-0.437, 1.4796612e-8, -7.4098416e-9, 1.7933293e+2
-0.438, 1.4817044e-8, -7.4103146e-9, 1.7966626e+2
-0.439, 1.4832871e-8, -7.4132691e-9, 1.7999959e+2
-0.440, 1.4852120e-8, -7.4130329e-9, 1.8033292e+2
-0.441, 1.4876804e-8, -7.4164599e-9, 1.8066624e+2
-0.442, 1.4894165e-8, -7.4184685e-9, 1.8099957e+2
-0.443, 1.4915896e-8, -7.4205957e-9, 1.8133290e+2
-0.444, 1.4944476e-8, -7.4217783e-9, 1.8166623e+2
-0.445, 1.4958296e-8, -7.4224875e-9, 1.8199956e+2
-0.446, 1.4983923e-8, -7.4226052e-9, 1.8233289e+2
-0.447, 1.5005538e-8, -7.4249695e-9, 1.8266621e+2
-0.448, 1.5024906e-8, -7.4265056e-9, 1.8299954e+2
-0.449, 1.5051125e-8, -7.4287514e-9, 1.8333287e+2
-0.450, 1.5068721e-8, -7.4340694e-9, 1.8366620e+2
-0.451, 1.5092699e-8, -7.4361965e-9, 1.8399953e+2
-0.452, 1.5118916e-8, -7.4372606e-9, 1.8433286e+2
-0.453, 1.5139820e-8, -7.4391506e-9, 1.8466618e+2
-0.454, 1.5175960e-8, -7.4325333e-9, 1.8499951e+2
-0.455, 1.5196038e-8, -7.4457698e-9, 1.8533284e+2
-0.456, 1.5213399e-8, -7.4529787e-9, 1.8566617e+2
-0.457, 1.5247057e-8, -7.4559328e-9, 1.8599950e+2
-0.458, 1.5265247e-8, -7.4603062e-9, 1.8633282e+2
-0.459, 1.5293946e-8, -7.4637336e-9, 1.8666615e+2
-0.460, 1.5325478e-8, -7.4642053e-9, 1.8699948e+2
-0.461, 1.5348157e-8, -7.4731883e-9, 1.8733281e+2
-0.462, 1.5377681e-8, -7.4786248e-9, 1.8766614e+2
-0.463, 1.5408506e-8, -7.4844149e-9, 1.8799947e+2
-0.464, 1.5432482e-8, -7.4889073e-9, 1.8833279e+2
-0.465, 1.5463897e-8, -7.4932789e-9, 1.8866612e+2
-0.466, 1.5487400e-8, -7.4946982e-9, 1.8899945e+2
-0.467, 1.5519996e-8, -7.4977695e-9, 1.8933278e+2
-0.468, 1.5553892e-8, -7.4990707e-9, 1.8966611e+2
-0.469, 1.5574797e-8, -7.5007254e-9, 1.8999944e+2
-0.470, 1.5598651e-8, -7.5032069e-9, 1.9033276e+2
-0.471, 1.5624753e-8, -7.5049789e-9, 1.9066609e+2
-0.472, 1.5652036e-8, -7.5089979e-9, 1.9099942e+2
-0.473, 1.5686521e-8, -7.5128979e-9, 1.9133275e+2
-0.474, 1.5702348e-8, -7.5175066e-9, 1.9166608e+2
-0.475, 1.5744392e-8, -7.5157347e-9, 1.9199940e+2
-0.476, 1.5778642e-8, -7.5205797e-9, 1.9233273e+2
-0.477, 1.5800966e-8, -7.5240072e-9, 1.9266606e+2
-0.478, 1.5836868e-8, -7.5299162e-9, 1.9299939e+2
-0.479, 1.5868757e-8, -7.5346431e-9, 1.9333272e+2
-0.480, 1.5900879e-8, -7.5384250e-9, 1.9366605e+2
-0.481, 1.5938909e-8, -7.5449256e-9, 1.9399937e+2
-0.482, 1.5967844e-8, -7.5503621e-9, 1.9433270e+2
-0.483, 1.6001977e-8, -7.5557987e-9, 1.9466603e+2
-0.484, 1.6040007e-8, -7.5586346e-9, 1.9499936e+2
-0.485, 1.6069885e-8, -7.5637168e-9, 1.9533269e+2
-0.486, 1.6111576e-8, -7.5684445e-9, 1.9566602e+2
-0.487, 1.6149134e-8, -7.5756530e-9, 1.9599934e+2
-0.488, 1.6187636e-8, -7.5808533e-9, 1.9633267e+2
-0.489, 1.6226609e-8, -7.5868805e-9, 1.9666600e+2
-0.490, 1.6260742e-8, -7.5938535e-9, 1.9699933e+2
-0.491, 1.6304204e-8, -7.5989348e-9, 1.9733266e+2
-0.492, 1.6350736e-8, -7.6047257e-9, 1.9766599e+2
-0.493, 1.6387821e-8, -7.6060269e-9, 1.9799931e+2
-0.494, 1.6430219e-8, -7.6169000e-9, 1.9833264e+2
-0.495, 1.6471910e-8, -7.6222175e-9, 1.9866597e+2
-0.496, 1.6510766e-8, -7.6283637e-9, 1.9899930e+2
-0.497, 1.6560133e-8, -7.6405362e-9, 1.9933263e+2
-0.498, 1.6594266e-8, -7.6473912e-9, 1.9966595e+2
-0.499, 1.6635601e-8, -7.6534183e-9, 1.9999928e+2
-0.500, 1.5914816e-8, -7.6573183e-9, 2.0033261e+2
-0.499, 1.4397068e-8, -7.6511721e-9, 2.0066594e+2
-0.498, 1.3615223e-8, -7.6392359e-9, 2.0099927e+2
-0.497, 1.3002384e-8, -7.6259994e-9, 2.0133260e+2
-0.496, 1.2501152e-8, -7.6124085e-9, 2.0166592e+2
-0.495, 1.2071846e-8, -7.5995263e-9, 2.0199925e+2
-0.494, 1.1690016e-8, -7.5849895e-9, 2.0233258e+2
-0.493, 1.1329329e-8, -7.5683255e-9, 2.0266591e+2
-0.492, 1.0992615e-8, -7.5557987e-9, 2.0299924e+2
-0.491, 1.0691806e-8, -7.5453981e-9, 2.0333257e+2
-0.490, 1.0402098e-8, -7.5312157e-9, 2.0366589e+2
-0.489, 1.0132231e-8, -7.5171522e-9, 2.0399922e+2
-0.488, 9.8801980e-9, -7.5035613e-9, 2.0433255e+2
-0.487, 9.6312363e-9, -7.4915070e-9, 2.0466588e+2
-0.486, 9.4028234e-9, -7.4782704e-9, 2.0499921e+2
-0.485, 9.1805523e-9, -7.4664523e-9, 2.0533253e+2
-0.484, 8.9638332e-9, -7.4556974e-9, 2.0566586e+2
-0.483, 8.7650651e-9, -7.4455331e-9, 2.0599919e+2
-0.482, 8.5677136e-9, -7.4376145e-9, 2.0633252e+2
-0.481, 8.3793390e-9, -7.4266233e-9, 2.0666585e+2
-0.480, 8.2011198e-9, -7.4150424e-9, 2.0699918e+2
-0.479, 8.0242009e-9, -7.4014510e-9, 2.0733250e+2
-0.478, 7.8569666e-9, -7.3903412e-9, 2.0766583e+2
-0.477, 7.6985902e-9, -7.3784046e-9, 2.0799916e+2
-0.476, 7.5410398e-9, -7.3714324e-9, 2.0833249e+2
-0.475, 7.3934103e-9, -7.3605588e-9, 2.0866582e+2
-0.474, 7.2443633e-9, -7.3531137e-9, 2.0899915e+2
-0.473, 7.1035839e-9, -7.3447222e-9, 2.0933247e+2
-0.472, 6.9724897e-9, -7.3359772e-9, 2.0966580e+2
-0.471, 6.8334818e-9, -7.3297128e-9, 2.0999913e+2
-0.470, 6.7078196e-9, -7.3243949e-9, 2.1033246e+2
-0.469, 6.5820389e-9, -7.3191950e-9, 2.1066579e+2
-0.468, 6.4559051e-9, -7.3132860e-9, 2.1099911e+2
-0.467, 6.3400454e-9, -7.3067854e-9, 2.1133244e+2
-0.466, 6.2280825e-9, -7.2982758e-9, 2.1166577e+2
-0.465, 6.1072631e-9, -7.2877580e-9, 2.1199910e+2
-0.464, 6.0046310e-9, -7.2793669e-9, 2.1233243e+2
-0.463, 5.8872360e-9, -7.2733397e-9, 2.1266576e+2
-0.462, 5.7794076e-9, -7.2683761e-9, 2.1299908e+2
-0.461, 5.6746496e-9, -7.2617574e-9, 2.1333241e+2
-0.460, 5.5676481e-9, -7.2551400e-9, 2.1366574e+2
-0.459, 5.4750546e-9, -7.2467485e-9, 2.1399907e+2
-0.458, 5.3795088e-9, -7.2416664e-9, 2.1433240e+2
-0.457, 5.2816014e-9, -7.2368205e-9, 2.1466573e+2
-0.456, 5.1934959e-9, -7.2276025e-9, 2.1499905e+2
-0.455, 5.0972413e-9, -7.2235840e-9, 2.1533238e+2
-0.454, 5.0060658e-9, -7.2157840e-9, 2.1566571e+2
-0.453, 4.9171338e-9, -7.2060931e-9, 2.1599904e+2
-0.452, 4.8266666e-9, -7.1960473e-9, 2.1633237e+2
-0.451, 4.7509623e-9, -7.1871833e-9, 2.1666570e+2
-0.450, 4.6645106e-9, -7.1842292e-9, 2.1699902e+2
-0.449, 4.5762869e-9, -7.1791471e-9, 2.1733235e+2
-0.448, 4.5058970e-9, -7.1689836e-9, 2.1766568e+2
-0.447, 4.4207447e-9, -7.1572832e-9, 2.1799901e+2
-0.446, 4.3440953e-9, -7.1559834e-9, 2.1833234e+2
-0.445, 4.2705173e-9, -7.1513742e-9, 2.1866566e+2
-0.444, 4.1916239e-9, -7.1440467e-9, 2.1899899e+2
-0.443, 4.1206434e-9, -7.1344743e-9, 2.1933232e+2
-0.442, 4.0448214e-9, -7.1258466e-9, 2.1966565e+2
-0.441, 3.9673451e-9, -7.1167463e-9, 2.1999898e+2
-0.440, 3.9003805e-9, -7.1059914e-9, 2.2033231e+2
-0.439, 3.8265657e-9, -7.0980737e-9, 2.2066563e+2
-0.438, 3.7614907e-9, -7.0903918e-9, 2.2099896e+2
-0.437, 3.6952348e-9, -7.0829458e-9, 2.2133229e+2
-0.436, 3.6227192e-9, -7.0738460e-9, 2.2166562e+2
-0.435, 3.5634309e-9, -7.0687638e-9, 2.2199895e+2
-0.434, 3.4944587e-9, -7.0624999e-9, 2.2233228e+2
-0.433, 3.4266674e-9, -7.0548176e-9, 2.2266560e+2
-0.432, 3.3724576e-9, -7.0496187e-9, 2.2299893e+2
-0.431, 3.3063199e-9, -7.0431172e-9, 2.2333226e+2
-0.430, 3.2469134e-9, -7.0364998e-9, 2.2366559e+2
-0.429, 3.1884522e-9, -7.0283450e-9, 2.2399892e+2
-0.428, 3.1309360e-9, -7.0186541e-9, 2.2433224e+2
-0.427, 3.0801515e-9, -7.0135719e-9, 2.2466557e+2
-0.426, 3.0208636e-9, -7.0071908e-9, 2.2499890e+2
-0.425, 2.9624023e-9, -7.0005717e-9, 2.2533223e+2
-0.424, 2.9163418e-9, -6.9928898e-9, 2.2566556e+2
-0.423, 2.8616600e-9, -6.9865078e-9, 2.2599889e+2
-0.422, 2.8095763e-9, -6.9802448e-9, 2.2633221e+2
-0.421, 2.7564298e-9, -6.9738628e-9, 2.2666554e+2
-0.420, 2.6998581e-9, -6.9684267e-9, 2.2699887e+2
-0.419, 2.6543885e-9, -6.9608621e-9, 2.2733220e+2
-0.418, 2.6011235e-9, -6.9532984e-9, 2.2766553e+2
-0.417, 2.5456151e-9, -6.9414803e-9, 2.2799886e+2
-0.416, 2.4981375e-9, -6.9339166e-9, 2.2833218e+2
-0.415, 2.4462898e-9, -6.9285981e-9, 2.2866551e+2
-0.414, 2.3952691e-9, -6.9218613e-9, 2.2899884e+2
-0.413, 2.3502718e-9, -6.9160708e-9, 2.2933217e+2
-0.412, 2.3009046e-9, -6.9100432e-9, 2.2966550e+2
-0.411, 2.2598043e-9, -6.8995254e-9, 2.2999883e+2
-0.410, 2.2019335e-9, -6.8990529e-9, 2.3033215e+2
-0.409, 2.1505586e-9, -6.8927886e-9, 2.3066548e+2
-0.408, 2.1141828e-9, -6.8793158e-9, 2.3099881e+2
-0.407, 2.0661146e-9, -6.8739974e-9, 2.3133214e+2
-0.406, 2.0238335e-9, -6.8732882e-9, 2.3166547e+2
-0.405, 1.9806077e-9, -6.8683255e-9, 2.3199879e+2
-0.404, 1.9326578e-9, -6.8606432e-9, 2.3233212e+2
-0.403, 1.8938016e-9, -6.8559154e-9, 2.3266545e+2
-0.402, 1.8451430e-9, -6.8464598e-9, 2.3299878e+2
-0.401, 1.7981379e-9, -6.8430337e-9, 2.3333211e+2
-0.400, 1.7642422e-9, -6.8372428e-9, 2.3366544e+2
-0.399, 1.7164100e-9, -6.8299144e-9, 2.3399876e+2
-0.398, 1.6755461e-9, -6.8216424e-9, 2.3433209e+2
-0.397, 1.6373989e-9, -6.8117143e-9, 2.3466542e+2
-0.396, 1.5879136e-9, -6.8050965e-9, 2.3499875e+2
-0.395, 1.5496480e-9, -6.7985959e-9, 2.3533208e+2
-0.394, 1.5086661e-9, -6.7897328e-9, 2.3566541e+2
-0.393, 1.4648496e-9, -6.7820505e-9, 2.3599873e+2
-0.392, 1.4272926e-9, -6.7664505e-9, 2.3633206e+2
-0.391, 1.3793426e-9, -6.7586505e-9, 2.3666539e+2
-0.390, 1.3354081e-9, -6.7514412e-9, 2.3699872e+2
-0.389, 1.2983237e-9, -6.7438766e-9, 2.3733205e+2
-0.388, 1.2532081e-9, -6.7338317e-9, 2.3766537e+2
-0.387, 1.2217926e-9, -6.7266228e-9, 2.3799870e+2
-0.386, 1.1773856e-9, -6.7190586e-9, 2.3833203e+2
-0.385, 1.1345140e-9, -6.7155130e-9, 2.3866536e+2
-0.384, 1.1006183e-9, -6.7104318e-9, 2.3899869e+2
-0.383, 1.0564476e-9, -6.7052315e-9, 2.3933202e+2
-0.382, 1.0175916e-9, -6.6943588e-9, 2.3966534e+2
-0.381, 9.8381392e-10, -6.6882135e-9, 2.3999867e+2
-0.380, 9.4141472e-10, -6.6820673e-9, 2.4033200e+2
-0.379, 9.0716484e-10, -6.6758039e-9, 2.4066533e+2
-0.378, 8.6795438e-10, -6.6657582e-9, 2.4099866e+2
-0.377, 8.3027929e-10, -6.6546484e-9, 2.4133199e+2
-0.376, 8.0146212e-10, -6.6476757e-9, 2.4166531e+2
-0.375, 7.6059825e-10, -6.6405850e-9, 2.4199864e+2
-0.374, 7.2634820e-10, -6.6333756e-9, 2.4233197e+2
-0.373, 6.9446027e-10, -6.6243930e-9, 2.4266530e+2
-0.372, 6.5536804e-10, -6.6163577e-9, 2.4299863e+2
-0.371, 6.2985767e-10, -6.6077299e-9, 2.4333195e+2
-0.370, 5.8934813e-10, -6.5987478e-9, 2.4366528e+2
-0.369, 5.5013777e-10, -6.5913031e-9, 2.4399861e+2
-0.368, 5.2450932e-10, -6.5877575e-9, 2.4433194e+2
-0.367, 4.8399984e-10, -6.5814927e-9, 2.4466527e+2
-0.366, 4.5057647e-10, -6.5745205e-9, 2.4499860e+2
-0.365, 4.1467305e-10, -6.5677837e-9, 2.4533192e+2
-0.364, 3.7451786e-10, -6.5595112e-9, 2.4566525e+2
-0.363, 3.4511008e-10, -6.5501751e-9, 2.4599858e+2
-0.362, 3.0897038e-10, -6.5475740e-9, 2.4633191e+2
-0.361, 2.7212210e-10, -6.5370562e-9, 2.4666524e+2
-0.360, 2.4106087e-10, -6.5218098e-9, 2.4699857e+2
-0.359, 2.0669275e-10, -6.5156649e-9, 2.4733189e+2
-0.358, 1.7315134e-10, -6.5091648e-9, 2.4766522e+2
-0.357, 1.4350736e-10, -6.5016010e-9, 2.4799855e+2
-0.356, 1.0547802e-10, -6.4917915e-9, 2.4833188e+2
-0.355, 7.8196102e-11, -6.4810366e-9, 2.4866521e+2
-0.354, 4.0757283e-11, -6.4765460e-9, 2.4899854e+2
-0.353, 4.3813989e-12, -6.4695733e-9, 2.4933186e+2
-0.352, -2.2309998e-11, -6.4609460e-9, 2.4966519e+2
-0.351, -5.7386748e-11, -6.4513728e-9, 2.4999852e+2
-0.350, -8.6794523e-11, -6.4447554e-9, 2.5033185e+2
-0.349, -1.1395834e-10, -6.4389631e-9, 2.5066518e+2
-0.348, -1.5127904e-10, -6.4315184e-9, 2.5099850e+2
-0.347, -1.7454543e-10, -6.4226544e-9, 2.5133183e+2
-0.346, -2.0749633e-10, -6.4149721e-9, 2.5166516e+2
-0.345, -2.3997479e-10, -6.4033903e-9, 2.5199849e+2
-0.344, -2.6654809e-10, -6.3991363e-9, 2.5233182e+2
-0.343, -3.0493172e-10, -6.3901537e-9, 2.5266515e+2
-0.342, -3.3800071e-10, -6.3819989e-9, 2.5299847e+2
-0.341, -3.6681796e-10, -6.3738446e-9, 2.5333180e+2
-0.340, -4.0154044e-10, -6.3673444e-9, 2.5366513e+2
-0.339, -4.3260168e-10, -6.3603722e-9, 2.5399846e+2
-0.338, -4.6543441e-10, -6.3492624e-9, 2.5433179e+2
-0.337, -4.9755861e-10, -6.3414625e-9, 2.5466512e+2
-0.336, -5.2023441e-10, -6.3323617e-9, 2.5499844e+2
-0.335, -5.5991722e-10, -6.3238526e-9, 2.5533177e+2
-0.334, -5.9204142e-10, -6.3171166e-9, 2.5566510e+2
-0.333, -6.2085864e-10, -6.3104979e-9, 2.5599843e+2
-0.332, -6.5817934e-10, -6.3000987e-9, 2.5633176e+2
-0.331, -6.8664235e-10, -6.2913523e-9, 2.5666510e+2
-0.330, -7.1687684e-10, -6.2834338e-9, 2.5699844e+2
-0.329, -7.5278028e-10, -6.2720886e-9, 2.5733179e+2
-0.328, -7.7947171e-10, -6.2642882e-9, 2.5766513e+2
-0.327, -8.1454843e-10, -6.2549517e-9, 2.5799847e+2
-0.326, -8.4879848e-10, -6.2482157e-9, 2.5833182e+2
-0.325, -8.7974156e-10, -6.2371064e-9, 2.5866516e+2
-0.324, -9.1434599e-10, -6.2274150e-9, 2.5899850e+2
-0.323, -9.3855723e-10, -6.2216241e-9, 2.5933185e+2
-0.322, -9.7316155e-10, -6.2109877e-9, 2.5966519e+2
-0.321, -1.0089468e-9, -6.1992873e-9, 2.5999854e+2
-0.320, -1.0324495e-9, -6.1891234e-9, 2.6033188e+2
-0.319, -1.0729589e-9, -6.1802599e-9, 2.6066522e+2
-0.318, -1.1050830e-9, -6.1689143e-9, 2.6099857e+2
-0.317, -1.1327194e-9, -6.1600507e-9, 2.6133191e+2
-0.316, -1.1735832e-9, -6.1529595e-9, 2.6166525e+2
-0.315, -1.2000383e-9, -6.1440955e-9, 2.6199860e+2
-0.314, -1.2365323e-9, -6.1344045e-9, 2.6233194e+2
-0.313, -1.2694832e-9, -6.1228227e-9, 2.6266528e+2
-0.312, -1.2948754e-9, -6.1139591e-9, 2.6299863e+2
-0.311, -1.3331410e-9, -6.1004859e-9, 2.6333197e+2
-0.310, -1.3652651e-9, -6.0928040e-9, 2.6366531e+2
-0.309, -1.3977437e-9, -6.0827583e-9, 2.6399866e+2
-0.308, -1.4364816e-9, -6.0733036e-9, 2.6433200e+2
-0.307, -1.4714402e-9, -6.0649126e-9, 2.6466534e+2
-0.306, -1.5003757e-9, -6.0527396e-9, 2.6499869e+2
-0.305, -1.5350980e-9, -6.0353669e-9, 2.6533203e+2
-0.304, -1.5583644e-9, -6.0217760e-9, 2.6566537e+2
-0.303, -1.5961574e-9, -6.0163394e-9, 2.6599872e+2
-0.302, -1.6295809e-9, -6.0071210e-9, 2.6633206e+2
-0.301, -1.6615870e-9, -5.9934115e-9, 2.6666541e+2
-0.300, -1.7028049e-9, -5.9766294e-9, 2.6699875e+2
-0.299, -1.7337480e-9, -5.9657572e-9, 2.6733209e+2
-0.298, -1.7708328e-9, -5.9526384e-9, 2.6766544e+2
-0.297, -1.8119326e-9, -5.9388108e-9, 2.6799878e+2
-0.296, -1.8493714e-9, -5.9239200e-9, 2.6833212e+2
-0.295, -1.8923612e-9, -5.9069012e-9, 2.6866547e+2
-0.294, -1.9313355e-9, -5.8933103e-9, 2.6899881e+2
-0.293, -1.9699553e-9, -5.8770011e-9, 2.6933215e+2
-0.292, -2.0124724e-9, -5.8604552e-9, 2.6966550e+2
-0.291, -2.0453053e-9, -5.8452096e-9, 2.6999884e+2
-0.290, -2.0923105e-9, -5.8280731e-9, 2.7033218e+2
-0.289, -2.1403785e-9, -5.8106999e-9, 2.7066553e+2
-0.288, -2.1812425e-9, -5.7926179e-9, 2.7099887e+2
-0.287, -2.2343889e-9, -5.7741816e-9, 2.7133221e+2
-0.286, -2.2782054e-9, -5.7517267e-9, 2.7166556e+2
-0.285, -2.3214313e-9, -5.7291536e-9, 2.7199890e+2
-0.284, -2.3777667e-9, -5.7096532e-9, 2.7233224e+2
-0.283, -2.4247719e-9, -5.6849530e-9, 2.7266559e+2
-0.282, -2.4761471e-9, -5.6637979e-9, 2.7299893e+2
-0.281, -2.5343720e-9, -5.6420522e-9, 2.7333228e+2
-0.280, -2.5853928e-9, -5.6161698e-9, 2.7366562e+2
-0.279, -2.6449170e-9, -5.5892242e-9, 2.7399896e+2
-0.278, -2.6978271e-9, -5.5627507e-9, 2.7433231e+2
-0.277, -2.7610128e-9, -5.5362777e-9, 2.7466565e+2
-0.276, -2.8260878e-9, -5.5061409e-9, 2.7499899e+2
-0.275, -2.8808878e-9, -5.4760045e-9, 2.7533234e+2
-0.274, -2.9460809e-9, -5.4466947e-9, 2.7566568e+2
-0.273, -3.0162344e-9, -5.4166760e-9, 2.7599902e+2
-0.272, -3.0770577e-9, -5.3833480e-9, 2.7633237e+2
-0.271, -3.1513450e-9, -5.3494293e-9, 2.7666571e+2
-0.270, -3.2239784e-9, -5.3081837e-9, 2.7699905e+2
-0.269, -3.2985017e-9, -5.2773377e-9, 2.7733240e+2
-0.268, -3.3765681e-9, -5.2463731e-9, 2.7766574e+2
-0.267, -3.4510919e-9, -5.2106821e-9, 2.7799908e+2
-0.266, -3.5308116e-9, -5.1768816e-9, 2.7833243e+2
-0.265, -3.6060435e-9, -5.1357536e-9, 2.7866577e+2
-0.264, -3.6653314e-9, -5.0913163e-9, 2.7899911e+2
-0.263, -3.7430437e-9, -5.0467617e-9, 2.7933246e+2
-0.262, -3.8289043e-9, -5.0089426e-9, 2.7966580e+2
-0.261, -3.9004755e-9, -4.9544604e-9, 2.7999915e+2
-0.260, -3.9974384e-9, -4.8969047e-9, 2.8033249e+2
-0.259, -4.0593244e-9, -4.8262305e-9, 2.8066583e+2
-0.258, -4.1680983e-9, -4.8082667e-9, 2.8099918e+2
-0.257, -4.2583292e-9, -4.7615845e-9, 2.8133252e+2
-0.256, -4.3402930e-9, -4.7079292e-9, 2.8166586e+2
-0.255, -4.4540269e-9, -4.6764925e-9, 2.8199921e+2
-0.254, -4.5359907e-9, -4.6139732e-9, 2.8233255e+2
-0.253, -4.6271662e-9, -4.5648085e-9, 2.8266589e+2
-0.252, -4.7240114e-9, -4.5115081e-9, 2.8299924e+2
-0.251, -4.8081010e-9, -4.4591526e-9, 2.8333258e+2
-0.250, -4.9018754e-9, -4.4093973e-9, 2.8366592e+2
-0.249, -4.9977755e-9, -4.3560968e-9, 2.8399927e+2
-0.248, -5.0872977e-9, -4.3027959e-9, 2.8433261e+2
-0.247, -5.1841429e-9, -4.2498498e-9, 2.8466595e+2
-0.246, -5.2675238e-9, -4.1958401e-9, 2.8499930e+2
-0.245, -5.3543294e-9, -4.1427755e-9, 2.8533264e+2
-0.244, -5.4412541e-9, -4.0905381e-9, 2.8566599e+2
-0.243, -5.5151865e-9, -4.0372372e-9, 2.8599933e+2
-0.242, -5.6043548e-9, -3.9863002e-9, 2.8633267e+2
-0.241, -5.6910432e-9, -3.9353631e-9, 2.8666602e+2
-0.240, -5.7624954e-9, -3.8852535e-9, 2.8699936e+2
-0.239, -5.8455227e-9, -3.8351438e-9, 2.8733270e+2
-0.238, -5.9218173e-9, -3.7856247e-9, 2.8766605e+2
-0.237, -5.9987029e-9, -3.7391787e-9, 2.8799939e+2
-0.236, -6.0751160e-9, -3.6932051e-9, 2.8833273e+2
-0.235, -6.1377103e-9, -3.6460501e-9, 2.8866608e+2
-0.234, -6.2081003e-9, -3.6033854e-9, 2.8899942e+2
-0.233, -6.2762462e-9, -3.5590668e-9, 2.8933276e+2
-0.232, -6.3341163e-9, -3.5148662e-9, 2.8966611e+2
-0.231, -6.3983649e-9, -3.4731471e-9, 2.8999945e+2
-0.230, -6.4556449e-9, -3.4327283e-9, 2.9033279e+2
-0.229, -6.5129253e-9, -3.3929006e-9, 2.9066614e+2
-0.228, -6.5726855e-9, -3.3569727e-9, 2.9099948e+2
-0.227, -6.6206360e-9, -3.3232905e-9, 2.9133282e+2
-0.226, -6.6764989e-9, -3.2885448e-9, 2.9166617e+2
-0.225, -6.7281105e-9, -3.2515535e-9, 2.9199951e+2
-0.224, -6.7685018e-9, -3.2209433e-9, 2.9233286e+2
-0.223, -6.8158612e-9, -3.1926974e-9, 2.9266620e+2
-0.222, -6.8575510e-9, -3.1653975e-9, 2.9299954e+2
-0.221, -6.8919199e-9, -3.1351421e-9, 2.9333289e+2
-0.220, -6.9350272e-9, -3.1083147e-9, 2.9366623e+2
-0.219, -6.9689232e-9, -3.0807779e-9, 2.9399957e+2
-0.218, -7.0039996e-9, -3.0528864e-9, 2.9433292e+2
-0.217, -7.0415567e-9, -3.0281864e-9, 2.9466626e+2
-0.216, -7.0677757e-9, -3.0057312e-9, 2.9499960e+2
-0.215, -7.1046240e-9, -2.9804401e-9, 2.9533295e+2
-0.214, -7.1322597e-9, -2.9599942e-9, 2.9566629e+2
-0.213, -7.1620225e-9, -2.9367122e-9, 2.9599963e+2
-0.212, -7.1941466e-9, -2.9148481e-9, 2.9633298e+2
-0.211, -7.2137514e-9, -2.9000753e-9, 2.9666632e+2
-0.210, -7.2402067e-9, -2.8822296e-9, 2.9699966e+2
-0.209, -7.2661894e-9, -2.8645017e-9, 2.9733301e+2
-0.208, -7.2814248e-9, -2.8474836e-9, 2.9766635e+2
-0.207, -7.3083530e-9, -2.8321196e-9, 2.9799969e+2
-0.206, -7.3272490e-9, -2.8184104e-9, 2.9833304e+2
-0.205, -7.3564208e-9, -2.8047011e-9, 2.9866638e+2
-0.204, -7.3796871e-9, -2.7865008e-9, 2.9899973e+2
-0.203, -7.3906712e-9, -2.7731459e-9, 2.9933307e+2
-0.202, -7.4063786e-9, -2.7574274e-9, 2.9966641e+2
-0.201, -7.4243300e-9, -2.7458458e-9, 2.9999976e+2
-0.200, -7.4333060e-9, -2.7361546e-9, 3.0033310e+2
-0.199, -7.4527939e-9, -2.7261089e-9, 3.0066644e+2
-0.198, -7.4662578e-9, -2.7127545e-9, 3.0099979e+2
-0.197, -7.4811384e-9, -2.7006994e-9, 3.0133313e+2
-0.196, -7.5061761e-9, -2.6912450e-9, 3.0166647e+2
-0.195, -7.5116082e-9, -2.6784810e-9, 3.0199982e+2
-0.194, -7.5263715e-9, -2.6668989e-9, 3.0233316e+2
-0.193, -7.5446778e-9, -2.6605171e-9, 3.0266650e+2
-0.192, -7.5545978e-9, -2.6510625e-9, 3.0299985e+2
-0.191, -7.5738500e-9, -2.6404259e-9, 3.0333319e+2
-0.190, -7.5844788e-9, -2.6315623e-9, 3.0366653e+2
-0.189, -7.5955802e-9, -2.6278983e-9, 3.0399988e+2
-0.188, -7.6154221e-9, -2.6206892e-9, 3.0433322e+2
-0.187, -7.6207360e-9, -2.6107618e-9, 3.0466656e+2
-0.186, -7.6362081e-9, -2.6008344e-9, 3.0499991e+2
-0.185, -7.6482545e-9, -2.5927980e-9, 3.0533325e+2
-0.184, -7.6554594e-9, -2.5868887e-9, 3.0566660e+2
-0.183, -7.6697493e-9, -2.5771978e-9, 3.0599994e+2
-0.182, -7.6754185e-9, -2.5682156e-9, 3.0633328e+2
-0.181, -7.6843945e-9, -2.5601792e-9, 3.0666663e+2
-0.180, -7.7039992e-9, -2.5527338e-9, 3.0699997e+2
-0.179, -7.7067162e-9, -2.5493065e-9, 3.0733331e+2
-0.178, -7.7226598e-9, -2.5397335e-9, 3.0766666e+2
-0.177, -7.7339974e-9, -2.5300424e-9, 3.0800000e+2
-0.176, -7.7382500e-9, -2.5319336e-9, 3.0833334e+2
-0.175, -7.7526590e-9, -2.5299245e-9, 3.0866669e+2
-0.174, -7.7616340e-9, -2.5279152e-9, 3.0900003e+2
-0.173, -7.7697830e-9, -2.5204696e-9, 3.0933337e+2
-0.172, -7.7860820e-9, -2.5113696e-9, 3.0966672e+2
-0.171, -7.7873805e-9, -2.5071150e-9, 3.1000006e+2
-0.170, -7.7968290e-9, -2.5030966e-9, 3.1033340e+2
-0.169, -7.8084028e-9, -2.4960056e-9, 3.1066675e+2
-0.168, -7.8095841e-9, -2.4902147e-9, 3.1100009e+2
-0.167, -7.8241111e-9, -2.4834783e-9, 3.1133344e+2
-0.166, -7.8303701e-9, -2.4765054e-9, 3.1166678e+2
-0.165, -7.8363938e-9, -2.4721325e-9, 3.1200012e+2
-0.164, -7.8526918e-9, -2.4694142e-9, 3.1233347e+2
-0.163, -7.8533997e-9, -2.4648052e-9, 3.1266681e+2
-0.162, -7.8634388e-9, -2.4592506e-9, 3.1300015e+2
-0.161, -7.8774933e-9, -2.4552322e-9, 3.1333350e+2
-0.160, -7.8833988e-9, -2.4521596e-9, 3.1366684e+2
-0.159, -7.8917850e-9, -2.4462505e-9, 3.1400018e+2
-0.158, -7.8972171e-9, -2.4424684e-9, 3.1433353e+2
-0.157, -7.8981612e-9, -2.4363229e-9, 3.1466687e+2
-0.156, -7.9087910e-9, -2.4328957e-9, 3.1500021e+2
-0.155, -7.9110345e-9, -2.4291138e-9, 3.1533356e+2
-0.154, -7.9234352e-9, -2.4278137e-9, 3.1566690e+2
-0.153, -7.9313489e-9, -2.4237954e-9, 3.1600024e+2
-0.152, -7.9339468e-9, -2.4187135e-9, 3.1633359e+2
-0.151, -7.9433953e-9, -2.4123317e-9, 3.1666693e+2
-0.150, -7.9478841e-9, -2.4059499e-9, 3.1700027e+2
-0.149, -7.9556779e-9, -2.4007496e-9, 3.1733362e+2
-0.148, -7.9660714e-9, -2.3993316e-9, 3.1766696e+2
-0.147, -7.9702049e-9, -2.3988587e-9, 3.1800031e+2
-0.146, -7.9792981e-9, -2.3955495e-9, 3.1833365e+2
-0.145, -7.9926448e-9, -2.3924769e-9, 3.1866699e+2
-0.144, -7.9914635e-9, -2.3875131e-9, 3.1900034e+2
-0.143, -8.0042186e-9, -2.3816038e-9, 3.1933368e+2
-0.142, -8.0117770e-9, -2.3782949e-9, 3.1966702e+2
-0.141, -8.0175635e-9, -2.3736857e-9, 3.2000037e+2
-0.140, -8.0292564e-9, -2.3723856e-9, 3.2033371e+2
-0.139, -8.0310283e-9, -2.3690765e-9, 3.2066705e+2
-0.138, -8.0377598e-9, -2.3650584e-9, 3.2100040e+2
-0.137, -8.0435472e-9, -2.3616311e-9, 3.2133374e+2
-0.136, -8.0533500e-9, -2.3543036e-9, 3.2166708e+2
-0.135, -8.0652782e-9, -2.3501669e-9, 3.2200043e+2
-0.134, -8.0720097e-9, -2.3487490e-9, 3.2233377e+2
-0.133, -8.0798053e-9, -2.3479216e-9, 3.2266711e+2
-0.132, -8.0912610e-9, -2.3459126e-9, 3.2300046e+2
-0.131, -8.0901978e-9, -2.3370488e-9, 3.2333380e+2
-0.130, -8.1002369e-9, -2.3376396e-9, 3.2366714e+2
-0.129, -8.1122833e-9, -2.3317304e-9, 3.2400049e+2
-0.128, -8.1127558e-9, -2.3251121e-9, 3.2433383e+2
-0.127, -8.1261007e-9, -2.3244031e-9, 3.2466718e+2
-0.126, -8.1355500e-9, -2.3246394e-9, 3.2500052e+2
-0.125, -8.1392111e-9, -2.3222757e-9, 3.2533386e+2
-0.124, -8.1497227e-9, -2.3163664e-9, 3.2566721e+2
-0.123, -8.1533837e-9, -2.3128213e-9, 3.2600055e+2
-0.122, -8.1644851e-9, -2.3102211e-9, 3.2633389e+2
-0.121, -8.1766505e-9, -2.3086846e-9, 3.2666724e+2
-0.120, -8.1796028e-9, -2.3062028e-9, 3.2700058e+2
-0.119, -8.1922389e-9, -2.2987572e-9, 3.2733392e+2
-0.118, -8.2013338e-9, -2.2980482e-9, 3.2766727e+2
-0.117, -8.2113729e-9, -2.2959210e-9, 3.2800061e+2
-0.116, -8.2263716e-9, -2.2924935e-9, 3.2833395e+2
-0.115, -8.2270795e-9, -2.2885935e-9, 3.2866730e+2
-0.114, -8.2404261e-9, -2.2869391e-9, 3.2900064e+2
-0.113, -8.2543616e-9, -2.2783113e-9, 3.2933398e+2
-0.112, -8.2550704e-9, -2.2781932e-9, 3.2966733e+2
-0.111, -8.2523544e-9, -2.2586930e-9, 3.3000067e+2
-0.110, -8.2906197e-9, -2.2846933e-9, 3.3033401e+2
-0.109, -8.2795175e-9, -2.2467566e-9, 3.3066736e+2
-0.108, -8.3149487e-9, -2.2763023e-9, 3.3100070e+2
-0.107, -8.3080982e-9, -2.2607021e-9, 3.3133405e+2
-0.106, -8.3323100e-9, -2.2707478e-9, 3.3166739e+2
-0.105, -8.3422309e-9, -2.2583384e-9, 3.3200073e+2
-0.104, -8.3495539e-9, -2.2553839e-9, 3.3233408e+2
-0.103, -8.3675058e-9, -2.2482931e-9, 3.3266742e+2
-0.102, -8.3841583e-9, -2.2435656e-9, 3.3300076e+2
-0.101, -8.3928970e-9, -2.2396653e-9, 3.3333411e+2
-0.100, -8.4101401e-9, -2.2384838e-9, 3.3366745e+2
-0.099, -8.4145100e-9, -2.2339928e-9, 3.3400079e+2
-0.098, -8.4330525e-9, -2.2335198e-9, 3.3433414e+2
-0.097, -8.4552561e-9, -2.2312743e-9, 3.3466748e+2
-0.096, -8.4673024e-9, -2.2300926e-9, 3.3500082e+2
-0.095, -8.4872616e-9, -2.2261926e-9, 3.3533417e+2
-0.094, -8.5045047e-9, -2.2187470e-9, 3.3566751e+2
-0.093, -8.5159604e-9, -2.2142561e-9, 3.3600085e+2
-0.092, -8.5378105e-9, -2.2148468e-9, 3.3633420e+2
-0.091, -8.5489118e-9, -2.2124833e-9, 3.3666754e+2
-0.090, -8.5683984e-9, -2.2105924e-9, 3.3700089e+2
-0.089, -8.5858787e-9, -2.2089377e-9, 3.3733423e+2
-0.088, -8.6007592e-9, -2.2059832e-9, 3.3766757e+2
-0.087, -8.6226093e-9, -2.2045650e-9, 3.3800092e+2
-0.086, -8.6391436e-9, -2.2036195e-9, 3.3833426e+2
-0.085, -8.6581577e-9, -2.2044466e-9, 3.3866760e+2
-0.084, -8.6833136e-9, -2.1955830e-9, 3.3900095e+2
-0.083, -8.6989038e-9, -2.1935740e-9, 3.3933429e+2
-0.082, -8.7209893e-9, -2.1918010e-9, 3.3966763e+2
-0.081, -8.7466177e-9, -2.1933375e-9, 3.4000098e+2
-0.080, -8.7617353e-9, -2.1873101e-9, 3.4033432e+2
-0.079, -8.7937408e-9, -2.1834101e-9, 3.4066766e+2
-0.078, -8.8135828e-9, -2.1816373e-9, 3.4100101e+2
-0.077, -8.8353138e-9, -2.1803375e-9, 3.4133435e+2
-0.076, -8.8660208e-9, -2.1769102e-9, 3.4166769e+2
-0.075, -8.8839718e-9, -2.1697006e-9, 3.4200104e+2
-0.074, -8.9131440e-9, -2.1652098e-9, 3.4233438e+2
-0.073, -8.9399528e-9, -2.1707645e-9, 3.4266772e+2
-0.072, -8.9626280e-9, -2.1684008e-9, 3.4300107e+2
-0.071, -8.9960519e-9, -2.1654463e-9, 3.4333441e+2
-0.070, -9.0247516e-9, -2.1660371e-9, 3.4366776e+2
-0.069, -9.0525054e-9, -2.1634370e-9, 3.4400110e+2
-0.068, -9.0828580e-9, -2.1600097e-9, 3.4433444e+2
-0.067, -9.1011643e-9, -2.1568189e-9, 3.4466779e+2
-0.066, -9.1286827e-9, -2.1485460e-9, 3.4500113e+2
-0.065, -9.1531289e-9, -2.1324731e-9, 3.4533447e+2
-0.064, -9.1817105e-9, -2.1253819e-9, 3.4566782e+2
-0.063, -9.2002530e-9, -2.0928814e-9, 3.4600116e+2
-0.062, -9.2727683e-9, -2.1433457e-9, 3.4633450e+2
-0.061, -9.3040660e-9, -2.1726552e-9, 3.4666785e+2
-0.060, -9.3501260e-9, -2.1770281e-9, 3.4700119e+2
-0.059, -9.3342996e-9, -2.1119091e-9, 3.4733453e+2
-0.058, -9.4225232e-9, -2.1698190e-9, 3.4766788e+2
-0.057, -9.4440189e-9, -2.1569369e-9, 3.4800122e+2
-0.056, -9.4736627e-9, -2.1422821e-9, 3.4833456e+2
-0.055, -9.5080308e-9, -2.1348368e-9, 3.4866791e+2
-0.054, -9.5407460e-9, -2.1266819e-9, 3.4900125e+2
-0.053, -9.5751140e-9, -2.1187638e-9, 3.4933459e+2
-0.052, -9.6164507e-9, -2.1178181e-9, 3.4966794e+2
-0.051, -9.6530615e-9, -2.1191182e-9, 3.5000128e+2
-0.050, -9.6910915e-9, -2.1180546e-9, 3.5033463e+2
-0.049, -9.7287662e-9, -2.1117910e-9, 3.5066797e+2
-0.048, -9.7624246e-9, -2.1110818e-9, 3.5100131e+2
-0.047, -9.8078949e-9, -2.1149817e-9, 3.5133466e+2
-0.046, -9.8502948e-9, -2.1136817e-9, 3.5166800e+2
-0.045, -9.8885602e-9, -2.1108455e-9, 3.5200134e+2
-0.044, -9.9350927e-9, -2.1096633e-9, 3.5233469e+2
-0.043, -9.9676889e-9, -2.1041089e-9, 3.5266803e+2
-0.042, -1.0004184e-8, -2.1024544e-9, 3.5300137e+2
-0.041, -1.0047410e-8, -2.0984361e-9, 3.5333472e+2
-0.040, -1.0085556e-8, -2.0944178e-9, 3.5366806e+2
-0.039, -1.0134098e-8, -2.0944178e-9, 3.5400140e+2
-0.038, -1.0174725e-8, -2.0934723e-9, 3.5433475e+2
-0.037, -1.0218305e-8, -2.0903996e-9, 3.5466809e+2
-0.036, -1.0265192e-8, -2.0860269e-9, 3.5500143e+2
-0.035, -1.0304166e-8, -2.0836632e-9, 3.5533478e+2
-0.034, -1.0348338e-8, -2.0789359e-9, 3.5566812e+2
-0.033, -1.0395697e-8, -2.0776358e-9, 3.5600146e+2
-0.032, -1.0439513e-8, -2.0751540e-9, 3.5633481e+2
-0.031, -1.0492187e-8, -2.0700719e-9, 3.5666815e+2
-0.030, -1.0538602e-8, -2.0693631e-9, 3.5700150e+2
-0.029, -1.0582654e-8, -2.0705448e-9, 3.5733484e+2
-0.028, -1.0632967e-8, -2.0682995e-9, 3.5766818e+2
-0.027, -1.0674067e-8, -2.0656994e-9, 3.5800153e+2
-0.026, -1.0718002e-8, -2.0619173e-9, 3.5833487e+2
-0.025, -1.0774337e-8, -2.0590809e-9, 3.5866821e+2
-0.024, -1.0799493e-8, -2.0314259e-9, 3.5900156e+2
-0.023, -1.0868820e-8, -2.0551811e-9, 3.5933490e+2
-0.022, -1.0912636e-8, -2.0587263e-9, 3.5966824e+2
-0.021, -1.0947949e-8, -2.0368625e-9, 3.6000159e+2
-0.020, -1.1016214e-8, -2.0680628e-9, 3.6033493e+2
-0.019, -1.1048101e-8, -2.0499809e-9, 3.6066827e+2
-0.018, -1.1113176e-8, -2.0705448e-9, 3.6100162e+2
-0.017, -1.1144355e-8, -2.0480899e-9, 3.6133496e+2
-0.016, -1.1183920e-8, -2.0465534e-9, 3.6166830e+2
-0.015, -1.1230925e-8, -2.0450170e-9, 3.6200165e+2
-0.014, -1.1272379e-8, -2.0347350e-9, 3.6233499e+2
-0.013, -1.1307338e-8, -2.0300077e-9, 3.6266833e+2
-0.012, -1.1356942e-8, -2.0223259e-9, 3.6300168e+2
-0.011, -1.1384341e-8, -2.0102711e-9, 3.6333502e+2
-0.010, -1.1441622e-8, -2.0237441e-9, 3.6366837e+2
-0.009, -1.1501028e-8, -2.0545901e-9, 3.6400171e+2
-0.008, -1.1529019e-8, -2.0336717e-9, 3.6433505e+2
-0.007, -1.1567875e-8, -2.0251623e-9, 3.6466840e+2
-0.006, -1.1611337e-8, -2.0320170e-9, 3.6500174e+2
-0.005, -1.1643343e-8, -2.0227986e-9, 3.6533508e+2
-0.004, -1.1685742e-8, -2.0200803e-9, 3.6566843e+2
-0.003, -1.1712905e-8, -2.0190167e-9, 3.6600177e+2
-0.002, -1.1752352e-8, -2.0165349e-9, 3.6633511e+2
-0.001, -1.1790263e-8, -2.0147621e-9, 3.6666846e+2
-0.000, -1.1850142e-8, -2.0186621e-9, 3.6700180e+2
0.001, -1.1873881e-8, -2.0159441e-9, 3.6733514e+2
0.002, -1.1897147e-8, -2.0142894e-9, 3.6766849e+2
0.003, -1.1918407e-8, -2.0112167e-9, 3.6800183e+2
0.004, -1.1947813e-8, -2.0079074e-9, 3.6833517e+2
0.005, -1.1959033e-8, -1.9967983e-9, 3.6866852e+2
0.006, -1.1997063e-8, -1.9979802e-9, 3.6900186e+2
0.007, -1.2023400e-8, -2.0028257e-9, 3.6933521e+2
0.008, -1.2043832e-8, -2.0054256e-9, 3.6966855e+2
0.009, -1.2068515e-8, -2.0038893e-9, 3.7000189e+2
0.010, -1.2090364e-8, -1.9990438e-9, 3.7033524e+2
0.011, -1.2112922e-8, -1.9947890e-9, 3.7066858e+2
0.012, -1.2139849e-8, -1.9944346e-9, 3.7100192e+2
0.013, -1.2150715e-8, -1.9914801e-9, 3.7133527e+2
0.014, -1.2172328e-8, -1.9892346e-9, 3.7166861e+2
0.015, -1.2195241e-8, -1.9841526e-9, 3.7200195e+2
0.016, -1.2204452e-8, -1.9802524e-9, 3.7233530e+2
0.017, -1.2232915e-8, -1.9768254e-9, 3.7266864e+2
0.018, -1.2257363e-8, -1.9768254e-9, 3.7300198e+2
0.019, -1.2279330e-8, -1.9767070e-9, 3.7333533e+2
0.020, -1.2306139e-8, -1.9742252e-9, 3.7366867e+2
0.021, -1.2320548e-8, -1.9718616e-9, 3.7400201e+2
0.022, -1.2344642e-8, -1.9730435e-9, 3.7433536e+2
0.023, -1.2371924e-8, -1.9718616e-9, 3.7466870e+2
0.024, -1.2390111e-8, -1.9685527e-9, 3.7500204e+2
0.025, -1.2415621e-8, -1.9651252e-9, 3.7533539e+2
0.026, -1.2440659e-8, -1.9642978e-9, 3.7566873e+2
0.027, -1.2461445e-8, -1.9562614e-9, 3.7600208e+2
0.028, -1.2490380e-8, -1.9535431e-9, 3.7633542e+2
0.029, -1.2507742e-8, -1.9520068e-9, 3.7666876e+2
0.030, -1.2526402e-8, -1.9306154e-9, 3.7700211e+2
0.031, -1.2577186e-8, -1.9652433e-9, 3.7733545e+2
0.032, -1.2579903e-8, -1.9365245e-9, 3.7766879e+2
0.033, -1.2640609e-8, -1.9737525e-9, 3.7800214e+2
0.034, -1.2641199e-8, -1.9388884e-9, 3.7833548e+2
0.035, -1.2696944e-8, -1.9718616e-9, 3.7866882e+2
0.036, -1.2709109e-8, -1.9401885e-9, 3.7900217e+2
0.037, -1.2740997e-8, -1.9398338e-9, 3.7933551e+2
0.038, -1.2758358e-8, -1.9197426e-9, 3.7966885e+2
0.039, -1.2814930e-8, -1.9424338e-9, 3.8000220e+2
0.040, -1.2834889e-8, -1.9239972e-9, 3.8033554e+2
0.041, -1.2882130e-8, -1.9299065e-9, 3.8066888e+2
0.042, -1.2941537e-8, -1.9755253e-9, 3.8100223e+2
0.043, -1.2968819e-8, -1.9484614e-9, 3.8133557e+2
0.044, -1.3012162e-8, -1.9403066e-9, 3.8166891e+2
0.045, -1.3050310e-8, -1.9304973e-9, 3.8200226e+2
0.046, -1.3097789e-8, -1.9325064e-9, 3.8233560e+2
0.047, -1.3142312e-8, -1.9228152e-9, 3.8266895e+2
0.048, -1.3177154e-8, -1.9180881e-9, 3.8300229e+2
0.049, -1.3228764e-8, -1.9138335e-9, 3.8333563e+2
0.050, -1.3277894e-8, -1.9096971e-9, 3.8366898e+2
0.051, -1.3328208e-8, -1.9141879e-9, 3.8400232e+2
0.052, -1.3385016e-8, -1.9130060e-9, 3.8433566e+2
0.053, -1.3427178e-8, -1.9109969e-9, 3.8466901e+2
0.054, -1.3478672e-8, -1.9111153e-9, 3.8500235e+2
0.055, -1.3533827e-8, -1.9059152e-9, 3.8533569e+2
0.056, -1.3583547e-8, -1.9066242e-9, 3.8566904e+2
0.057, -1.3644961e-8, -1.9048516e-9, 3.8600238e+2
0.058, -1.3707910e-8, -1.9004787e-9, 3.8633572e+2
0.059, -1.3765899e-8, -1.8978785e-9, 3.8666907e+2
0.060, -1.3832038e-8, -1.8997695e-9, 3.8700241e+2
0.061, -1.3882939e-8, -1.8959878e-9, 3.8733575e+2
0.062, -1.3951558e-8, -1.8893695e-9, 3.8766910e+2
0.063, -1.4021002e-8, -1.8859421e-9, 3.8800244e+2
0.064, -1.4084189e-8, -1.8874784e-9, 3.8833578e+2
0.065, -1.4162136e-8, -1.8845239e-9, 3.8866913e+2
0.066, -1.4234770e-8, -1.8810966e-9, 3.8900247e+2
0.067, -1.4305514e-8, -1.8779056e-9, 3.8933582e+2
0.068, -1.4390549e-8, -1.8777873e-9, 3.8966916e+2
0.069, -1.4458931e-8, -1.8782600e-9, 3.9000250e+2
0.070, -1.4543138e-8, -1.8758965e-9, 3.9033585e+2
0.071, -1.4625102e-8, -1.8717601e-9, 3.9066919e+2
0.072, -1.4699035e-8, -1.8699873e-9, 3.9100253e+2
0.073, -1.4789857e-8, -1.8703421e-9, 3.9133588e+2
0.074, -1.4877371e-8, -1.8688053e-9, 3.9166922e+2
0.075, -1.4962524e-8, -1.8658508e-9, 3.9200256e+2
0.076, -1.5057125e-8, -1.8633692e-9, 3.9233591e+2
0.077, -1.5140387e-8, -1.8567509e-9, 3.9266925e+2
0.078, -1.5248100e-8, -1.8594690e-9, 3.9300259e+2
0.079, -1.5343881e-8, -1.8528507e-9, 3.9333594e+2
0.080, -1.5437301e-8, -1.8553327e-9, 3.9366928e+2
0.081, -1.5542057e-8, -1.8530872e-9, 3.9400262e+2
0.082, -1.5641856e-8, -1.8500143e-9, 3.9433597e+2
0.083, -1.5735393e-8, -1.8478868e-9, 3.9466931e+2
0.084, -1.5842513e-8, -1.8445777e-9, 3.9500266e+2
0.085, -1.5936406e-8, -1.8422142e-9, 3.9533600e+2
0.086, -1.6038683e-8, -1.8406778e-9, 3.9566934e+2
0.087, -1.6148757e-8, -1.8390232e-9, 3.9600269e+2
0.088, -1.6249972e-8, -1.8340596e-9, 3.9633603e+2
0.089, -1.6362286e-8, -1.8300412e-9, 3.9666937e+2
0.090, -1.6473541e-8, -1.8262594e-9, 3.9700272e+2
0.091, -1.6587276e-8, -1.8240139e-9, 3.9733606e+2
0.092, -1.6709274e-8, -1.8214138e-9, 3.9766940e+2
0.093, -1.6816159e-8, -1.8191684e-9, 3.9800275e+2
0.094, -1.6938868e-8, -1.8159774e-9, 3.9833609e+2
0.095, -1.7064767e-8, -1.8119590e-9, 3.9866943e+2
0.096, -1.7181335e-8, -1.8087684e-9, 3.9900278e+2
0.097, -1.7305343e-8, -1.8029772e-9, 3.9933612e+2
0.098, -1.7422030e-8, -1.8021500e-9, 3.9966946e+2
0.099, -1.7539424e-8, -1.7973043e-9, 4.0000281e+2
