Dec. 15, 2005   03:02:41
Cyclic Voltammetry
File: d:\ida_biofilms\12_04_18_psoralenbiofilm\control\control_75um_pyo_transfer_gc.txt
Data Source:  Experiment
Instrument Model:  CHI760B
Header: 
Note: 

Init E (V) = 0.1
High E (V) = 0.1
Low E (V) = -0.5
Init P/N = N
Scan Rate (V/s) = 0.003
Segment = 2
Sample Interval (V) = 0.001
Quiet Time (sec) = 2
Sensitivity (A/V) = 1e-7
2nd E (V) = 0.1
Sens 2 (A/V) = 1e-7

Potential/V, i1/A, i2/A, Time/s

0.100, -5.1715869e-8, -5.0935192e-8, 3.3333334e-1
0.099, -4.7209980e-8, -4.7704884e-8, 6.6666669e-1
0.098, -4.3715303e-8, -4.4929457e-8, 1.0000000e+0
0.097, -4.0781138e-8, -4.2542506e-8, 1.3333334e+0
0.096, -3.8247816e-8, -4.0467910e-8, 1.6666667e+0
0.095, -3.6025817e-8, -3.8645755e-8, 2.0000000e+0
0.094, -3.4077697e-8, -3.7031960e-8, 2.3333333e+0
0.093, -3.2306264e-8, -3.5599221e-8, 2.6666665e+0
0.092, -3.0692497e-8, -3.4317519e-8, 2.9999998e+0
0.091, -2.9230019e-8, -3.3152585e-8, 3.3333330e+0
0.090, -2.7878443e-8, -3.2096850e-8, 3.6666663e+0
0.089, -2.6628909e-8, -3.1121363e-8, 3.9999995e+0
0.088, -2.5467600e-8, -3.0216196e-8, 4.3333330e+0
0.087, -2.4381990e-8, -2.9385838e-8, 4.6666665e+0
0.086, -2.3376337e-8, -2.8617526e-8, 5.0000000e+0
0.085, -2.2418989e-8, -2.7902518e-8, 5.3333335e+0
0.084, -2.1519751e-8, -2.7228634e-8, 5.6666670e+0
0.083, -2.0685231e-8, -2.6594934e-8, 6.0000005e+0
0.082, -1.9877756e-8, -2.5996687e-8, 6.3333340e+0
0.081, -1.9139726e-8, -2.5435082e-8, 6.6666675e+0
0.080, -1.8431814e-8, -2.4904791e-8, 7.0000010e+0
0.079, -1.7742327e-8, -2.4406646e-8, 7.3333344e+0
0.078, -1.7099607e-8, -2.3925166e-8, 7.6666679e+0
0.077, -1.6480271e-8, -2.3470633e-8, 8.0000010e+0
0.076, -1.5883259e-8, -2.3033945e-8, 8.3333340e+0
0.075, -1.5320259e-8, -2.2608484e-8, 8.6666670e+0
0.074, -1.4771786e-8, -2.2207015e-8, 9.0000000e+0
0.073, -1.4247290e-8, -2.1821618e-8, 9.3333330e+0
0.072, -1.3747830e-8, -2.1449694e-8, 9.6666660e+0
0.071, -1.3263723e-8, -2.1092898e-8, 9.9999990e+0
0.070, -1.2807488e-8, -2.0753948e-8, 1.0333332e+1
0.069, -1.2357514e-8, -2.0424807e-8, 1.0666665e+1
0.068, -1.1926673e-8, -2.0104530e-8, 1.0999998e+1
0.067, -1.1523940e-8, -1.9794296e-8, 1.1333331e+1
0.066, -1.1118726e-8, -1.9493401e-8, 1.1666664e+1
0.065, -1.0730756e-8, -1.9204089e-8, 1.1999997e+1
0.064, -1.0365462e-8, -1.8926002e-8, 1.2333330e+1
0.063, -1.0001822e-8, -1.8667299e-8, 1.2666663e+1
0.062, -9.6638093e-9, -1.8404931e-8, 1.2999996e+1
0.061, -9.3337098e-9, -1.8151782e-8, 1.3333329e+1
0.060, -9.0106971e-9, -1.7911514e-8, 1.3666662e+1
0.059, -8.7052818e-9, -1.7678575e-8, 1.3999995e+1
0.058, -8.4015195e-9, -1.7450716e-8, 1.4333328e+1
0.057, -8.0982288e-9, -1.7225931e-8, 1.4666661e+1
0.056, -7.8232842e-9, -1.7005283e-8, 1.4999994e+1
0.055, -7.5444415e-9, -1.6798344e-8, 1.5333327e+1
0.054, -7.2893380e-9, -1.6593530e-8, 1.5666660e+1
0.053, -7.0249042e-9, -1.6392146e-8, 1.5999993e+1
0.052, -6.7695640e-9, -1.6196790e-8, 1.6333326e+1
0.051, -6.5327677e-9, -1.6010532e-8, 1.6666660e+1
0.050, -6.2966778e-9, -1.5828766e-8, 1.6999994e+1
0.049, -6.0681473e-9, -1.5650427e-8, 1.7333328e+1
0.048, -5.8495382e-9, -1.5473741e-8, 1.7666662e+1
0.047, -5.6283298e-9, -1.5300248e-8, 1.7999996e+1
0.046, -5.4281446e-9, -1.5132901e-8, 1.8333330e+1
0.045, -5.2200462e-9, -1.4970162e-8, 1.8666664e+1
0.044, -5.0153726e-9, -1.4805297e-8, 1.8999998e+1
0.043, -4.8294782e-9, -1.4649530e-8, 1.9333332e+1
0.042, -4.6394493e-9, -1.4503573e-8, 1.9666666e+1
0.041, -4.4540269e-9, -1.4358445e-8, 2.0000000e+1
0.040, -4.2748640e-9, -1.4214614e-8, 2.0333334e+1
0.039, -4.0968815e-9, -1.4071848e-8, 2.0666668e+1
0.038, -3.9325996e-9, -1.3936174e-8, 2.1000002e+1
0.037, -3.7635939e-9, -1.3802391e-8, 2.1333336e+1
0.036, -3.6127754e-9, -1.3672034e-8, 2.1666670e+1
0.035, -3.4691614e-9, -1.3542977e-8, 2.2000004e+1
0.034, -3.3080683e-9, -1.3414985e-8, 2.2333338e+1
0.033, -3.1574861e-9, -1.3291365e-8, 2.2666672e+1
0.032, -3.0143448e-9, -1.3172708e-8, 2.3000006e+1
0.031, -2.8615188e-9, -1.3053933e-8, 2.3333340e+1
0.030, -2.7258178e-9, -1.2939886e-8, 2.3666674e+1
0.029, -2.5864557e-9, -1.2831395e-8, 2.4000008e+1
0.028, -2.4473297e-9, -1.2720775e-8, 2.4333342e+1
0.027, -2.3175339e-9, -1.2610863e-8, 2.4666676e+1
0.026, -2.1860846e-9, -1.2502016e-8, 2.5000010e+1
0.025, -2.0587689e-9, -1.2400143e-8, 2.5333344e+1
0.024, -1.9353510e-9, -1.2293777e-8, 2.5666677e+1
0.023, -1.8082715e-9, -1.2192376e-8, 2.6000011e+1
0.022, -1.6960733e-9, -1.2088493e-8, 2.6333345e+1
0.021, -1.5784420e-9, -1.1988982e-8, 2.6666679e+1
0.020, -1.4643540e-9, -1.1891363e-8, 2.7000013e+1
0.019, -1.3564073e-9, -1.1798588e-8, 2.7333347e+1
0.018, -1.2399574e-9, -1.1702624e-8, 2.7666681e+1
0.017, -1.1305935e-9, -1.1610795e-8, 2.8000015e+1
0.016, -1.0277253e-9, -1.1526530e-8, 2.8333349e+1
0.015, -9.1729846e-10, -1.1438010e-8, 2.8666683e+1
0.014, -8.2009927e-10, -1.1352918e-8, 2.9000017e+1
0.013, -7.1829409e-10, -1.1269953e-8, 2.9333351e+1
0.012, -6.1873279e-10, -1.1189824e-8, 2.9666685e+1
0.011, -5.2342325e-10, -1.1107451e-8, 3.0000019e+1
0.010, -4.2386200e-10, -1.1022713e-8, 3.0333353e+1
0.009, -3.2902486e-10, -1.0940338e-8, 3.0666687e+1
0.008, -2.3076271e-10, -1.0863284e-8, 3.1000021e+1
0.007, -1.4029543e-10, -1.0788238e-8, 3.1333355e+1
0.006, -5.3371228e-11, -1.0713899e-8, 3.1666689e+1
0.005, 3.9576249e-11, -1.0636253e-8, 3.2000023e+1
0.004, 1.3252373e-10, -1.0561442e-8, 3.2333355e+1
0.003, 2.1082638e-10, -1.0495142e-8, 3.2666687e+1
0.002, 3.0235658e-10, -1.0422577e-8, 3.3000019e+1
0.001, 3.8928080e-10, -1.0356630e-8, 3.3333351e+1
-0.000, 4.9699123e-10, -1.0284539e-8, 3.3666683e+1
-0.001, 5.7175070e-10, -1.0215755e-8, 3.4000015e+1
-0.002, 6.4674649e-10, -1.0147919e-8, 3.4333347e+1
-0.003, 7.2115169e-10, -1.0086109e-8, 3.4666679e+1
-0.004, 8.0122586e-10, -1.0025007e-8, 3.5000011e+1
-0.005, 8.7539487e-10, -9.9616617e-9, 3.5333344e+1
-0.006, 9.6031127e-10, -9.9003241e-9, 3.5666676e+1
-0.007, 1.0354252e-9, -9.8392228e-9, 3.6000008e+1
-0.008, 1.1101847e-9, -9.7761133e-9, 3.6333340e+1
-0.009, 1.1895502e-9, -9.7134754e-9, 3.6666672e+1
-0.010, 1.2568693e-9, -9.6561568e-9, 3.7000004e+1
-0.011, 1.3351719e-9, -9.5994279e-9, 3.7333336e+1
-0.012, 1.4132383e-9, -9.5427009e-9, 3.7666668e+1
-0.013, 1.4809117e-9, -9.4876276e-9, 3.8000000e+1
-0.014, 1.5555531e-9, -9.4298347e-9, 3.8333332e+1
-0.015, 1.6248798e-9, -9.3733430e-9, 3.8666664e+1
-0.016, 1.6944429e-9, -9.3200425e-9, 3.8999996e+1
-0.017, 1.7695567e-9, -9.2640233e-9, 3.9333328e+1
-0.018, 1.8329782e-9, -9.2129682e-9, 3.9666660e+1
-0.019, 1.9030137e-9, -9.1571852e-9, 3.9999992e+1
-0.020, 1.9747024e-9, -9.1061301e-9, 4.0333324e+1
-0.021, 2.0342266e-9, -9.0588568e-9, 4.0666656e+1
-0.022, 2.1043802e-9, -9.0104022e-9, 4.0999989e+1
-0.023, 2.1695734e-9, -8.9620640e-9, 4.1333321e+1
-0.024, 2.2339399e-9, -8.9145544e-9, 4.1666653e+1
-0.025, 2.3011406e-9, -8.8688177e-9, 4.1999985e+1
-0.026, 2.3557045e-9, -8.8217806e-9, 4.2333317e+1
-0.027, 2.4185356e-9, -8.7723802e-9, 4.2666649e+1
-0.028, 2.4855000e-9, -8.7245162e-9, 4.2999981e+1
-0.029, 2.5375839e-9, -8.6794874e-9, 4.3333313e+1
-0.030, 2.6013598e-9, -8.6371781e-9, 4.3666645e+1
-0.031, 2.6731668e-9, -8.5848226e-9, 4.3999977e+1
-0.032, 2.7286753e-9, -8.5493674e-9, 4.4333309e+1
-0.033, 2.7863098e-9, -8.5122576e-9, 4.4666641e+1
-0.034, 2.8654392e-9, -8.4173566e-9, 4.4999973e+1
-0.035, 2.8752418e-9, -8.5004395e-9, 4.5333305e+1
-0.036, 2.9913378e-9, -8.3219831e-9, 4.5666637e+1
-0.037, 2.9948808e-9, -8.3557818e-9, 4.5999969e+1
-0.038, 3.0724747e-9, -8.2847551e-9, 4.6333302e+1
-0.039, 3.1397935e-9, -8.2048626e-9, 4.6666634e+1
-0.040, 3.1516041e-9, -8.3093363e-9, 4.6999966e+1
-0.041, 3.2384102e-9, -8.1845348e-9, 4.7333298e+1
-0.042, 3.2614402e-9, -8.1796889e-9, 4.7666630e+1
-0.043, 3.3280507e-9, -8.1164613e-9, 4.7999962e+1
-0.044, 3.3888743e-9, -8.0620968e-9, 4.8333294e+1
-0.045, 3.4400127e-9, -8.0077323e-9, 4.8666626e+1
-0.046, 3.4919785e-9, -7.9654221e-9, 4.8999958e+1
-0.047, 3.5405190e-9, -7.9291400e-9, 4.9333290e+1
-0.048, 3.5830363e-9, -7.8964035e-9, 4.9666622e+1
-0.049, 3.6357106e-9, -7.8577571e-9, 4.9999954e+1
-0.050, 3.6803536e-9, -7.8172206e-9, 5.0333286e+1
-0.051, 3.7330277e-9, -7.7766833e-9, 5.0666618e+1
-0.052, 3.7814503e-9, -7.7401650e-9, 5.0999950e+1
-0.053, 3.8159369e-9, -7.7063644e-9, 5.1333282e+1
-0.054, 3.8638865e-9, -7.6758733e-9, 5.1666615e+1
-0.055, 3.9086476e-9, -7.6401818e-9, 5.1999947e+1
-0.056, 3.9555346e-9, -7.6277722e-9, 5.2333279e+1
-0.057, 4.0019499e-9, -7.6230453e-9, 5.2666611e+1
-0.058, 4.0390340e-9, -7.5349984e-9, 5.2999943e+1
-0.059, 4.0754098e-9, -7.4967064e-9, 5.3333275e+1
-0.060, 4.1167465e-9, -7.4746058e-9, 5.3666607e+1
-0.061, 4.1453272e-9, -7.4437603e-9, 5.3999939e+1
-0.062, 4.1898525e-9, -7.4168147e-9, 5.4333271e+1
-0.063, 4.2334327e-9, -7.3805317e-9, 5.4666603e+1
-0.064, 4.2859885e-9, -7.3174222e-9, 5.4999935e+1
-0.065, 4.3034678e-9, -7.3109225e-9, 5.5333267e+1
-0.066, 4.3357100e-9, -7.3000490e-9, 5.5666599e+1
-0.067, 4.3785815e-9, -7.2592758e-9, 5.5999931e+1
-0.068, 4.4129500e-9, -7.2402484e-9, 5.6333263e+1
-0.069, 4.4324371e-9, -7.2403661e-9, 5.6666595e+1
-0.070, 4.4838120e-9, -7.1887203e-9, 5.6999928e+1
-0.071, 4.5231405e-9, -7.1399100e-9, 5.7333260e+1
-0.072, 4.5643582e-9, -7.0903918e-9, 5.7666592e+1
-0.073, 4.5999076e-9, -7.0548176e-9, 5.7999924e+1
-0.074, 4.6180952e-9, -7.0471362e-9, 5.8333256e+1
-0.075, 4.6503379e-9, -7.0308270e-9, 5.8666588e+1
-0.076, 4.6852966e-9, -7.0061268e-9, 5.8999920e+1
-0.077, 4.7070272e-9, -6.9762263e-9, 5.9333252e+1
-0.078, 4.7370259e-9, -6.9516441e-9, 5.9666584e+1
-0.079, 4.7640714e-9, -6.9369896e-9, 5.9999916e+1
-0.080, 4.7862749e-9, -6.9142976e-9, 6.0333248e+1
-0.081, 4.8286739e-9, -6.8695067e-9, 6.0666580e+1
-0.082, 4.8527675e-9, -6.8380701e-9, 6.0999912e+1
-0.083, 4.8854822e-9, -6.8033241e-9, 6.1333244e+1
-0.084, 4.9281175e-9, -6.7452954e-9, 6.1666576e+1
-0.085, 4.9389830e-9, -6.7458861e-9, 6.1999908e+1
-0.086, 4.9544546e-9, -6.7766139e-9, 6.2333241e+1
-0.087, 5.0039399e-9, -6.7314687e-9, 6.2666573e+1
-0.088, 5.0177578e-9, -6.7703501e-9, 6.2999905e+1
-0.089, 5.0388986e-9, -6.7539232e-9, 6.3333237e+1
-0.090, 5.0664171e-9, -6.6479124e-9, 6.3666569e+1
-0.091, 5.0925175e-9, -6.6299486e-9, 6.3999901e+1
-0.092, 5.1218070e-9, -6.6099757e-9, 6.4333237e+1
-0.093, 5.1391682e-9, -6.5845662e-9, 6.4666573e+1
-0.094, 5.1666866e-9, -6.5573844e-9, 6.4999908e+1
-0.095, 5.1934959e-9, -6.5365837e-9, 6.5333244e+1
-0.096, 5.2162896e-9, -6.5042012e-9, 6.5666580e+1
-0.097, 5.2448708e-9, -6.4828098e-9, 6.5999916e+1
-0.098, 5.2647122e-9, -6.4590551e-9, 6.6333252e+1
-0.099, 5.2893960e-9, -6.4670913e-9, 6.6666588e+1
-0.100, 5.3138436e-9, -6.2777619e-9, 6.6999924e+1
-0.101, 5.3413616e-9, -6.2932433e-9, 6.7333260e+1
-0.102, 5.3669900e-9, -6.3242069e-9, 6.7666595e+1
-0.103, 5.3891935e-9, -6.3081349e-9, 6.7999931e+1
-0.104, 5.4054916e-9, -6.2930070e-9, 6.8333267e+1
-0.105, 5.4363167e-9, -6.2683068e-9, 6.8666603e+1
-0.106, 5.4286402e-9, -6.2769341e-9, 6.8999939e+1
-0.107, 5.4653699e-9, -6.2332060e-9, 6.9333275e+1
-0.108, 5.4882827e-9, -6.2197332e-9, 6.9666611e+1
-0.109, 5.5038720e-9, -6.1984600e-9, 6.9999947e+1
-0.110, 5.5237135e-9, -6.1931420e-9, 7.0333282e+1
-0.111, 5.5422555e-9, -6.1738779e-9, 7.0666618e+1
-0.112, 5.5571365e-9, -6.1555596e-9, 7.0999954e+1
-0.113, 5.5837104e-9, -6.1326317e-9, 7.1333290e+1
-0.114, 5.6042597e-9, -6.1046221e-9, 7.1666626e+1
-0.115, 5.6218576e-9, -6.0938676e-9, 7.1999962e+1
-0.116, 5.6382738e-9, -6.0808678e-9, 7.2333298e+1
-0.117, 5.6556351e-9, -6.0497856e-9, 7.2666634e+1
-0.118, 5.6719331e-9, -6.0317031e-9, 7.2999969e+1
-0.119, 5.6896492e-9, -6.0157483e-9, 7.3333305e+1
-0.120, 5.7080731e-9, -5.9943575e-9, 7.3666641e+1
-0.121, 5.7305130e-9, -5.9778116e-9, 7.3999977e+1
-0.122, 5.7455121e-9, -5.9576020e-9, 7.4333313e+1
-0.123, 5.7653531e-9, -5.9405836e-9, 7.4666649e+1
-0.124, 5.7838956e-9, -5.9249832e-9, 7.4999985e+1
-0.125, 5.7949974e-9, -5.9076104e-9, 7.5333321e+1
-0.126, 5.8155476e-9, -5.8885830e-9, 7.5666656e+1
-0.127, 5.8331446e-9, -5.8714460e-9, 7.5999992e+1
-0.128, 5.8458998e-9, -5.8532459e-9, 7.6333328e+1
-0.129, 5.8683391e-9, -5.8322089e-9, 7.6666664e+1
-0.130, 5.8818030e-9, -5.8138907e-9, 7.7000000e+1
-0.131, 5.8977476e-9, -5.7965179e-9, 7.7333336e+1
-0.132, 5.9172343e-9, -5.7818634e-9, 7.7666672e+1
-0.133, 5.9298713e-9, -5.7638991e-9, 7.8000008e+1
-0.134, 5.9474687e-9, -5.7484173e-9, 7.8333344e+1
-0.135, 5.9644760e-9, -5.7316352e-9, 7.8666679e+1
-0.136, 5.9794747e-9, -5.7129617e-9, 7.9000015e+1
-0.137, 5.9989622e-9, -5.6965344e-9, 7.9333351e+1
-0.138, 6.0067569e-9, -5.6789253e-9, 7.9666687e+1
-0.139, 6.0258896e-9, -5.6601341e-9, 8.0000023e+1
-0.140, 6.0459673e-9, -5.6429976e-9, 8.0333359e+1
-0.141, 6.0534080e-9, -5.6273977e-9, 8.0666695e+1
-0.142, 6.0710050e-9, -5.6123879e-9, 8.1000031e+1
-0.143, 6.0887206e-9, -5.5924150e-9, 8.1333366e+1
-0.144, 6.0985230e-9, -5.5755147e-9, 8.1666702e+1
-0.145, 6.1209628e-9, -5.5576685e-9, 8.2000038e+1
-0.146, 6.1295844e-9, -5.5428959e-9, 8.2333374e+1
-0.147, 6.1501342e-9, -5.5283591e-9, 8.2666710e+1
-0.148, 6.1653700e-9, -5.5159504e-9, 8.3000046e+1
-0.149, 6.1765895e-9, -5.4995226e-9, 8.3333382e+1
-0.150, 6.1898171e-9, -5.4843952e-9, 8.3666718e+1
-0.151, 6.2059975e-9, -5.4710405e-9, 8.4000053e+1
-0.152, 6.2218231e-9, -5.4559126e-9, 8.4333389e+1
-0.153, 6.2460344e-9, -5.4367670e-9, 8.4666725e+1
-0.154, 6.2502861e-9, -5.4288489e-9, 8.5000061e+1
-0.155, 6.2713088e-9, -5.4094667e-9, 8.5333397e+1
-0.156, 6.2941030e-9, -5.3812208e-9, 8.5666733e+1
-0.157, 6.2922130e-9, -5.3872480e-9, 8.6000069e+1
-0.158, 6.3226842e-9, -5.3522657e-9, 8.6333405e+1
-0.159, 6.3257546e-9, -5.3509659e-9, 8.6666740e+1
-0.160, 6.3405170e-9, -5.3554570e-9, 8.7000076e+1
-0.161, 6.3643748e-9, -5.3059379e-9, 8.7333412e+1
-0.162, 6.3631931e-9, -5.3327653e-9, 8.7666748e+1
-0.163, 6.3993335e-9, -5.2810014e-9, 8.8000084e+1
-0.164, 6.3964984e-9, -5.2968376e-9, 8.8333420e+1
-0.165, 6.4103163e-9, -5.2867923e-9, 8.8666756e+1
-0.166, 6.4312213e-9, -5.2700098e-9, 8.9000092e+1
-0.167, 6.4488179e-9, -5.2561826e-9, 8.9333427e+1
-0.168, 6.4619283e-9, -5.2394009e-9, 8.9666763e+1
-0.169, 6.4849579e-9, -5.2240368e-9, 9.0000099e+1
-0.170, 6.4945245e-9, -5.2095004e-9, 9.0333435e+1
-0.171, 6.5154286e-9, -5.1961457e-9, 9.0666771e+1
-0.172, 6.5368049e-9, -5.1839724e-9, 9.1000107e+1
-0.173, 6.5476708e-9, -5.1677813e-9, 9.1333443e+1
-0.174, 6.5651506e-9, -5.1538356e-9, 9.1666779e+1
-0.175, 6.5872356e-9, -5.1415445e-9, 9.2000114e+1
-0.176, 6.6035337e-9, -5.1299627e-9, 9.2333450e+1
-0.177, 6.6249108e-9, -5.1182623e-9, 9.2666786e+1
-0.178, 6.6408545e-9, -5.1060898e-9, 9.3000122e+1
-0.179, 6.6602239e-9, -5.0963989e-9, 9.3333458e+1
-0.180, 6.6817178e-9, -5.0845803e-9, 9.3666794e+1
-0.181, 6.6956551e-9, -5.0738258e-9, 9.4000130e+1
-0.182, 6.7166770e-9, -5.0611799e-9, 9.4333466e+1
-0.183, 6.7397075e-9, -5.0510160e-9, 9.4666801e+1
-0.184, 6.7588406e-9, -5.0390794e-9, 9.5000137e+1
-0.185, 6.7855312e-9, -5.0303335e-9, 9.5333473e+1
-0.186, 6.8006485e-9, -5.0188702e-9, 9.5666809e+1
-0.187, 6.8208443e-9, -5.0098881e-9, 9.6000145e+1
-0.188, 6.8483623e-9, -4.9965334e-9, 9.6333481e+1
-0.189, 6.8620625e-9, -4.9831788e-9, 9.6666817e+1
-0.190, 6.8882815e-9, -4.9756146e-9, 9.7000153e+1
-0.191, 6.9120198e-9, -4.9662785e-9, 9.7333488e+1
-0.192, 6.9316255e-9, -4.9564690e-9, 9.7666824e+1
-0.193, 6.9578445e-9, -4.9481961e-9, 9.8000160e+1
-0.194, 6.9773316e-9, -4.9366142e-9, 9.8333496e+1
-0.195, 7.0018968e-9, -4.9249138e-9, 9.8666832e+1
-0.196, 7.0281163e-9, -4.9136872e-9, 9.9000168e+1
-0.197, 7.0473671e-9, -4.9006865e-9, 9.9333504e+1
-0.198, 7.0727597e-9, -4.8913500e-9, 9.9666840e+1
-0.199, 7.0969710e-9, -4.8816586e-9, 1.0000018e+2
-0.200, 7.1213000e-9, -4.8744497e-9, 1.0033351e+2
-0.201, 7.1523614e-9, -4.8648769e-9, 1.0066685e+2
-0.202, 7.1744464e-9, -4.8558948e-9, 1.0100018e+2
-0.203, 7.2036177e-9, -4.8502224e-9, 1.0133352e+2
-0.204, 7.2334982e-9, -4.8451403e-9, 1.0166685e+2
-0.205, 7.2679840e-9, -4.8362767e-9, 1.0200019e+2
-0.206, 7.2937310e-9, -4.8283582e-9, 1.0233353e+2
-0.207, 7.3239654e-9, -4.8217399e-9, 1.0266686e+2
-0.208, 7.3487678e-9, -4.8148854e-9, 1.0300020e+2
-0.209, 7.3847892e-9, -4.8087401e-9, 1.0333353e+2
-0.210, 7.4100628e-9, -4.8015303e-9, 1.0366687e+2
-0.211, 7.4460851e-9, -4.7968034e-9, 1.0400021e+2
-0.212, 7.4825790e-9, -4.7872302e-9, 1.0433354e+2
-0.213, 7.5102156e-9, -4.7855759e-9, 1.0466688e+2
-0.214, 7.5458821e-9, -4.7833302e-9, 1.0500021e+2
-0.215, 7.5827300e-9, -4.7801390e-9, 1.0533355e+2
-0.216, 7.6175715e-9, -4.7758850e-9, 1.0566689e+2
-0.217, 7.6573716e-9, -4.7742299e-9, 1.0600022e+2
-0.218, 7.6857170e-9, -4.7703299e-9, 1.0633356e+2
-0.219, 7.7268165e-9, -4.7706847e-9, 1.0666689e+2
-0.220, 7.7698061e-9, -4.7677302e-9, 1.0700023e+2
-0.221, 7.8019307e-9, -4.7650119e-9, 1.0733356e+2
-0.222, 7.8504714e-9, -4.7646571e-9, 1.0766690e+2
-0.223, 7.8936964e-9, -4.7641846e-9, 1.0800024e+2
-0.224, 7.9363325e-9, -4.7673754e-9, 1.0833357e+2
-0.225, 7.9852267e-9, -4.7692663e-9, 1.0866691e+2
-0.226, 8.0251468e-9, -4.7710391e-9, 1.0900024e+2
-0.227, 8.0712068e-9, -4.7730482e-9, 1.0933358e+2
-0.228, 8.1234086e-9, -4.7754121e-9, 1.0966692e+2
-0.229, 8.1669880e-9, -4.7782485e-9, 1.1000025e+2
-0.230, 8.2162375e-9, -4.7833302e-9, 1.1033359e+2
-0.231, 8.2692662e-9, -4.7838027e-9, 1.1066692e+2
-0.232, 8.3208782e-9, -4.7906576e-9, 1.1100026e+2
-0.233, 8.3787484e-9, -4.7962123e-9, 1.1133360e+2
-0.234, 8.4235099e-9, -4.8060214e-9, 1.1166693e+2
-0.235, 8.4823251e-9, -4.8166582e-9, 1.1200027e+2
-0.236, 8.5426759e-9, -4.8296585e-9, 1.1233360e+2
-0.237, 8.5966487e-9, -4.8425401e-9, 1.1266694e+2
-0.238, 8.6582990e-9, -4.8560134e-9, 1.1300027e+2
-0.239, 8.7167606e-9, -4.8718496e-9, 1.1333361e+2
-0.240, 8.7722691e-9, -4.8794138e-9, 1.1366695e+2
-0.241, 8.8382883e-9, -4.8932409e-9, 1.1400028e+2
-0.242, 8.8963956e-9, -4.9122688e-9, 1.1433362e+2
-0.243, 8.9559204e-9, -4.9265685e-9, 1.1466695e+2
-0.244, 9.0181604e-9, -4.9399236e-9, 1.1500029e+2
-0.245, 9.0743777e-9, -4.9576512e-9, 1.1533363e+2
-0.246, 9.1398071e-9, -4.9762057e-9, 1.1566696e+2
-0.247, 9.2024015e-9, -4.9955879e-9, 1.1600030e+2
-0.248, 9.2667687e-9, -5.0130793e-9, 1.1633363e+2
-0.249, 9.3336148e-9, -5.0292703e-9, 1.1666697e+2
-0.250, 9.3907770e-9, -5.0482978e-9, 1.1700031e+2
-0.251, 9.4551433e-9, -5.0660254e-9, 1.1733364e+2
-0.252, 9.5178567e-9, -5.0874167e-9, 1.1766698e+2
-0.253, 9.5702948e-9, -5.1076259e-9, 1.1800031e+2
-0.254, 9.6335979e-9, -5.1299627e-9, 1.1833365e+2
-0.255, 9.6933581e-9, -5.1482814e-9, 1.1866698e+2
-0.256, 9.7526458e-9, -5.1722719e-9, 1.1900032e+2
-0.257, 9.8151229e-9, -5.1931908e-9, 1.1933366e+2
-0.258, 9.8663797e-9, -5.2141091e-9, 1.1966699e+2
-0.259, 9.9223616e-9, -5.2398734e-9, 1.2000033e+2
-0.260, 9.9827115e-9, -5.2580735e-9, 1.2033366e+2
-0.261, 1.0033497e-8, -5.2774558e-9, 1.2066700e+2
-0.262, 1.0092667e-8, -5.3000289e-9, 1.2100034e+2
-0.263, 1.0143805e-8, -5.3201199e-9, 1.2133367e+2
-0.264, 1.0191046e-8, -5.3386748e-9, 1.2166701e+2
-0.265, 1.0242068e-8, -5.3593570e-9, 1.2200034e+2
-0.266, 1.0280333e-8, -5.3819300e-9, 1.2233368e+2
-0.267, 1.0331472e-8, -5.4020211e-9, 1.2266702e+2
-0.268, 1.0380839e-8, -5.4188032e-9, 1.2300035e+2
-0.269, 1.0421467e-8, -5.4414948e-9, 1.2333369e+2
-0.270, 1.0472251e-8, -5.4612315e-9, 1.2366702e+2
-0.271, 1.0519138e-8, -5.4838041e-9, 1.2400036e+2
-0.272, 1.0557640e-8, -5.5024771e-9, 1.2433369e+2
-0.273, 1.0608306e-8, -5.5210321e-9, 1.2466703e+2
-0.274, 1.0645155e-8, -5.5381686e-9, 1.2500037e+2
-0.275, 1.0687672e-8, -5.5555418e-9, 1.2533370e+2
-0.276, 1.0730071e-8, -5.5723235e-9, 1.2566704e+2
-0.277, 1.0765030e-8, -5.5899330e-9, 1.2600037e+2
-0.278, 1.0808137e-8, -5.6063603e-9, 1.2633371e+2
-0.279, 1.0845812e-8, -5.6214882e-9, 1.2666705e+2
-0.280, 1.0883488e-8, -5.6369700e-9, 1.2700038e+2
-0.281, 1.0920926e-8, -5.6518612e-9, 1.2733372e+2
-0.282, 1.0947264e-8, -5.6658069e-9, 1.2766705e+2
-0.283, 1.0980450e-8, -5.6793983e-9, 1.2800038e+2
-0.284, 1.1019306e-8, -5.6906253e-9, 1.2833371e+2
-0.285, 1.1044227e-8, -5.7029168e-9, 1.2866704e+2
-0.286, 1.1080484e-8, -5.7143805e-9, 1.2900037e+2
-0.287, 1.1112490e-8, -5.7297442e-9, 1.2933369e+2
-0.288, 1.1146740e-8, -5.7419172e-9, 1.2966702e+2
-0.289, 1.1179927e-8, -5.7539720e-9, 1.3000035e+2
-0.290, 1.1204730e-8, -5.7664993e-9, 1.3033368e+2
-0.291, 1.1234255e-8, -5.7764264e-9, 1.3066701e+2
-0.292, 1.1270041e-8, -5.7839906e-9, 1.3100034e+2
-0.293, 1.1290590e-8, -5.7921450e-9, 1.3133366e+2
-0.294, 1.1321888e-8, -5.8013634e-9, 1.3166699e+2
-0.295, 1.1347517e-8, -5.8108180e-9, 1.3200032e+2
-0.296, 1.1371255e-8, -5.8207452e-9, 1.3233365e+2
-0.297, 1.1403261e-8, -5.8285456e-9, 1.3266698e+2
-0.298, 1.1422158e-8, -5.8342184e-9, 1.3300031e+2
-0.299, 1.1454636e-8, -5.8448548e-9, 1.3333363e+2
-0.300, 1.1487823e-8, -5.8534826e-9, 1.3366696e+2
-0.301, 1.1510972e-8, -5.8618732e-9, 1.3400029e+2
-0.302, 1.1540852e-8, -5.8700280e-9, 1.3433362e+2
-0.303, 1.1568960e-8, -5.8804281e-9, 1.3466695e+2
-0.304, 1.1589393e-8, -5.8863372e-9, 1.3500027e+2
-0.305, 1.1624115e-8, -5.8941376e-9, 1.3533360e+2
-0.306, 1.1646081e-8, -5.9031193e-9, 1.3566693e+2
-0.307, 1.1679505e-8, -5.9112741e-9, 1.3600026e+2
-0.308, 1.1707969e-8, -5.9212013e-9, 1.3633359e+2
-0.309, 1.1725803e-8, -5.9291199e-9, 1.3666692e+2
-0.310, 1.1753793e-8, -5.9362106e-9, 1.3700024e+2
-0.311, 1.1778948e-8, -5.9427108e-9, 1.3733357e+2
-0.312, 1.1799971e-8, -5.9480292e-9, 1.3766690e+2
-0.313, 1.1829734e-8, -5.9583112e-9, 1.3800023e+2
-0.314, 1.1850519e-8, -5.9643388e-9, 1.3833356e+2
-0.315, 1.1876148e-8, -5.9671752e-9, 1.3866689e+2
-0.316, 1.1901304e-8, -5.9701293e-9, 1.3900021e+2
-0.317, 1.1915122e-8, -5.9746208e-9, 1.3933354e+2
-0.318, 1.1940869e-8, -5.9795844e-9, 1.3966687e+2
-0.319, 1.1962954e-8, -5.9864389e-9, 1.4000020e+2
-0.320, 1.1979843e-8, -5.9912844e-9, 1.4033353e+2
-0.321, 1.2009014e-8, -5.9950667e-9, 1.4066685e+2
-0.322, 1.2024132e-8, -5.9956573e-9, 1.4100018e+2
-0.323, 1.2044918e-8, -5.9949481e-9, 1.4133351e+2
-0.324, 1.2065113e-8, -6.0003842e-9, 1.4166684e+2
-0.325, 1.2078459e-8, -6.0051120e-9, 1.4200017e+2
-0.326, 1.2098418e-8, -6.0080665e-9, 1.4233350e+2
-0.327, 1.2114953e-8, -6.0097212e-9, 1.4266682e+2
-0.328, 1.2129362e-8, -6.0120846e-9, 1.4300015e+2
-0.329, 1.2149439e-8, -6.0156307e-9, 1.4333348e+2
-0.330, 1.2161486e-8, -6.0164576e-9, 1.4366681e+2
-0.331, 1.2183099e-8, -6.0250844e-9, 1.4400014e+2
-0.332, 1.2207782e-8, -6.0299303e-9, 1.4433347e+2
-0.333, 1.2218647e-8, -6.0367848e-9, 1.4466679e+2
-0.334, 1.2242032e-8, -6.0366667e-9, 1.4500012e+2
-0.335, 1.2262228e-8, -6.0387939e-9, 1.4533345e+2
-0.336, 1.2280770e-8, -6.0422214e-9, 1.4566678e+2
-0.337, 1.2305572e-8, -6.0468306e-9, 1.4600011e+2
-0.338, 1.2317383e-8, -6.0502576e-9, 1.4633344e+2
-0.339, 1.2340295e-8, -6.0513212e-9, 1.4666676e+2
-0.340, 1.2362853e-8, -6.0554579e-9, 1.4700009e+2
-0.341, 1.2375017e-8, -6.0577037e-9, 1.4733342e+2
-0.342, 1.2394740e-8, -6.0599490e-9, 1.4766675e+2
-0.343, 1.2413637e-8, -6.0621943e-9, 1.4800008e+2
-0.344, 1.2429817e-8, -6.0640857e-9, 1.4833340e+2
-0.345, 1.2452966e-8, -6.0669221e-9, 1.4866673e+2
-0.346, 1.2463831e-8, -6.0698762e-9, 1.4900006e+2
-0.347, 1.2482372e-8, -6.0727126e-9, 1.4933339e+2
-0.348, 1.2504340e-8, -6.0761400e-9, 1.4966672e+2
-0.349, 1.2514498e-8, -6.0805130e-9, 1.5000005e+2
-0.350, 1.2535875e-8, -6.0840586e-9, 1.5033337e+2
-0.351, 1.2553944e-8, -6.0851222e-9, 1.5066670e+2
-0.352, 1.2570478e-8, -6.0864220e-9, 1.5100003e+2
-0.353, 1.2590084e-8, -6.0844130e-9, 1.5133336e+2
-0.354, 1.2598588e-8, -6.0858310e-9, 1.5166669e+2
-0.355, 1.2615712e-8, -6.0898495e-9, 1.5200002e+2
-0.356, 1.2638034e-8, -6.0915037e-9, 1.5233334e+2
-0.357, 1.2650670e-8, -6.0918586e-9, 1.5266667e+2
-0.358, 1.2666969e-8, -6.0968226e-9, 1.5300000e+2
-0.359, 1.2683149e-8, -6.0974132e-9, 1.5333333e+2
-0.360, 1.2694960e-8, -6.0996590e-9, 1.5366666e+2
-0.361, 1.2718226e-8, -6.0996590e-9, 1.5399998e+2
-0.362, 1.2727202e-8, -6.1008407e-9, 1.5433331e+2
-0.363, 1.2744917e-8, -6.1037952e-9, 1.5466664e+2
-0.364, 1.2765822e-8, -6.1066316e-9, 1.5499997e+2
-0.365, 1.2773852e-8, -6.1110041e-9, 1.5533330e+2
-0.366, 1.2791332e-8, -6.1158496e-9, 1.5566663e+2
-0.367, 1.2810582e-8, -6.1183316e-9, 1.5599995e+2
-0.368, 1.2818378e-8, -6.1204593e-9, 1.5633328e+2
-0.369, 1.2843062e-8, -6.1211680e-9, 1.5666661e+2
-0.370, 1.2853219e-8, -6.1251866e-9, 1.5699994e+2
-0.371, 1.2870108e-8, -6.1267227e-9, 1.5733327e+2
-0.372, 1.2888531e-8, -6.1282592e-9, 1.5766660e+2
-0.373, 1.2898216e-8, -6.1276682e-9, 1.5799992e+2
-0.374, 1.2911443e-8, -6.1262502e-9, 1.5833325e+2
-0.375, 1.2924554e-8, -6.1247136e-9, 1.5866658e+2
-0.376, 1.2938134e-8, -6.1249499e-9, 1.5899991e+2
-0.377, 1.2955378e-8, -6.1332228e-9, 1.5933324e+2
-0.378, 1.2962936e-8, -6.1357044e-9, 1.5966656e+2
-0.379, 1.2977816e-8, -6.1325141e-9, 1.5999989e+2
-0.380, 1.2992108e-8, -6.1320411e-9, 1.6033322e+2
-0.381, 1.2994117e-8, -6.1331051e-9, 1.6066655e+2
-0.382, 1.3013956e-8, -6.1340502e-9, 1.6099988e+2
-0.383, 1.3029547e-8, -6.1378320e-9, 1.6133321e+2
-0.384, 1.3039585e-8, -6.1416139e-9, 1.6166653e+2
-0.385, 1.3058837e-8, -6.1407870e-9, 1.6199986e+2
-0.386, 1.3067222e-8, -6.1401955e-9, 1.6233319e+2
-0.387, 1.3082692e-8, -6.1385408e-9, 1.6266652e+2
-0.388, 1.3103244e-8, -6.1391319e-9, 1.6299985e+2
-0.389, 1.3121785e-8, -6.1256591e-9, 1.6333318e+2
-0.390, 1.3158044e-8, -6.0974132e-9, 1.6366650e+2
-0.391, 1.3162413e-8, -6.1004859e-9, 1.6399983e+2
-0.392, 1.3184026e-8, -6.0729493e-9, 1.6433316e+2
-0.393, 1.3130879e-8, -6.2121694e-9, 1.6466649e+2
-0.394, 1.3147532e-8, -6.2133516e-9, 1.6499982e+2
-0.395, 1.3183671e-8, -6.1748233e-9, 1.6533315e+2
-0.396, 1.3178829e-8, -6.1859327e-9, 1.6566647e+2
-0.397, 1.3207410e-8, -6.1567413e-9, 1.6599980e+2
-0.398, 1.3227133e-8, -6.1586323e-9, 1.6633313e+2
-0.399, 1.3245914e-8, -6.1529595e-9, 1.6666646e+2
-0.400, 1.3256659e-8, -6.1452776e-9, 1.6699979e+2
-0.401, 1.3272367e-8, -6.1505960e-9, 1.6733311e+2
-0.402, 1.3279690e-8, -6.1530776e-9, 1.6766644e+2
-0.403, 1.3296814e-8, -6.1531957e-9, 1.6799977e+2
-0.404, 1.3312876e-8, -6.1566232e-9, 1.6833310e+2
-0.405, 1.3318901e-8, -6.1587504e-9, 1.6866643e+2
-0.406, 1.3334018e-8, -6.1630052e-9, 1.6899976e+2
-0.407, 1.3349961e-8, -6.1625323e-9, 1.6933308e+2
-0.408, 1.3363426e-8, -6.1618231e-9, 1.6966641e+2
-0.409, 1.3383503e-8, -6.1608776e-9, 1.6999974e+2
-0.410, 1.3406180e-8, -6.1585141e-9, 1.7033307e+2
-0.411, 1.3407950e-8, -6.1578049e-9, 1.7066640e+2
-0.412, 1.3421768e-8, -6.1587504e-9, 1.7099973e+2
-0.413, 1.3428383e-8, -6.1599321e-9, 1.7133305e+2
-0.414, 1.3447162e-8, -6.1601688e-9, 1.7166638e+2
-0.415, 1.3461924e-8, -6.1601688e-9, 1.7199971e+2
-0.416, 1.3472553e-8, -6.1602869e-9, 1.7233304e+2
-0.417, 1.3490149e-8, -6.1618231e-9, 1.7266637e+2
-0.418, 1.3497236e-8, -6.1627685e-9, 1.7299969e+2
-0.419, 1.3509165e-8, -6.1615868e-9, 1.7333302e+2
-0.420, 1.3525700e-8, -6.1615868e-9, 1.7366635e+2
-0.421, 1.3536448e-8, -6.1637140e-9, 1.7399968e+2
-0.422, 1.3551682e-8, -6.1687957e-9, 1.7433301e+2
-0.423, 1.3565972e-8, -6.1690324e-9, 1.7466634e+2
-0.424, 1.3580735e-8, -6.1710415e-9, 1.7499966e+2
-0.425, 1.3599041e-8, -6.1725780e-9, 1.7533299e+2
-0.426, 1.3607191e-8, -6.1744685e-9, 1.7566632e+2
-0.427, 1.3627505e-8, -6.1730505e-9, 1.7599965e+2
-0.428, 1.3646401e-8, -6.1774235e-9, 1.7633298e+2
-0.429, 1.3659157e-8, -6.1780145e-9, 1.7666631e+2
-0.430, 1.3678643e-8, -6.1778960e-9, 1.7699963e+2
-0.431, 1.3695177e-8, -6.1807324e-9, 1.7733296e+2
-0.432, 1.3707224e-8, -6.1809695e-9, 1.7766629e+2
-0.433, 1.3728838e-8, -6.1800236e-9, 1.7799962e+2
-0.434, 1.3742301e-8, -6.1810872e-9, 1.7833295e+2
-0.435, 1.3757773e-8, -6.1814416e-9, 1.7866628e+2
-0.436, 1.3777733e-8, -6.1808509e-9, 1.7899960e+2
-0.437, 1.3789307e-8, -6.1822689e-9, 1.7933293e+2
-0.438, 1.3806667e-8, -6.1812053e-9, 1.7966626e+2
-0.439, 1.3821313e-8, -6.1817964e-9, 1.7999959e+2
-0.440, 1.3835958e-8, -6.1842780e-9, 1.8033292e+2
-0.441, 1.3859577e-8, -6.1865237e-9, 1.8066624e+2
-0.442, 1.3872925e-8, -6.1885328e-9, 1.8099957e+2
-0.443, 1.3893356e-8, -6.1908967e-9, 1.8133290e+2
-0.444, 1.3916150e-8, -6.1953873e-9, 1.8166623e+2
-0.445, 1.3924890e-8, -6.1938512e-9, 1.8199956e+2
-0.446, 1.3946265e-8, -6.1960965e-9, 1.8233289e+2
-0.447, 1.3969768e-8, -6.1978689e-9, 1.8266621e+2
-0.448, 1.3988665e-8, -6.2015331e-9, 1.8299954e+2
-0.449, 1.4015829e-8, -6.2010601e-9, 1.8333287e+2
-0.450, 1.4035670e-8, -6.2022423e-9, 1.8366620e+2
-0.451, 1.4057165e-8, -6.2016512e-9, 1.8399953e+2
-0.452, 1.4081377e-8, -6.2007057e-9, 1.8433286e+2
-0.453, 1.4097084e-8, -6.2049601e-9, 1.8466618e+2
-0.454, 1.4119287e-8, -6.2074426e-9, 1.8499951e+2
-0.455, 1.4141256e-8, -6.2095693e-9, 1.8533284e+2
-0.456, 1.4162159e-8, -6.2128787e-9, 1.8566617e+2
-0.457, 1.4187317e-8, -6.2154788e-9, 1.8599950e+2
-0.458, 1.4202550e-8, -6.2139422e-9, 1.8633282e+2
-0.459, 1.4232077e-8, -6.2119332e-9, 1.8666615e+2
-0.460, 1.4256996e-8, -6.2164238e-9, 1.8699948e+2
-0.461, 1.4287703e-8, -6.2003513e-9, 1.8733281e+2
-0.462, 1.4312387e-8, -6.2020056e-9, 1.8766614e+2
-0.463, 1.4350300e-8, -6.1848691e-9, 1.8799947e+2
-0.464, 1.4349826e-8, -6.2257604e-9, 1.8833279e+2
-0.465, 1.4373093e-8, -6.2659429e-9, 1.8866612e+2
-0.466, 1.4403799e-8, -6.2319065e-9, 1.8899945e+2
-0.467, 1.4431436e-8, -6.2560157e-9, 1.8933278e+2
-0.468, 1.4461906e-8, -6.2528245e-9, 1.8966611e+2
-0.469, 1.4480330e-8, -6.2725611e-9, 1.8999944e+2
-0.470, 1.4519659e-8, -6.2588521e-9, 1.9033276e+2
-0.471, 1.4549657e-8, -6.2629888e-9, 1.9066609e+2
-0.472, 1.4581074e-8, -6.2614518e-9, 1.9099942e+2
-0.473, 1.4617567e-8, -6.2644063e-9, 1.9133275e+2
-0.474, 1.4642014e-8, -6.2666521e-9, 1.9166608e+2
-0.475, 1.4676972e-8, -6.2685430e-9, 1.9199940e+2
-0.476, 1.4709688e-8, -6.2706702e-9, 1.9233273e+2
-0.477, 1.4734489e-8, -6.2783525e-9, 1.9266606e+2
-0.478, 1.4768739e-8, -6.2844978e-9, 1.9299939e+2
-0.479, 1.4803462e-8, -6.2852070e-9, 1.9333272e+2
-0.480, 1.4837712e-8, -6.2887522e-9, 1.9366605e+2
-0.481, 1.4872316e-8, -6.2966703e-9, 1.9399937e+2
-0.482, 1.4900662e-8, -6.3013981e-9, 1.9433270e+2
-0.483, 1.4936328e-8, -6.3057706e-9, 1.9466603e+2
-0.484, 1.4977902e-8, -6.3115619e-9, 1.9499936e+2
-0.485, 1.5010379e-8, -6.3160530e-9, 1.9533269e+2
-0.486, 1.5049707e-8, -6.3224355e-9, 1.9566602e+2
-0.487, 1.5084783e-8, -6.3272805e-9, 1.9599934e+2
-0.488, 1.5121397e-8, -6.3329533e-9, 1.9633267e+2
-0.489, 1.5163323e-8, -6.3419350e-9, 1.9666600e+2
-0.490, 1.5196038e-8, -6.3463079e-9, 1.9699933e+2
-0.491, 1.5241389e-8, -6.3542256e-9, 1.9733266e+2
-0.492, 1.5285442e-8, -6.3633263e-9, 1.9766599e+2
-0.493, 1.5326071e-8, -6.3727805e-9, 1.9799931e+2
-0.494, 1.5370240e-8, -6.3778631e-9, 1.9833264e+2
-0.495, 1.5412168e-8, -6.3822361e-9, 1.9866597e+2
-0.496, 1.5452441e-8, -6.3940542e-9, 1.9899930e+2
-0.497, 1.5502280e-8, -6.4009087e-9, 1.9933263e+2
-0.498, 1.5541136e-8, -6.4078818e-9, 1.9966595e+2
-0.499, 1.5586489e-8, -6.4189911e-9, 1.9999928e+2
-0.500, 1.4871135e-8, -6.4251364e-9, 2.0033261e+2
-0.499, 1.3367560e-8, -6.4181633e-9, 2.0066594e+2
-0.498, 1.2577329e-8, -6.4031540e-9, 2.0099927e+2
-0.497, 1.1983622e-8, -6.3882637e-9, 2.0133260e+2
-0.496, 1.1483453e-8, -6.3702985e-9, 2.0166592e+2
-0.495, 1.1030527e-8, -6.3543446e-9, 2.0199925e+2
-0.494, 1.0632164e-8, -6.3394534e-9, 2.0233258e+2
-0.493, 1.0272184e-8, -6.3260988e-9, 2.0266591e+2
-0.492, 9.9397228e-9, -6.3121530e-9, 2.0299924e+2
-0.491, 9.6348973e-9, -6.3013981e-9, 2.0333257e+2
-0.490, 9.3469614e-9, -6.2882797e-9, 2.0366589e+2
-0.489, 9.0747321e-9, -6.2718528e-9, 2.0399922e+2
-0.488, 8.8180929e-9, -6.2602701e-9, 2.0433255e+2
-0.487, 8.5683043e-9, -6.2462067e-9, 2.0466588e+2
-0.486, 8.3305620e-9, -6.2263510e-9, 2.0499921e+2
-0.485, 8.1051024e-9, -6.2131149e-9, 2.0533253e+2
-0.484, 7.8811784e-9, -6.2042513e-9, 2.0566586e+2
-0.483, 7.6820559e-9, -6.1925509e-9, 2.0599919e+2
-0.482, 7.4795086e-9, -6.1807324e-9, 2.0633252e+2
-0.481, 7.2862911e-9, -6.1719869e-9, 2.0666585e+2
-0.480, 7.1070092e-9, -6.1638326e-9, 2.0699918e+2
-0.479, 6.9280826e-9, -6.1536687e-9, 2.0733250e+2
-0.478, 6.7577774e-9, -6.1444503e-9, 2.0766583e+2
-0.477, 6.5964474e-9, -6.1351138e-9, 2.0799916e+2
-0.476, 6.4315762e-9, -6.1244774e-9, 2.0833249e+2
-0.475, 6.2857173e-9, -6.1134862e-9, 2.0866582e+2
-0.474, 6.1372614e-9, -6.1052132e-9, 2.0899915e+2
-0.473, 5.9865610e-9, -6.0946950e-9, 2.0933247e+2
-0.472, 5.8489702e-9, -6.0867769e-9, 2.0966580e+2
-0.471, 5.7076006e-9, -6.0811041e-9, 2.0999913e+2
-0.470, 5.5796949e-9, -6.0714132e-9, 2.1033246e+2
-0.469, 5.4521423e-9, -6.0608945e-9, 2.1066579e+2
-0.468, 5.3244729e-9, -6.0428125e-9, 2.1099911e+2
-0.467, 5.2016453e-9, -6.0341852e-9, 2.1133244e+2
-0.466, 5.0996034e-9, -5.9903389e-9, 2.1166577e+2
-0.465, 4.9718158e-9, -5.9828933e-9, 2.1199910e+2
-0.464, 4.8336348e-9, -6.0295759e-9, 2.1233243e+2
-0.463, 4.7426947e-9, -5.9721383e-9, 2.1266576e+2
-0.462, 4.5897508e-9, -6.0827583e-9, 2.1299908e+2
-0.461, 4.5011728e-9, -6.0473035e-9, 2.1333241e+2
-0.460, 4.4043280e-9, -6.0197669e-9, 2.1366574e+2
-0.459, 4.2901220e-9, -6.0211849e-9, 2.1399907e+2
-0.458, 4.2020170e-9, -6.0091301e-9, 2.1433240e+2
-0.457, 4.1127306e-9, -5.9838388e-9, 2.1466573e+2
-0.456, 4.0202557e-9, -5.9756844e-9, 2.1499905e+2
-0.455, 3.9247099e-9, -5.9668208e-9, 2.1533238e+2
-0.454, 3.8304635e-9, -5.9598477e-9, 2.1566571e+2
-0.453, 3.7464916e-9, -5.9509837e-9, 2.1599904e+2
-0.452, 3.6531900e-9, -5.9436562e-9, 2.1633237e+2
-0.451, 3.5738246e-9, -5.9395204e-9, 2.1666570e+2
-0.450, 3.4876086e-9, -5.9325473e-9, 2.1699902e+2
-0.449, 3.4009207e-9, -5.9236833e-9, 2.1733235e+2
-0.448, 3.3247438e-9, -5.9174194e-9, 2.1766568e+2
-0.447, 3.2397092e-9, -5.9111560e-9, 2.1799901e+2
-0.446, 3.1634144e-9, -5.9057195e-9, 2.1833234e+2
-0.445, 3.0913714e-9, -5.8988645e-9, 2.1866566e+2
-0.444, 3.0092893e-9, -5.8907101e-9, 2.1899899e+2
-0.443, 2.9377185e-9, -5.8827920e-9, 2.1933232e+2
-0.442, 2.8641400e-9, -5.8801919e-9, 2.1966565e+2
-0.441, 2.7886720e-9, -5.8741643e-9, 2.1999898e+2
-0.440, 2.7248963e-9, -5.8658918e-9, 2.2033231e+2
-0.439, 2.6523805e-9, -5.8580913e-9, 2.2066563e+2
-0.438, 2.5868330e-9, -5.8473368e-9, 2.2099896e+2
-0.437, 2.5222306e-9, -5.8447367e-9, 2.2133229e+2
-0.436, 2.4527855e-9, -5.8410730e-9, 2.2166562e+2
-0.435, 2.3913718e-9, -5.8318546e-9, 2.2199895e+2
-0.434, 2.3233442e-9, -5.8227547e-9, 2.2233228e+2
-0.433, 2.2588595e-9, -5.8189729e-9, 2.2266560e+2
-0.432, 2.2050044e-9, -5.8134182e-9, 2.2299893e+2
-0.431, 2.1391027e-9, -5.8071543e-9, 2.2333226e+2
-0.430, 2.0801689e-9, -5.7982907e-9, 2.2366559e+2
-0.429, 2.0217079e-9, -5.7920269e-9, 2.2399892e+2
-0.428, 1.9584041e-9, -5.7863541e-9, 2.2433224e+2
-0.427, 1.9027775e-9, -5.7758358e-9, 2.2466557e+2
-0.426, 1.8456153e-9, -5.7670904e-9, 2.2499890e+2
-0.425, 1.7866817e-9, -5.7622449e-9, 2.2533223e+2
-0.424, 1.7325903e-9, -5.7547993e-9, 2.2566556e+2
-0.423, 1.6697591e-9, -5.7473537e-9, 2.2599889e+2
-0.422, 1.6151954e-9, -5.7420353e-9, 2.2633221e+2
-0.421, 1.5620488e-9, -5.7369531e-9, 2.2666554e+2
-0.420, 1.5038237e-9, -5.7306893e-9, 2.2699887e+2
-0.419, 1.4584720e-9, -5.7227711e-9, 2.2733220e+2
-0.418, 1.4011918e-9, -5.7116623e-9, 2.2766553e+2
-0.417, 1.3447382e-9, -5.7095351e-9, 2.2799886e+2
-0.416, 1.2945444e-9, -5.7052798e-9, 2.2833218e+2
-0.415, 1.2426968e-9, -5.6997256e-9, 2.2866551e+2
-0.414, 1.1951011e-9, -5.6932254e-9, 2.2899884e+2
-0.413, 1.1490408e-9, -5.6845981e-9, 2.2933217e+2
-0.412, 1.0949494e-9, -5.6831801e-9, 2.2966550e+2
-0.411, 1.0537311e-9, -5.6828253e-9, 2.2999883e+2
-0.410, 9.9054587e-10, -5.6751435e-9, 2.3033215e+2
-0.409, 9.4176911e-10, -5.6712435e-9, 2.3066548e+2
-0.408, 9.0362162e-10, -5.6671068e-9, 2.3099881e+2
-0.407, 8.5744317e-10, -5.6652159e-9, 2.3133214e+2
-0.406, 8.1421725e-10, -5.6609615e-9, 2.3166547e+2
-0.405, 7.6957413e-10, -5.6517431e-9, 2.3199879e+2
-0.404, 7.2469480e-10, -5.6429976e-9, 2.3233212e+2
-0.403, 6.8690170e-10, -5.6342522e-9, 2.3266545e+2
-0.402, 6.4178612e-10, -5.6281064e-9, 2.3299878e+2
-0.401, 5.9300936e-10, -5.6206608e-9, 2.3333211e+2
-0.400, 5.5875932e-10, -5.6167608e-9, 2.3366544e+2
-0.399, 5.0903776e-10, -5.6145155e-9, 2.3399876e+2
-0.398, 4.6285928e-10, -5.6125060e-9, 2.3433209e+2
-0.397, 4.2471182e-10, -5.6100244e-9, 2.3466542e+2
-0.396, 3.7841524e-10, -5.6006875e-9, 2.3499875e+2
-0.395, 3.4192127e-10, -5.5984422e-9, 2.3533208e+2
-0.394, 3.0093936e-10, -5.5909966e-9, 2.3566541e+2
-0.393, 2.5712293e-10, -5.5836695e-9, 2.3599873e+2
-0.392, 2.2133757e-10, -5.5810689e-9, 2.3633206e+2
-0.391, 1.7787548e-10, -5.5757514e-9, 2.3666539e+2
-0.390, 1.3783838e-10, -5.5675962e-9, 2.3699872e+2
-0.389, 1.0158060e-10, -5.5613323e-9, 2.3733205e+2
-0.388, 5.6228844e-11, -5.5568417e-9, 2.3766537e+2
-0.387, 2.6348652e-11, -5.5518781e-9, 2.3799870e+2
-0.386, -1.3334130e-11, -5.5437228e-9, 2.3833203e+2
-0.385, -5.6914334e-11, -5.5393508e-9, 2.3866536e+2
-0.384, -8.4432454e-11, -5.5327325e-9, 2.3899869e+2
-0.383, -1.2647731e-10, -5.5280047e-9, 2.3933202e+2
-0.382, -1.6568767e-10, -5.5231593e-9, 2.3966534e+2
-0.381, -1.9922909e-10, -5.5157137e-9, 2.3999867e+2
-0.380, -2.3879373e-10, -5.5081499e-9, 2.4033200e+2
-0.379, -2.6938257e-10, -5.5005862e-9, 2.4066533e+2
-0.378, -3.1107311e-10, -5.4940861e-9, 2.4099866e+2
-0.377, -3.5040157e-10, -5.4893587e-9, 2.4133199e+2
-0.376, -3.8004558e-10, -5.4797864e-9, 2.4166531e+2
-0.375, -4.1901974e-10, -5.4776588e-9, 2.4199864e+2
-0.374, -4.5102580e-10, -5.4743494e-9, 2.4233197e+2
-0.373, -4.8811033e-10, -5.4723404e-9, 2.4266530e+2
-0.372, -5.2732069e-10, -5.4680860e-9, 2.4299863e+2
-0.371, -5.5472071e-10, -5.4612315e-9, 2.4333195e+2
-0.370, -5.9310434e-10, -5.4539036e-9, 2.4366528e+2
-0.369, -6.3066125e-10, -5.4453944e-9, 2.4399861e+2
-0.368, -6.5510863e-10, -5.4375948e-9, 2.4433194e+2
-0.367, -6.9278366e-10, -5.4321578e-9, 2.4466527e+2
-0.366, -7.2561646e-10, -5.4241216e-9, 2.4499860e+2
-0.365, -7.5573287e-10, -5.4198672e-9, 2.4533192e+2
-0.364, -7.9435281e-10, -5.4191580e-9, 2.4566525e+2
-0.363, -8.2175278e-10, -5.4133671e-9, 2.4599858e+2
-0.362, -8.5493990e-10, -5.4068665e-9, 2.4633191e+2
-0.361, -8.8895363e-10, -5.4002487e-9, 2.4666524e+2
-0.360, -9.1647179e-10, -5.3944573e-9, 2.4699857e+2
-0.359, -9.5438302e-10, -5.3898486e-9, 2.4733189e+2
-0.358, -9.8320019e-10, -5.3806297e-9, 2.4766522e+2
-0.357, -1.0170960e-9, -5.3750755e-9, 2.4799855e+2
-0.356, -1.0535901e-9, -5.3652660e-9, 2.4833188e+2
-0.355, -1.0812261e-9, -5.3610112e-9, 2.4866521e+2
-0.354, -1.1159487e-9, -5.3552207e-9, 2.4899854e+2
-0.353, -1.1510254e-9, -5.3483662e-9, 2.4933186e+2
-0.352, -1.1747642e-9, -5.3423386e-9, 2.4966519e+2
-0.351, -1.2099590e-9, -5.3359566e-9, 2.4999852e+2
-0.350, -1.2390126e-9, -5.3287472e-9, 2.5033185e+2
-0.349, -1.2654677e-9, -5.3221294e-9, 2.5066518e+2
-0.348, -1.2994815e-9, -5.3161018e-9, 2.5099850e+2
-0.347, -1.3261729e-9, -5.3062923e-9, 2.5133183e+2
-0.346, -1.3599506e-9, -5.2977835e-9, 2.5166516e+2
-0.345, -1.3958540e-9, -5.2897469e-9, 2.5199849e+2
-0.344, -1.4251437e-9, -5.2800555e-9, 2.5233182e+2
-0.343, -1.4605747e-9, -5.2752100e-9, 2.5266515e+2
-0.342, -1.4908093e-9, -5.2700098e-9, 2.5299847e+2
-0.341, -1.5204532e-9, -5.2625646e-9, 2.5333180e+2
-0.340, -1.5534041e-9, -5.2587827e-9, 2.5366513e+2
-0.339, -1.5773790e-9, -5.2508646e-9, 2.5399846e+2
-0.338, -1.6099757e-9, -5.2464917e-9, 2.5433179e+2
-0.337, -1.6435171e-9, -5.2399916e-9, 2.5466512e+2
-0.336, -1.6672559e-9, -5.2382187e-9, 2.5499844e+2
-0.335, -1.6990258e-9, -5.2311280e-9, 2.5533177e+2
-0.334, -1.7281973e-9, -5.2207274e-9, 2.5566510e+2
-0.333, -1.7550068e-9, -5.2144635e-9, 2.5599843e+2
-0.332, -1.7883121e-9, -5.2110365e-9, 2.5633176e+2
-0.331, -1.8124051e-9, -5.2038276e-9, 2.5666510e+2
-0.330, -1.8421672e-9, -5.1976814e-9, 2.5699844e+2
-0.329, -1.8797242e-9, -5.1925997e-9, 2.5733179e+2
-0.328, -1.9054707e-9, -5.1890541e-9, 2.5766513e+2
-0.327, -1.9417283e-9, -5.1834999e-9, 2.5799847e+2
-0.326, -1.9701916e-9, -5.1747544e-9, 2.5833182e+2
-0.325, -1.9941666e-9, -5.1671902e-9, 2.5866516e+2
-0.324, -2.0238105e-9, -5.1596269e-9, 2.5899850e+2
-0.323, -2.0451871e-9, -5.1499356e-9, 2.5933185e+2
-0.322, -2.0774293e-9, -5.1421356e-9, 2.5966519e+2
-0.321, -2.1087270e-9, -5.1331535e-9, 2.5999854e+2
-0.320, -2.1306941e-9, -5.1233444e-9, 2.6033188e+2
-0.319, -2.1663613e-9, -5.1142441e-9, 2.6066522e+2
-0.318, -2.1960054e-9, -5.1073896e-9, 2.6099857e+2
-0.317, -2.2221063e-9, -5.1000622e-9, 2.6133191e+2
-0.316, -2.2609623e-9, -5.0881259e-9, 2.6166525e+2
-0.315, -2.2843467e-9, -5.0783164e-9, 2.6199860e+2
-0.314, -2.3178883e-9, -5.0706346e-9, 2.6233194e+2
-0.313, -2.3536737e-9, -5.0596434e-9, 2.6266528e+2
-0.312, -2.3803650e-9, -5.0503068e-9, 2.6299863e+2
-0.311, -2.4113083e-9, -5.0415614e-9, 2.6333197e+2
-0.310, -2.4388263e-9, -5.0341158e-9, 2.6366531e+2
-0.309, -2.4694151e-9, -5.0259614e-9, 2.6399866e+2
-0.308, -2.5075624e-9, -5.0191065e-9, 2.6433200e+2
-0.307, -2.5446472e-9, -5.0110698e-9, 2.6466534e+2
-0.306, -2.5737004e-9, -5.0003153e-9, 2.6499869e+2
-0.305, -2.6110212e-9, -4.9921605e-9, 2.6533203e+2
-0.304, -2.6302722e-9, -4.9829425e-9, 2.6566537e+2
-0.303, -2.6677109e-9, -4.9737241e-9, 2.6599872e+2
-0.302, -2.6984177e-9, -4.9635607e-9, 2.6633206e+2
-0.301, -2.7303058e-9, -4.9536326e-9, 2.6666541e+2
-0.300, -2.7692801e-9, -4.9435873e-9, 2.6699875e+2
-0.299, -2.7957350e-9, -4.9336593e-9, 2.6733209e+2
-0.298, -2.8289222e-9, -4.9206594e-9, 2.6766544e+2
-0.297, -2.8673057e-9, -4.9123865e-9, 2.6799878e+2
-0.296, -2.8958869e-9, -4.9048232e-9, 2.6833212e+2
-0.295, -2.9371050e-9, -4.8934772e-9, 2.6866547e+2
-0.294, -2.9733629e-9, -4.8815409e-9, 2.6899881e+2
-0.293, -3.0072584e-9, -4.8638138e-9, 2.6933215e+2
-0.292, -3.0513110e-9, -4.8506950e-9, 2.6966550e+2
-0.291, -3.0788292e-9, -4.8401763e-9, 2.6999884e+2
-0.290, -3.1168585e-9, -4.8269397e-9, 2.7033218e+2
-0.289, -3.1565413e-9, -4.8118127e-9, 2.7066553e+2
-0.288, -3.1939802e-9, -4.7998761e-9, 2.7099887e+2
-0.287, -3.2390957e-9, -4.7867577e-9, 2.7133221e+2
-0.286, -3.2794871e-9, -4.7717488e-9, 2.7166556e+2
-0.285, -3.3142094e-9, -4.7573301e-9, 2.7199890e+2
-0.284, -3.3587344e-9, -4.7420845e-9, 2.7233224e+2
-0.283, -3.3952285e-9, -4.7228204e-9, 2.7266559e+2
-0.282, -3.4357384e-9, -4.7043840e-9, 2.7299893e+2
-0.281, -3.4819163e-9, -4.6852380e-9, 2.7333228e+2
-0.280, -3.5236072e-9, -4.6645559e-9, 2.7366562e+2
-0.279, -3.5716750e-9, -4.6443462e-9, 2.7399896e+2
-0.278, -3.6162005e-9, -4.6230735e-9, 2.7433231e+2
-0.277, -3.6567100e-9, -4.6022728e-9, 2.7466565e+2
-0.276, -3.7069039e-9, -4.5818274e-9, 2.7499899e+2
-0.275, -3.7522554e-9, -4.5591357e-9, 2.7533234e+2
-0.274, -3.8045753e-9, -4.5364446e-9, 2.7566568e+2
-0.273, -3.8633909e-9, -4.5171809e-9, 2.7599902e+2
-0.272, -3.9061443e-9, -4.4935442e-9, 2.7633237e+2
-0.271, -3.9683852e-9, -4.4686077e-9, 2.7666571e+2
-0.270, -4.0261376e-9, -4.4423709e-9, 2.7699905e+2
-0.269, -4.0824730e-9, -4.4110524e-9, 2.7733240e+2
-0.268, -4.1480201e-9, -4.3822150e-9, 2.7766574e+2
-0.267, -4.2034114e-9, -4.3531423e-9, 2.7799908e+2
-0.266, -4.2647064e-9, -4.3252508e-9, 2.7833243e+2
-0.265, -4.3294275e-9, -4.2949955e-9, 2.7866577e+2
-0.264, -4.3890696e-9, -4.2672226e-9, 2.7899911e+2
-0.263, -4.4595776e-9, -4.2354311e-9, 2.7933246e+2
-0.262, -4.5268966e-9, -4.2023398e-9, 2.7966580e+2
-0.261, -4.5923261e-9, -4.1687755e-9, 2.7999915e+2
-0.260, -4.6702744e-9, -4.1345025e-9, 2.8033249e+2
-0.259, -4.7327506e-9, -4.1009387e-9, 2.8066583e+2
-0.258, -4.8058575e-9, -4.0673744e-9, 2.8099918e+2
-0.257, -4.8789630e-9, -4.0344008e-9, 2.8133252e+2
-0.256, -4.9487623e-9, -4.0000097e-9, 2.8166586e+2
-0.255, -5.0283639e-9, -3.9594723e-9, 2.8199921e+2
-0.254, -5.1017066e-9, -3.9215355e-9, 2.8233255e+2
-0.253, -5.1711511e-9, -3.8861985e-9, 2.8266589e+2
-0.252, -5.2502802e-9, -3.8480255e-9, 2.8299924e+2
-0.251, -5.3181903e-9, -3.8078429e-9, 2.8333258e+2
-0.250, -5.3947211e-9, -3.7673060e-9, 2.8366592e+2
-0.249, -5.4677094e-9, -3.7290149e-9, 2.8399927e+2
-0.248, -5.5308944e-9, -3.6904868e-9, 2.8433261e+2
-0.247, -5.6045915e-9, -3.6531407e-9, 2.8466595e+2
-0.246, -5.6761618e-9, -3.6148493e-9, 2.8499930e+2
-0.245, -5.7487952e-9, -3.5741945e-9, 2.8533264e+2
-0.244, -5.8222560e-9, -3.5357848e-9, 2.8566599e+2
-0.243, -5.8821343e-9, -3.5021022e-9, 2.8599933e+2
-0.242, -5.9537055e-9, -3.4661745e-9, 2.8633267e+2
-0.241, -6.0219691e-9, -3.4301284e-9, 2.8666602e+2
-0.240, -6.0780683e-9, -3.3925460e-9, 2.8699936e+2
-0.239, -6.1473950e-9, -3.3527185e-9, 2.8733270e+2
-0.238, -6.2057381e-9, -3.3170269e-9, 2.8766605e+2
-0.237, -6.2656165e-9, -3.2832266e-9, 2.8799939e+2
-0.236, -6.3323453e-9, -3.2495440e-9, 2.8833273e+2
-0.235, -6.3831300e-9, -3.2175160e-9, 2.8866608e+2
-0.234, -6.4374568e-9, -3.1900975e-9, 2.8899942e+2
-0.233, -6.4953283e-9, -3.1599607e-9, 2.8933276e+2
-0.232, -6.5459944e-9, -3.1306513e-9, 2.8966611e+2
-0.231, -6.5974879e-9, -3.1003964e-9, 2.8999945e+2
-0.230, -6.6442567e-9, -3.0695504e-9, 2.9033279e+2
-0.229, -6.6900805e-9, -3.0388227e-9, 2.9066614e+2
-0.228, -6.7407475e-9, -3.0137679e-9, 2.9099948e+2
-0.227, -6.7770052e-9, -2.9907221e-9, 2.9133282e+2
-0.226, -6.8224750e-9, -2.9603489e-9, 2.9166617e+2
-0.225, -6.8642834e-9, -2.9387213e-9, 2.9199951e+2
-0.224, -6.8971158e-9, -2.9172118e-9, 2.9233286e+2
-0.223, -6.9423507e-9, -2.8949934e-9, 2.9266620e+2
-0.222, -6.9825048e-9, -2.8769112e-9, 2.9299954e+2
-0.221, -7.0086061e-9, -2.8526836e-9, 2.9333289e+2
-0.220, -7.0476989e-9, -2.8329470e-9, 2.9366623e+2
-0.219, -7.0717907e-9, -2.8161649e-9, 2.9399957e+2
-0.218, -7.0898607e-9, -2.7842553e-9, 2.9433292e+2
-0.217, -7.1177335e-9, -2.7641642e-9, 2.9466626e+2
-0.216, -7.1482047e-9, -2.7466729e-9, 2.9499960e+2
-0.215, -7.1822184e-9, -2.7352092e-9, 2.9533295e+2
-0.214, -7.2038318e-9, -2.7181908e-9, 2.9566629e+2
-0.213, -7.2312312e-9, -2.7035361e-9, 2.9599963e+2
-0.212, -7.2501272e-9, -2.6856903e-9, 2.9633298e+2
-0.211, -7.2749295e-9, -2.6702083e-9, 2.9666632e+2
-0.210, -7.2866215e-9, -2.6438534e-9, 2.9699966e+2
-0.209, -7.3149669e-9, -2.6339260e-9, 2.9733301e+2
-0.208, -7.3320909e-9, -2.6345168e-9, 2.9766635e+2
-0.207, -7.3627988e-9, -2.6332168e-9, 2.9799969e+2
-0.206, -7.3789792e-9, -2.6154892e-9, 2.9833304e+2
-0.205, -7.4020088e-9, -2.5961069e-9, 2.9866638e+2
-0.204, -7.4112214e-9, -2.5618339e-9, 2.9899973e+2
-0.203, -7.4480693e-9, -2.5971707e-9, 2.9933307e+2
-0.202, -7.4551556e-9, -2.5890161e-9, 2.9966641e+2
-0.201, -7.4710993e-9, -2.5575793e-9, 2.9999976e+2
-0.200, -7.4803115e-9, -2.5333518e-9, 3.0033310e+2
-0.199, -7.5015691e-9, -2.5266151e-9, 3.0066644e+2
-0.198, -7.5217654e-9, -2.5273243e-9, 3.0099979e+2
-0.197, -7.5373556e-9, -2.5165694e-9, 3.0133313e+2
-0.196, -7.5573157e-9, -2.5067604e-9, 3.0166647e+2
-0.195, -7.5608577e-9, -2.5000240e-9, 3.0199982e+2
-0.194, -7.5732594e-9, -2.4921056e-9, 3.0233316e+2
-0.193, -7.5882580e-9, -2.4850144e-9, 3.0266650e+2
-0.192, -7.5923925e-9, -2.4669324e-9, 3.0299985e+2
-0.191, -7.6127051e-9, -2.4714233e-9, 3.0333319e+2
-0.190, -7.6264053e-9, -2.4748508e-9, 3.0366653e+2
-0.189, -7.6330195e-9, -2.4643325e-9, 3.0399988e+2
-0.188, -7.6462472e-9, -2.4554687e-9, 3.0433322e+2
-0.187, -7.6509714e-9, -2.4421138e-9, 3.0466656e+2
-0.186, -7.6664426e-9, -2.4365594e-9, 3.0499991e+2
-0.185, -7.6847479e-9, -2.4419957e-9, 3.0533325e+2
-0.184, -7.6826225e-9, -2.4259226e-9, 3.0566660e+2
-0.183, -7.6965589e-9, -2.4189499e-9, 3.0599994e+2
-0.182, -7.7026998e-9, -2.4080771e-9, 3.0633328e+2
-0.181, -7.7129751e-9, -2.4045317e-9, 3.0666663e+2
-0.180, -7.7277384e-9, -2.4022861e-9, 3.0699997e+2
-0.179, -7.7265572e-9, -2.3925950e-9, 3.0733331e+2
-0.178, -7.7427371e-9, -2.3877493e-9, 3.0766666e+2
-0.177, -7.7571460e-9, -2.3826676e-9, 3.0800000e+2
-0.176, -7.7591542e-9, -2.3778222e-9, 3.0833334e+2
-0.175, -7.7713187e-9, -2.3686038e-9, 3.0866669e+2
-0.174, -7.7827744e-9, -2.3592672e-9, 3.0900003e+2
-0.173, -7.7892697e-9, -2.3572582e-9, 3.0933337e+2
-0.172, -7.8032061e-9, -2.3573763e-9, 3.0966672e+2
-0.171, -7.8048599e-9, -2.3521762e-9, 3.1000006e+2
-0.170, -7.8114741e-9, -2.3495761e-9, 3.1033340e+2
-0.169, -7.8269453e-9, -2.3456761e-9, 3.1066675e+2
-0.168, -7.8296614e-9, -2.3378759e-9, 3.1100009e+2
-0.167, -7.8430071e-9, -2.3369304e-9, 3.1133344e+2
-0.166, -7.8461957e-9, -2.3358668e-9, 3.1166678e+2
-0.165, -7.8583611e-9, -2.3384670e-9, 3.1200012e+2
-0.164, -7.8711162e-9, -2.3372850e-9, 3.1233347e+2
-0.163, -7.8691080e-9, -2.3255848e-9, 3.1266681e+2
-0.162, -7.8809190e-9, -2.3251121e-9, 3.1300015e+2
-0.161, -7.8913116e-9, -2.3090392e-9, 3.1333350e+2
-0.160, -7.8989881e-9, -2.3057301e-9, 3.1366684e+2
-0.159, -7.9074916e-9, -2.3015938e-9, 3.1400018e+2
-0.158, -7.9151681e-9, -2.3004119e-9, 3.1433353e+2
-0.157, -7.9188300e-9, -2.2981665e-9, 3.1466687e+2
-0.156, -7.9306401e-9, -2.2960391e-9, 3.1500021e+2
-0.155, -7.9325302e-9, -2.2933209e-9, 3.1533356e+2
-0.154, -7.9446947e-9, -2.2933209e-9, 3.1566690e+2
-0.153, -7.9553244e-9, -2.2893025e-9, 3.1600024e+2
-0.152, -7.9573308e-9, -2.2865843e-9, 3.1633359e+2
-0.151, -7.9664257e-9, -2.2816207e-9, 3.1666693e+2
-0.150, -7.9696143e-9, -2.2778386e-9, 3.1700027e+2
-0.149, -7.9782358e-9, -2.2764204e-9, 3.1733362e+2
-0.148, -7.9882749e-9, -2.2727569e-9, 3.1766696e+2
-0.147, -7.9906366e-9, -2.2661386e-9, 3.1800031e+2
-0.146, -8.0013844e-9, -2.2590476e-9, 3.1833365e+2
-0.145, -8.0130764e-9, -2.2610567e-9, 3.1866699e+2
-0.144, -8.0137852e-9, -2.2728750e-9, 3.1900034e+2
-0.143, -8.0261868e-9, -2.2648388e-9, 3.1933368e+2
-0.142, -8.0311464e-9, -2.2525475e-9, 3.1966702e+2
-0.141, -8.0376417e-9, -2.2452200e-9, 3.2000037e+2
-0.140, -8.0535862e-9, -2.2481748e-9, 3.2033371e+2
-0.139, -8.0532319e-9, -2.2454565e-9, 3.2066705e+2
-0.138, -8.0636244e-9, -2.2423836e-9, 3.2100040e+2
-0.137, -8.0753164e-9, -2.2373019e-9, 3.2133374e+2
-0.136, -8.0820488e-9, -2.2361200e-9, 3.2166708e+2
-0.135, -8.0912610e-9, -2.2308018e-9, 3.2200043e+2
-0.134, -8.0955127e-9, -2.2245379e-9, 3.2233377e+2
-0.133, -8.1053155e-9, -2.2279651e-9, 3.2266711e+2
-0.132, -8.1148812e-9, -2.2173288e-9, 3.2300046e+2
-0.131, -8.1174800e-9, -2.2167379e-9, 3.2333380e+2
-0.130, -8.1289357e-9, -2.2149653e-9, 3.2366714e+2
-0.129, -8.1454701e-9, -2.2139015e-9, 3.2400049e+2
-0.128, -8.1440534e-9, -2.2075195e-9, 3.2433383e+2
-0.127, -8.1584615e-9, -2.2039741e-9, 3.2466718e+2
-0.126, -8.1649576e-9, -2.2013742e-9, 3.2500052e+2
-0.125, -8.1675564e-9, -2.1992468e-9, 3.2533386e+2
-0.124, -8.1832630e-9, -2.2016102e-9, 3.2566721e+2
-0.123, -8.1875147e-9, -2.1993649e-9, 3.2600055e+2
-0.122, -8.2000335e-9, -2.1964104e-9, 3.2633389e+2
-0.121, -8.2121989e-9, -2.1905011e-9, 3.2666724e+2
-0.120, -8.2143252e-9, -2.1869555e-9, 3.2700058e+2
-0.119, -8.2248359e-9, -2.1829372e-9, 3.2733392e+2
-0.118, -8.2295601e-9, -2.1806918e-9, 3.2766727e+2
-0.117, -8.2427878e-9, -2.1797466e-9, 3.2800061e+2
-0.116, -8.2581408e-9, -2.1745463e-9, 3.2833395e+2
-0.115, -8.2646370e-9, -2.1681645e-9, 3.2866730e+2
-0.114, -8.2803453e-9, -2.1630826e-9, 3.2900064e+2
-0.113, -8.2946352e-9, -2.1602462e-9, 3.2933398e+2
-0.112, -8.2980600e-9, -2.1645008e-9, 3.2966733e+2
-0.111, -8.3166016e-9, -2.1652098e-9, 3.3000067e+2
-0.110, -8.3303018e-9, -2.1587097e-9, 3.3033401e+2
-0.109, -8.3432941e-9, -2.1576461e-9, 3.3066736e+2
-0.108, -8.3569933e-9, -2.1478370e-9, 3.3100070e+2
-0.107, -8.3658511e-9, -2.1541007e-9, 3.3133405e+2
-0.106, -8.3800247e-9, -2.1478370e-9, 3.3166739e+2
-0.105, -8.3965590e-9, -2.1409823e-9, 3.3200073e+2
-0.104, -8.4071887e-9, -2.1403912e-9, 3.3233408e+2
-0.103, -8.4291552e-9, -2.1399185e-9, 3.3266742e+2
-0.102, -8.4474614e-9, -2.1264457e-9, 3.3300076e+2
-0.101, -8.4596259e-9, -2.1217184e-9, 3.3333411e+2
-0.100, -8.4818295e-9, -2.1207729e-9, 3.3366745e+2
-0.099, -8.4899785e-9, -2.1220727e-9, 3.3400079e+2
-0.098, -8.5107645e-9, -2.1260911e-9, 3.3433414e+2
-0.097, -8.5363929e-9, -2.1325912e-9, 3.3466748e+2
-0.096, -8.5463139e-9, -2.1178181e-9, 3.3500082e+2
-0.095, -8.5688718e-9, -2.1121453e-9, 3.3533417e+2
-0.094, -8.5865874e-9, -2.1086000e-9, 3.3566751e+2
-0.093, -8.6033580e-9, -2.1052908e-9, 3.3600085e+2
-0.092, -8.6275689e-9, -2.1058817e-9, 3.3633420e+2
-0.091, -8.6435135e-9, -2.1028090e-9, 3.3666754e+2
-0.090, -8.6655980e-9, -2.0954816e-9, 3.3700089e+2
-0.089, -8.6931164e-9, -2.0965454e-9, 3.3733423e+2
-0.088, -8.7121315e-9, -2.0974906e-9, 3.3766757e+2
-0.087, -8.7403578e-9, -2.0974906e-9, 3.3800092e+2
-0.086, -8.7604350e-9, -2.0968998e-9, 3.3833426e+2
-0.085, -8.7816936e-9, -2.0885087e-9, 3.3866760e+2
-0.084, -8.8101570e-9, -2.0869724e-9, 3.3900095e+2
-0.083, -8.8303533e-9, -2.0818904e-9, 3.3933429e+2
-0.082, -8.8531467e-9, -2.0796449e-9, 3.3966763e+2
-0.081, -8.8819636e-9, -2.0771633e-9, 3.4000098e+2
-0.080, -8.9007424e-9, -2.0760995e-9, 3.4033432e+2
-0.079, -8.9345207e-9, -2.0772812e-9, 3.4066766e+2
-0.078, -8.9610932e-9, -2.0668813e-9, 3.4100101e+2
-0.077, -8.9879029e-9, -2.0705448e-9, 3.4133435e+2
-0.076, -9.0200274e-9, -2.0671174e-9, 3.4166769e+2
-0.075, -9.0457730e-9, -2.0664084e-9, 3.4200104e+2
-0.074, -9.0780157e-9, -2.0640447e-9, 3.4233438e+2
-0.073, -9.1093133e-9, -2.0593174e-9, 3.4266772e+2
-0.072, -9.1365955e-9, -2.0545901e-9, 3.4300107e+2
-0.071, -9.1704910e-9, -2.0535262e-9, 3.4333441e+2
-0.070, -9.2004893e-9, -2.0534081e-9, 3.4366776e+2
-0.069, -9.2282439e-9, -2.0493898e-9, 3.4400110e+2
-0.068, -9.2658006e-9, -2.0470263e-9, 3.4433444e+2
-0.067, -9.2916652e-9, -2.0417079e-9, 3.4466779e+2
-0.066, -9.3267420e-9, -2.0418260e-9, 3.4500113e+2
-0.065, -9.3647712e-9, -2.0388715e-9, 3.4533447e+2
-0.064, -9.3892192e-9, -2.0292987e-9, 3.4566782e+2
-0.063, -9.4291384e-9, -2.0282351e-9, 3.4600116e+2
-0.062, -9.4658681e-9, -2.0331989e-9, 3.4633450e+2
-0.061, -9.4971648e-9, -2.0326079e-9, 3.4666785e+2
-0.060, -9.5394466e-9, -2.0314259e-9, 3.4700119e+2
-0.059, -9.5707433e-9, -2.0300077e-9, 3.4733453e+2
-0.058, -9.6118438e-9, -2.0294171e-9, 3.4766788e+2
-0.057, -9.6506998e-9, -2.0197259e-9, 3.4800122e+2
-0.056, -9.6819974e-9, -2.0159441e-9, 3.4833456e+2
-0.055, -9.7241601e-9, -2.0179531e-9, 3.4866791e+2
-0.054, -9.7606545e-9, -2.0211441e-9, 3.4900125e+2
-0.053, -9.7951407e-9, -2.0088529e-9, 3.4933459e+2
-0.052, -9.8344692e-9, -2.0108621e-9, 3.4966794e+2
-0.051, -9.8745057e-9, -2.0174804e-9, 3.5000128e+2
-0.050, -9.9197397e-9, -2.0193713e-9, 3.5033463e+2
-0.049, -9.9603676e-9, -2.0157076e-9, 3.5066797e+2
-0.048, -9.9927275e-9, -2.0192532e-9, 3.5100131e+2
-0.047, -1.0034419e-8, -1.9986892e-9, 3.5133466e+2
-0.046, -1.0076463e-8, -2.0021165e-9, 3.5166800e+2
-0.045, -1.0119689e-8, -1.9995163e-9, 3.5200134e+2
-0.044, -1.0166340e-8, -1.9931345e-9, 3.5233469e+2
-0.043, -1.0204960e-8, -1.9936073e-9, 3.5266803e+2
-0.042, -1.0244879e-8, -1.9934894e-9, 3.5300137e+2
-0.041, -1.0290585e-8, -1.9947890e-9, 3.5333472e+2
-0.040, -1.0329441e-8, -2.0029438e-9, 3.5366806e+2
-0.039, -1.0375974e-8, -1.9924256e-9, 3.5400140e+2
-0.038, -1.0417664e-8, -1.9865165e-9, 3.5433475e+2
-0.037, -1.0461599e-8, -1.9846254e-9, 3.5466809e+2
-0.036, -1.0508840e-8, -1.9822617e-9, 3.5500143e+2
-0.035, -1.0542736e-8, -1.9822617e-9, 3.5533478e+2
-0.034, -1.0586080e-8, -1.9717432e-9, 3.5566812e+2
-0.033, -1.0633204e-8, -1.9722162e-9, 3.5600146e+2
-0.032, -1.0673949e-8, -1.9647706e-9, 3.5633481e+2
-0.031, -1.0720127e-8, -1.9589794e-9, 3.5666815e+2
-0.030, -1.0745874e-8, -1.9128881e-9, 3.5700150e+2
-0.029, -1.0798548e-8, -1.9380610e-9, 3.5733484e+2
-0.028, -1.0844254e-8, -1.9471611e-9, 3.5766818e+2
-0.027, -1.0891259e-8, -1.9603976e-9, 3.5800153e+2
-0.026, -1.0937438e-8, -1.9642978e-9, 3.5833487e+2
-0.025, -1.0983025e-8, -1.9658342e-9, 3.5866821e+2
-0.024, -1.1023063e-8, -1.9627615e-9, 3.5900156e+2
-0.023, -1.1071721e-8, -1.9595705e-9, 3.5933490e+2
-0.022, -1.1112939e-8, -1.9563795e-9, 3.5966824e+2
-0.021, -1.1153094e-8, -1.9482247e-9, 3.6000159e+2
-0.020, -1.1196676e-8, -1.9464521e-9, 3.6033493e+2
-0.019, -1.1232107e-8, -1.9534250e-9, 3.6066827e+2
-0.018, -1.1270962e-8, -1.9556703e-9, 3.6100162e+2
-0.017, -1.1314897e-8, -1.9489339e-9, 3.6133496e+2
-0.016, -1.1344186e-8, -1.9479884e-9, 3.6166830e+2
-0.015, -1.1391546e-8, -1.9510613e-9, 3.6200165e+2
-0.014, -1.1417528e-8, -1.9413700e-9, 3.6233499e+2
-0.013, -1.1452133e-8, -1.9410156e-9, 3.6266833e+2
-0.012, -1.1491935e-8, -1.9399520e-9, 3.6300168e+2
-0.011, -1.1518508e-8, -1.9349882e-9, 3.6333502e+2
-0.010, -1.1551695e-8, -1.9309701e-9, 3.6366837e+2
-0.009, -1.1583937e-8, -1.9278974e-9, 3.6400171e+2
-0.008, -1.1610746e-8, -1.9271882e-9, 3.6433505e+2
-0.007, -1.1642871e-8, -1.9235247e-9, 3.6466840e+2
-0.006, -1.1671451e-8, -1.9247062e-9, 3.6500174e+2
-0.005, -1.1695190e-8, -1.9213970e-9, 3.6533508e+2
-0.004, -1.1726724e-8, -1.9178517e-9, 3.6566843e+2
-0.003, -1.1741604e-8, -1.9171424e-9, 3.6600177e+2
-0.002, -1.1768059e-8, -1.9139517e-9, 3.6633511e+2
-0.001, -1.1793098e-8, -1.9134787e-9, 3.6666846e+2
-0.000, -1.1838568e-8, -1.9191517e-9, 3.6700180e+2
0.001, -1.1853684e-8, -1.9151334e-9, 3.6733514e+2
0.002, -1.1869393e-8, -1.9111153e-9, 3.6766849e+2
0.003, -1.1881085e-8, -1.9104063e-9, 3.6800183e+2
0.004, -1.1904115e-8, -1.9083970e-9, 3.6833517e+2
0.005, -1.1912737e-8, -1.9102879e-9, 3.6866852e+2
0.006, -1.1935531e-8, -1.9078061e-9, 3.6900186e+2
0.007, -1.1954191e-8, -1.9031967e-9, 3.6933521e+2
0.008, -1.1969309e-8, -1.9033151e-9, 3.6966855e+2
0.009, -1.1986906e-8, -1.8998876e-9, 3.7000189e+2
0.010, -1.1999544e-8, -1.9016606e-9, 3.7033524e+2
0.011, -1.2015486e-8, -1.9000062e-9, 3.7066858e+2
0.012, -1.2035919e-8, -1.8974058e-9, 3.7100192e+2
0.013, -1.2040052e-8, -1.8957513e-9, 3.7133527e+2
0.014, -1.2061192e-8, -1.8942150e-9, 3.7166861e+2
0.015, -1.2082806e-8, -1.8933877e-9, 3.7200195e+2
0.016, -1.2091546e-8, -1.8914965e-9, 3.7233530e+2
0.017, -1.2118354e-8, -1.8887785e-9, 3.7266864e+2
0.018, -1.2134417e-8, -1.8888966e-9, 3.7300198e+2
0.019, -1.2151660e-8, -1.8879514e-9, 3.7333533e+2
0.020, -1.2177052e-8, -1.8844057e-9, 3.7366867e+2
0.021, -1.2190752e-8, -1.8836965e-9, 3.7400201e+2
0.022, -1.2212011e-8, -1.8840511e-9, 3.7433536e+2
0.023, -1.2235986e-8, -1.8808601e-9, 3.7466870e+2
0.024, -1.2249332e-8, -1.8783783e-9, 3.7500204e+2
0.025, -1.2273661e-8, -1.8773147e-9, 3.7533539e+2
0.026, -1.2295510e-8, -1.8753055e-9, 3.7566873e+2
0.027, -1.2319485e-8, -1.8737694e-9, 3.7600208e+2
0.028, -1.2349483e-8, -1.8731783e-9, 3.7633542e+2
0.029, -1.2364128e-8, -1.8692783e-9, 3.7666876e+2
0.030, -1.2392119e-8, -1.8693964e-9, 3.7700211e+2
0.031, -1.2422117e-8, -1.8680961e-9, 3.7733545e+2
0.032, -1.2446683e-8, -1.8646689e-9, 3.7766879e+2
0.033, -1.2472783e-8, -1.8628963e-9, 3.7800214e+2
0.034, -1.2497703e-8, -1.8615963e-9, 3.7833548e+2
0.035, -1.2521561e-8, -1.8593509e-9, 3.7866882e+2
0.036, -1.2556282e-8, -1.8545052e-9, 3.7900217e+2
0.037, -1.2582267e-8, -1.8540325e-9, 3.7933551e+2
0.038, -1.2614626e-8, -1.8495416e-9, 3.7966885e+2
0.039, -1.2650530e-8, -1.8472961e-9, 3.8000220e+2
0.040, -1.2679347e-8, -1.8464686e-9, 3.8033554e+2
0.041, -1.2715958e-8, -1.8481234e-9, 3.8066888e+2
0.042, -1.2754932e-8, -1.8425689e-9, 3.8100223e+2
0.043, -1.2797449e-8, -1.8381959e-9, 3.8133557e+2
0.044, -1.2848824e-8, -1.8373687e-9, 3.8166891e+2
0.045, -1.2889100e-8, -1.8352414e-9, 3.8200226e+2
0.046, -1.2938112e-8, -1.8390232e-9, 3.8233560e+2
0.047, -1.2990195e-8, -1.8389050e-9, 3.8266895e+2
0.048, -1.3026926e-8, -1.8368957e-9, 3.8300229e+2
0.049, -1.3076882e-8, -1.8345323e-9, 3.8333563e+2
0.050, -1.3126369e-8, -1.8337051e-9, 3.8366898e+2
0.051, -1.3172428e-8, -1.8306321e-9, 3.8400232e+2
0.052, -1.3230065e-8, -1.8272048e-9, 3.8433566e+2
0.053, -1.3277540e-8, -1.8293321e-9, 3.8466901e+2
0.054, -1.3327734e-8, -1.8243683e-9, 3.8500235e+2
0.055, -1.3380409e-8, -1.8211777e-9, 3.8533569e+2
0.056, -1.3427769e-8, -1.8202320e-9, 3.8566904e+2
0.057, -1.3487293e-8, -1.8170411e-9, 3.8600238e+2
0.058, -1.3541621e-8, -1.8138502e-9, 3.8633572e+2
0.059, -1.3597367e-8, -1.8140864e-9, 3.8666907e+2
0.060, -1.3664919e-8, -1.8133772e-9, 3.8700241e+2
0.061, -1.3715351e-8, -1.8086501e-9, 3.8733575e+2
0.062, -1.3785622e-8, -1.8061683e-9, 3.8766910e+2
0.063, -1.3853533e-8, -1.8048681e-9, 3.8800244e+2
0.064, -1.3911874e-8, -1.8040409e-9, 3.8833578e+2
0.065, -1.3985572e-8, -1.8030955e-9, 3.8866913e+2
0.066, -1.4057734e-8, -1.8022681e-9, 3.8900247e+2
0.067, -1.4124106e-8, -1.8013226e-9, 3.8933582e+2
0.068, -1.4204063e-8, -1.8002588e-9, 3.8966916e+2
0.069, -1.4271854e-8, -1.7993136e-9, 3.9000250e+2
0.070, -1.4352048e-8, -1.7938770e-9, 3.9033585e+2
0.071, -1.4433303e-8, -1.7902134e-9, 3.9066919e+2
0.072, -1.4503573e-8, -1.7870223e-9, 3.9100253e+2
0.073, -1.4586009e-8, -1.7876134e-9, 3.9133588e+2
0.074, -1.4664784e-8, -1.7878498e-9, 3.9166922e+2
0.075, -1.4744860e-8, -1.7865498e-9, 3.9200256e+2
0.076, -1.4832610e-8, -1.7853680e-9, 3.9233591e+2
0.077, -1.4902527e-8, -1.7811133e-9, 3.9266925e+2
0.078, -1.4986853e-8, -1.7753221e-9, 3.9300259e+2
0.079, -1.5075903e-8, -1.7710676e-9, 3.9333594e+2
0.080, -1.5156214e-8, -1.7747315e-9, 3.9366928e+2
0.081, -1.5248924e-8, -1.7728405e-9, 3.9400262e+2
0.082, -1.5345298e-8, -1.7774494e-9, 3.9433597e+2
0.083, -1.5439189e-8, -1.7785132e-9, 3.9466931e+2
0.084, -1.5521509e-8, -1.7525127e-9, 3.9500266e+2
0.085, -1.5627682e-8, -1.7781586e-9, 3.9533600e+2
0.086, -1.5716026e-8, -1.7740224e-9, 3.9566934e+2
0.087, -1.5810743e-8, -1.7625585e-9, 3.9600269e+2
0.088, -1.5901328e-8, -1.7536946e-9, 3.9633603e+2
0.089, -1.6002307e-8, -1.7456584e-9, 3.9666937e+2
0.090, -1.6097028e-8, -1.7370309e-9, 3.9700272e+2
0.091, -1.6181826e-8, -1.7091396e-9, 3.9733606e+2
0.092, -1.6306069e-8, -1.7389218e-9, 3.9766940e+2
0.093, -1.6389215e-8, -1.7333671e-9, 3.9800275e+2
0.094, -1.6506846e-8, -1.7451854e-9, 3.9833609e+2
0.095, -1.6609359e-8, -1.7360853e-9, 3.9866943e+2
0.096, -1.6712111e-8, -1.7331306e-9, 3.9900278e+2
0.097, -1.6824309e-8, -1.7285217e-9, 3.9933612e+2
0.098, -1.6928949e-8, -1.7282851e-9, 3.9966946e+2
0.099, -1.7028508e-8, -1.7268669e-9, 4.0000281e+2
