Dec. 15, 2005   06:26:01
Cyclic Voltammetry
File: d:\ida_biofilms\12_04_18_psoralenbiofilm\control\control_200um_pyo_transfer_gc.txt
Data Source:  Experiment
Instrument Model:  CHI760B
Header: 
Note: 

Init E (V) = 0.1
High E (V) = 0.1
Low E (V) = -0.5
Init P/N = N
Scan Rate (V/s) = 0.003
Segment = 2
Sample Interval (V) = 0.001
Quiet Time (sec) = 2
Sensitivity (A/V) = 1e-7
2nd E (V) = 0.1
Sens 2 (A/V) = 1e-7

Potential/V, i1/A, i2/A, Time/s

0.100, -1.0122994e-7, -9.9337505e-8, 3.3333334e-1
0.099, -9.1636636e-8, -9.1923965e-8, 6.6666669e-1
0.098, -8.3711058e-8, -8.5606466e-8, 1.0000000e+0
0.097, -7.6878059e-8, -8.0117076e-8, 1.3333334e+0
0.096, -7.0900604e-8, -7.5226524e-8, 1.6666667e+0
0.095, -6.5679487e-8, -7.0838240e-8, 2.0000000e+0
0.094, -6.1098604e-8, -6.6880993e-8, 2.3333333e+0
0.093, -5.7044346e-8, -6.3304519e-8, 2.6666665e+0
0.092, -5.3440768e-8, -6.0041231e-8, 2.9999998e+0
0.091, -5.0253039e-8, -5.7085469e-8, 3.3333330e+0
0.090, -4.7375092e-8, -5.4400452e-8, 3.6666663e+0
0.089, -4.4768665e-8, -5.1960786e-8, 3.9999995e+0
0.088, -4.2398682e-8, -4.9750284e-8, 4.3333330e+0
0.087, -4.0234081e-8, -4.7729110e-8, 4.6666665e+0
0.086, -3.8237065e-8, -4.5843368e-8, 5.0000000e+0
0.085, -3.6438351e-8, -4.4171664e-8, 5.3333335e+0
0.084, -3.4740140e-8, -4.2587299e-8, 5.6666670e+0
0.083, -3.3193221e-8, -4.1153022e-8, 6.0000005e+0
0.082, -3.1741376e-8, -3.9835985e-8, 6.3333340e+0
0.081, -3.0362987e-8, -3.8584776e-8, 6.6666675e+0
0.080, -2.9090893e-8, -3.7424687e-8, 7.0000010e+0
0.079, -2.7877853e-8, -3.6344368e-8, 7.3333344e+0
0.078, -2.6751737e-8, -3.5330586e-8, 7.6666679e+0
0.077, -2.5682665e-8, -3.4393391e-8, 8.0000010e+0
0.076, -2.4675476e-8, -3.3502527e-8, 8.3333340e+0
0.075, -2.3728168e-8, -3.2665312e-8, 8.6666670e+0
0.074, -2.2818652e-8, -3.1872894e-8, 9.0000000e+0
0.073, -2.1958385e-8, -3.1123253e-8, 9.3333330e+0
0.072, -2.1146306e-8, -3.0403161e-8, 9.6666660e+0
0.071, -2.0363988e-8, -2.9724905e-8, 9.9999990e+0
0.070, -1.9629503e-8, -2.9082578e-8, 1.0333332e+1
0.069, -1.8952178e-8, -2.8477363e-8, 1.0666665e+1
0.068, -1.8274619e-8, -2.7895306e-8, 1.0999998e+1
0.067, -1.7640758e-8, -2.7337125e-8, 1.1333331e+1
0.066, -1.7024021e-8, -2.6808610e-8, 1.1666664e+1
0.065, -1.6431850e-8, -2.6298530e-8, 1.1999997e+1
0.064, -1.5871448e-8, -2.5811968e-8, 1.2333330e+1
0.063, -1.5319316e-8, -2.5346914e-8, 1.2666663e+1
0.062, -1.4806155e-8, -2.4898645e-8, 1.2999996e+1
0.061, -1.4303506e-8, -2.4467630e-8, 1.3333329e+1
0.060, -1.3815739e-8, -2.4055643e-8, 1.3666662e+1
0.059, -1.3361158e-8, -2.3656536e-8, 1.3999995e+1
0.058, -1.2908113e-8, -2.3266766e-8, 1.4333328e+1
0.057, -1.2476799e-8, -2.2891296e-8, 1.4666661e+1
0.056, -1.2053635e-8, -2.2519137e-8, 1.4999994e+1
0.055, -1.1648303e-8, -2.2176524e-8, 1.5333327e+1
0.054, -1.1326707e-8, -2.1888273e-8, 1.5666660e+1
0.053, -1.0896455e-8, -2.1535259e-8, 1.5999993e+1
0.052, -1.0545924e-8, -2.1227509e-8, 1.6333326e+1
0.051, -1.0188661e-8, -2.0910775e-8, 1.6666660e+1
0.050, -9.8554906e-9, -2.0624300e-8, 1.6999994e+1
0.049, -9.5273993e-9, -2.0343377e-8, 1.7333328e+1
0.048, -9.2179686e-9, -2.0064464e-8, 1.7666662e+1
0.047, -8.9023953e-9, -1.9797252e-8, 1.7999996e+1
0.046, -8.6143412e-9, -1.9535120e-8, 1.8333330e+1
0.045, -8.3243972e-9, -1.9282561e-8, 1.8666664e+1
0.044, -8.0424840e-9, -1.9038632e-8, 1.8999998e+1
0.043, -7.7785236e-9, -1.8808409e-8, 1.9333332e+1
0.042, -7.5121989e-9, -1.8581378e-8, 1.9666666e+1
0.041, -7.2485924e-9, -1.8350685e-8, 2.0000000e+1
0.040, -6.9980950e-9, -1.8122947e-8, 2.0333334e+1
0.039, -6.7465344e-9, -1.7896978e-8, 2.0666668e+1
0.038, -6.5481207e-9, -1.7716394e-8, 2.1000002e+1
0.037, -6.3051822e-9, -1.7507917e-8, 2.1333336e+1
0.036, -6.0838556e-9, -1.7316578e-8, 2.1666670e+1
0.035, -5.8847327e-9, -1.7127956e-8, 2.2000004e+1
0.034, -5.6636429e-9, -1.6938628e-8, 2.2333338e+1
0.033, -5.4632214e-9, -1.6759461e-8, 2.2666672e+1
0.032, -5.2644533e-9, -1.6576157e-8, 2.3000006e+1
0.031, -5.0663935e-9, -1.6401838e-8, 2.3333340e+1
0.030, -4.8816795e-9, -1.6233544e-8, 2.3666674e+1
0.029, -4.6998001e-9, -1.6069388e-8, 2.4000008e+1
0.028, -4.5162669e-9, -1.5908304e-8, 2.4333342e+1
0.027, -4.3444270e-9, -1.5748755e-8, 2.4666676e+1
0.026, -4.1690429e-9, -1.5592517e-8, 2.5000010e+1
0.025, -3.9981471e-9, -1.5441360e-8, 2.5333344e+1
0.024, -3.8382351e-9, -1.5292803e-8, 2.5666677e+1
0.023, -3.6777321e-9, -1.5146728e-8, 2.6000011e+1
0.022, -3.5440388e-9, -1.5003490e-8, 2.6333345e+1
0.021, -3.3874337e-9, -1.4859188e-8, 2.6666679e+1
0.020, -3.2326002e-9, -1.4721977e-8, 2.7000013e+1
0.019, -3.0896947e-9, -1.4590085e-8, 2.7333347e+1
0.018, -2.9400575e-9, -1.4459019e-8, 2.7666681e+1
0.017, -2.7964437e-9, -1.4330672e-8, 2.8000015e+1
0.016, -2.6609790e-9, -1.4202324e-8, 2.8333349e+1
0.015, -2.5179556e-9, -1.4079649e-8, 2.8666683e+1
0.014, -2.3874511e-9, -1.3960047e-8, 2.9000017e+1
0.013, -2.2537581e-9, -1.3839263e-8, 2.9333351e+1
0.012, -2.1188837e-9, -1.3721555e-8, 2.9666685e+1
0.011, -1.9990087e-9, -1.3609161e-8, 3.0000019e+1
0.010, -1.8712205e-9, -1.3495941e-8, 3.0333353e+1
0.009, -1.7474482e-9, -1.3386975e-8, 3.0666687e+1
0.008, -1.6285180e-9, -1.3278600e-8, 3.1000021e+1
0.007, -1.5087609e-9, -1.3170109e-8, 3.1333355e+1
0.006, -1.4001058e-9, -1.3068235e-8, 3.1666689e+1
0.005, -1.2795220e-9, -1.2965296e-8, 3.2000023e+1
0.004, -1.1607099e-9, -1.2866259e-8, 3.2333355e+1
0.003, -1.0579598e-9, -1.2767929e-8, 3.2666687e+1
0.002, -9.4044672e-10, -1.2672318e-8, 3.3000019e+1
0.001, -8.2931140e-10, -1.2577890e-8, 3.3333351e+1
-0.000, -6.9679928e-10, -1.2476844e-8, 3.3666683e+1
-0.001, -5.9912764e-10, -1.2389743e-8, 3.4000015e+1
-0.002, -5.0251892e-10, -1.2301814e-8, 3.4333347e+1
-0.003, -4.0413869e-10, -1.2212940e-8, 3.4666679e+1
-0.004, -3.0091621e-10, -1.2125838e-8, 3.5000011e+1
-0.005, -2.0312650e-10, -1.2039092e-8, 3.5333344e+1
-0.006, -1.0368333e-10, -1.1959200e-8, 3.5666676e+1
-0.007, -3.0591233e-12, -1.1878717e-8, 3.6000008e+1
-0.008, 8.9297826e-11, -1.1795869e-8, 3.6333340e+1
-0.009, 1.9228411e-10, -1.1709832e-8, 3.6666672e+1
-0.010, 2.8121608e-10, -1.1629940e-8, 3.7000004e+1
-0.011, 3.8195838e-10, -1.1548039e-8, 3.7333336e+1
-0.012, 4.7785842e-10, -1.1468856e-8, 3.7666668e+1
-0.013, 5.6112143e-10, -1.1397473e-8, 3.8000000e+1
-0.014, 6.5088013e-10, -1.1322427e-8, 3.8333332e+1
-0.015, 7.3048184e-10, -1.1267945e-8, 3.8666664e+1
-0.016, 8.1776036e-10, -1.1193015e-8, 3.8999996e+1
-0.017, 9.1247943e-10, -1.1119151e-8, 3.9333328e+1
-0.018, 9.9479758e-10, -1.1047059e-8, 3.9666660e+1
-0.019, 1.0747536e-9, -1.0981349e-8, 3.9999992e+1
-0.020, 1.1799840e-9, -1.0893184e-8, 4.0333324e+1
-0.021, 1.2462399e-9, -1.0838110e-8, 4.0666656e+1
-0.022, 1.3006858e-9, -1.0806438e-8, 4.0999989e+1
-0.023, 1.3995383e-9, -1.0730563e-8, 4.1333321e+1
-0.024, 1.4757151e-9, -1.0664499e-8, 4.1666653e+1
-0.025, 1.5635840e-9, -1.0596544e-8, 4.1999985e+1
-0.026, 1.6304307e-9, -1.0533315e-8, 4.2333317e+1
-0.027, 1.7116860e-9, -1.0470560e-8, 4.2666649e+1
-0.028, 1.7928232e-9, -1.0405913e-8, 4.2999981e+1
-0.029, 1.8582523e-9, -1.0345758e-8, 4.3333313e+1
-0.030, 1.9327757e-9, -1.0283002e-8, 4.3666645e+1
-0.031, 2.0070630e-9, -1.0221428e-8, 4.3999977e+1
-0.032, 2.0746180e-9, -1.0163518e-8, 4.4333309e+1
-0.033, 2.1467794e-9, -1.0105609e-8, 4.4666641e+1
-0.034, 2.2104372e-9, -1.0053253e-8, 4.4999973e+1
-0.035, 2.2788191e-9, -9.9960529e-9, 4.5333305e+1
-0.036, 2.3411777e-9, -9.9429878e-9, 4.5666637e+1
-0.037, 2.4003477e-9, -9.8940598e-9, 4.5999969e+1
-0.038, 2.4616433e-9, -9.8417043e-9, 4.6333302e+1
-0.039, 2.5248288e-9, -9.7884039e-9, 4.6666634e+1
-0.040, 2.5849434e-9, -9.7340402e-9, 4.6999966e+1
-0.041, 2.6490736e-9, -9.6810941e-9, 4.7333298e+1
-0.042, 2.6996221e-9, -9.6308650e-9, 4.7666630e+1
-0.043, 2.7591462e-9, -9.5843014e-9, 4.7999962e+1
-0.044, 2.8211504e-9, -9.5409280e-9, 4.8333294e+1
-0.045, 2.8716987e-9, -9.4924726e-9, 4.8666626e+1
-0.046, 2.9286247e-9, -9.4436627e-9, 4.8999958e+1
-0.047, 2.9837792e-9, -9.3939070e-9, 4.9333290e+1
-0.048, 3.0349179e-9, -9.3473425e-9, 4.9666622e+1
-0.049, 3.0911351e-9, -9.2986516e-9, 4.9999954e+1
-0.050, 3.1361327e-9, -9.2535055e-9, 5.0333286e+1
-0.051, 3.1885705e-9, -9.2080041e-9, 5.0666618e+1
-0.052, 3.2382921e-9, -9.1609680e-9, 5.0999950e+1
-0.053, 3.2814000e-9, -9.1126307e-9, 5.1333282e+1
-0.054, 3.3308853e-9, -9.0674845e-9, 5.1666615e+1
-0.055, 3.3804886e-9, -9.0262384e-9, 5.1999947e+1
-0.056, 3.4247776e-9, -8.9849932e-9, 5.2333279e+1
-0.057, 3.4726095e-9, -8.9438643e-9, 5.2666611e+1
-0.058, 3.5172527e-9, -8.9039185e-9, 5.2999943e+1
-0.059, 3.5598877e-9, -8.8646814e-9, 5.3333275e+1
-0.060, 3.6042951e-9, -8.8260350e-9, 5.3666607e+1
-0.061, 3.6388994e-9, -8.7840792e-9, 5.3999939e+1
-0.062, 3.6846053e-9, -8.7430712e-9, 5.4333271e+1
-0.063, 3.7257055e-9, -8.7032426e-9, 5.4666603e+1
-0.064, 3.7649159e-9, -8.6643608e-9, 5.4999935e+1
-0.065, 3.8042445e-9, -8.6264231e-9, 5.5333267e+1
-0.066, 3.8379038e-9, -8.5900229e-9, 5.5666599e+1
-0.067, 3.8773504e-9, -8.5529130e-9, 5.5999931e+1
-0.068, 3.9197494e-9, -8.5169853e-9, 5.6333263e+1
-0.069, 3.9503383e-9, -8.4820027e-9, 5.6666595e+1
-0.070, 3.9890762e-9, -8.4437106e-9, 5.6999928e+1
-0.071, 4.0282866e-9, -8.4044744e-9, 5.7333260e+1
-0.072, 4.0579304e-9, -8.3677199e-9, 5.7666592e+1
-0.073, 4.0947792e-9, -8.3327372e-9, 5.7999924e+1
-0.074, 4.1208796e-9, -8.2984632e-9, 5.8333256e+1
-0.075, 4.1570196e-9, -8.2638358e-9, 5.8666588e+1
-0.076, 4.1937498e-9, -8.2332265e-9, 5.8999920e+1
-0.077, 4.2163073e-9, -8.1987164e-9, 5.9333252e+1
-0.078, 4.2532737e-9, -8.1643252e-9, 5.9666584e+1
-0.079, 4.2840989e-9, -8.1309981e-9, 5.9999916e+1
-0.080, 4.3103179e-9, -8.0968423e-9, 6.0333248e+1
-0.081, 4.3468118e-9, -8.0636333e-9, 6.0666580e+1
-0.082, 4.3698418e-9, -8.0321962e-9, 6.0999912e+1
-0.083, 4.4024384e-9, -8.0008773e-9, 6.1333244e+1
-0.084, 4.4335002e-9, -7.9697955e-9, 6.1666576e+1
-0.085, 4.4542863e-9, -7.9343412e-9, 6.1999908e+1
-0.086, 4.4835757e-9, -7.9018401e-9, 6.2333241e+1
-0.087, 4.5128656e-9, -7.8699296e-9, 6.2666573e+1
-0.088, 4.5393205e-9, -7.8388478e-9, 6.2999905e+1
-0.089, 4.5682556e-9, -7.8089473e-9, 6.3333237e+1
-0.090, 4.5862074e-9, -7.7753839e-9, 6.3666569e+1
-0.091, 4.6124264e-9, -7.7487918e-9, 6.3999901e+1
-0.092, 4.6394719e-9, -7.7167650e-9, 6.4333237e+1
-0.093, 4.6580144e-9, -7.6899367e-9, 6.4666573e+1
-0.094, 4.6876583e-9, -7.6645268e-9, 6.4999908e+1
-0.095, 4.7112794e-9, -7.6341538e-9, 6.5333244e+1
-0.096, 4.7371440e-9, -7.6043714e-9, 6.5666580e+1
-0.097, 4.7633626e-9, -7.5788442e-9, 6.5999916e+1
-0.098, 4.7816693e-9, -7.5531981e-9, 6.6333252e+1
-0.099, 4.8058801e-9, -7.5283797e-9, 6.6666588e+1
-0.100, 4.8323354e-9, -7.5024982e-9, 6.6999924e+1
-0.101, 4.8539484e-9, -7.4779152e-9, 6.7333260e+1
-0.102, 4.8795772e-9, -7.4502604e-9, 6.7666595e+1
-0.103, 4.9034341e-9, -7.4254416e-9, 6.7999931e+1
-0.104, 4.9229207e-9, -7.4009785e-9, 6.8333267e+1
-0.105, 4.9491393e-9, -7.3749775e-9, 6.8666603e+1
-0.106, 4.9626032e-9, -7.3485049e-9, 6.8999939e+1
-0.107, 4.9866964e-9, -7.3223858e-9, 6.9333275e+1
-0.108, 5.0125615e-9, -7.2973312e-9, 6.9666611e+1
-0.109, 5.0288596e-9, -7.2721580e-9, 6.9999947e+1
-0.110, 5.0494093e-9, -7.2472206e-9, 7.0333282e+1
-0.111, 5.0712590e-9, -7.2221660e-9, 7.0666618e+1
-0.112, 5.0889741e-9, -7.1995929e-9, 7.0999954e+1
-0.113, 5.1122409e-9, -7.1772570e-9, 7.1333290e+1
-0.114, 5.1294839e-9, -7.1558657e-9, 7.1666626e+1
-0.115, 5.1482623e-9, -7.1344743e-9, 7.1999962e+1
-0.116, 5.1718829e-9, -7.1070554e-9, 7.2333298e+1
-0.117, 5.1872364e-9, -7.0833006e-9, 7.2666634e+1
-0.118, 5.2069598e-9, -7.0616721e-9, 7.2999969e+1
-0.119, 5.2269189e-9, -7.0393362e-9, 7.3333305e+1
-0.120, 5.2462883e-9, -7.0152262e-9, 7.3666641e+1
-0.121, 5.2717990e-9, -6.9926540e-9, 7.3999977e+1
-0.122, 5.2879789e-9, -6.9679529e-9, 7.4333313e+1
-0.123, 5.3071116e-9, -6.9407711e-9, 7.4666649e+1
-0.124, 5.3321498e-9, -6.9207982e-9, 7.4999985e+1
-0.125, 5.3413616e-9, -6.8975159e-9, 7.5333321e+1
-0.126, 5.3659273e-9, -6.8781341e-9, 7.5666656e+1
-0.127, 5.3889573e-9, -6.8587518e-9, 7.5999992e+1
-0.128, 5.4018305e-9, -6.8394876e-9, 7.6333328e+1
-0.129, 5.4241522e-9, -6.8177419e-9, 7.6666664e+1
-0.130, 5.4384430e-9, -6.7932784e-9, 7.7000000e+1
-0.131, 5.4549774e-9, -6.7711778e-9, 7.7333336e+1
-0.132, 5.4759997e-9, -6.7484862e-9, 7.7666672e+1
-0.133, 5.4935971e-9, -6.7289867e-9, 7.8000008e+1
-0.134, 5.5139111e-9, -6.7084223e-9, 7.8333344e+1
-0.135, 5.5388307e-9, -6.6850223e-9, 7.8666679e+1
-0.136, 5.5594991e-9, -6.6609123e-9, 7.9000015e+1
-0.137, 5.5763874e-9, -6.6495671e-9, 7.9333351e+1
-0.138, 5.6021339e-9, -6.6174208e-9, 7.9666687e+1
-0.139, 5.6109921e-9, -6.6047749e-9, 8.0000023e+1
-0.140, 5.6429981e-9, -6.5773569e-9, 8.0333359e+1
-0.141, 5.6251643e-9, -6.5921300e-9, 8.0666695e+1
-0.142, 5.6500844e-9, -6.5780661e-9, 8.1000031e+1
-0.143, 5.6642566e-9, -6.5577379e-9, 8.1333366e+1
-0.144, 5.6920109e-9, -6.5293739e-9, 8.1666702e+1
-0.145, 5.7124430e-9, -6.5136554e-9, 8.2000038e+1
-0.146, 5.7334653e-9, -6.4908470e-9, 8.2333374e+1
-0.147, 5.7503544e-9, -6.4747736e-9, 8.2666710e+1
-0.148, 5.7808252e-9, -6.4570456e-9, 8.3000046e+1
-0.149, 5.7923990e-9, -6.4367183e-9, 8.3333382e+1
-0.150, 5.8143663e-9, -6.4225367e-9, 8.3666718e+1
-0.151, 5.8332628e-9, -6.4074084e-9, 8.4000053e+1
-0.152, 5.8519229e-9, -6.3901537e-9, 8.4333389e+1
-0.153, 5.8777876e-9, -6.3740813e-9, 8.4666725e+1
-0.154, 5.8930234e-9, -6.3557626e-9, 8.5000061e+1
-0.155, 5.9159349e-9, -6.3350805e-9, 8.5333397e+1
-0.156, 5.9377845e-9, -6.3162888e-9, 8.5666733e+1
-0.157, 5.9516023e-9, -6.2996253e-9, 8.6000069e+1
-0.158, 5.9767586e-9, -6.2849708e-9, 8.6333405e+1
-0.159, 5.9991985e-9, -6.2684244e-9, 8.6666740e+1
-0.160, 6.0193939e-9, -6.2527059e-9, 8.7000076e+1
-0.161, 6.0436052e-9, -6.2373426e-9, 8.7333412e+1
-0.162, 6.0614385e-9, -6.2215055e-9, 8.7666748e+1
-0.163, 6.0871854e-9, -6.2069692e-9, 8.8000084e+1
-0.164, 6.1108061e-9, -6.1921961e-9, 8.8333420e+1
-0.165, 6.1299388e-9, -6.1771872e-9, 8.8666756e+1
-0.166, 6.1566303e-9, -6.1635959e-9, 8.9000092e+1
-0.167, 6.1823768e-9, -6.1494139e-9, 8.9333427e+1
-0.168, 6.2030447e-9, -6.1357044e-9, 8.9666763e+1
-0.169, 6.2320984e-9, -6.1229408e-9, 9.0000099e+1
-0.170, 6.2502861e-9, -6.1061587e-9, 9.0333435e+1
-0.171, 6.2775687e-9, -6.0951679e-9, 9.0666771e+1
-0.172, 6.3066214e-9, -6.0819314e-9, 9.1000107e+1
-0.173, 6.3242189e-9, -6.0697580e-9, 9.1333443e+1
-0.174, 6.3515007e-9, -6.0575851e-9, 9.1666779e+1
-0.175, 6.3768932e-9, -6.0458856e-9, 9.2000114e+1
-0.176, 6.3999237e-9, -6.0332397e-9, 9.2333450e+1
-0.177, 6.4341732e-9, -6.0185847e-9, 9.2666786e+1
-0.178, 6.4554326e-9, -6.0086576e-9, 9.3000122e+1
-0.179, 6.4828320e-9, -5.9994387e-9, 9.3333458e+1
-0.180, 6.5141297e-9, -5.9889205e-9, 9.3666794e+1
-0.181, 6.5375141e-9, -5.9760388e-9, 9.4000130e+1
-0.182, 6.5705827e-9, -5.9633929e-9, 9.4333466e+1
-0.183, 6.6003452e-9, -5.9513385e-9, 9.4666801e+1
-0.184, 6.6298709e-9, -5.9407017e-9, 9.5000137e+1
-0.185, 6.6688455e-9, -5.9314837e-9, 9.5333473e+1
-0.186, 6.6951826e-9, -5.9207292e-9, 9.5666809e+1
-0.187, 6.7284875e-9, -5.9095013e-9, 9.6000145e+1
-0.188, 6.7647452e-9, -5.8973288e-9, 9.6333481e+1
-0.189, 6.7917907e-9, -5.8831460e-9, 9.6666817e+1
-0.190, 6.8297021e-9, -5.8721552e-9, 9.7000153e+1
-0.191, 6.8677313e-9, -5.8602190e-9, 9.7333488e+1
-0.192, 6.8982020e-9, -5.8517098e-9, 9.7666824e+1
-0.193, 6.9397750e-9, -5.8411915e-9, 9.8000160e+1
-0.194, 6.9715447e-9, -5.8341003e-9, 9.8333496e+1
-0.195, 7.0100463e-9, -5.8290186e-9, 9.8666832e+1
-0.196, 7.0539810e-9, -5.8195639e-9, 9.9000168e+1
-0.197, 7.0884667e-9, -5.8099907e-9, 9.9333504e+1
-0.198, 7.1348816e-9, -5.8070362e-9, 9.9666840e+1
-0.199, 7.1810602e-9, -5.8030181e-9, 1.0000018e+2
-0.200, 7.2218063e-9, -5.7963998e-9, 1.0033351e+2
-0.201, 7.2738895e-9, -5.7920269e-9, 1.0066685e+2
-0.202, 7.3125097e-9, -5.7885994e-9, 1.0100018e+2
-0.203, 7.3645934e-9, -5.7888361e-9, 1.0133352e+2
-0.204, 7.4184476e-9, -5.7856453e-9, 1.0166685e+2
-0.205, 7.4803346e-9, -5.7829270e-9, 1.0200019e+2
-0.206, 7.5305282e-9, -5.7822178e-9, 1.0233353e+2
-0.207, 7.5833206e-9, -5.7803264e-9, 1.0266686e+2
-0.208, 7.6356415e-9, -5.7785536e-9, 1.0300020e+2
-0.209, 7.7001250e-9, -5.7804450e-9, 1.0333353e+2
-0.210, 7.7536262e-9, -5.7857634e-9, 1.0366687e+2
-0.211, 7.8157489e-9, -5.7913181e-9, 1.0400021e+2
-0.212, 7.8854301e-9, -5.7947456e-9, 1.0433354e+2
-0.213, 7.9449531e-9, -5.7992362e-9, 1.0466688e+2
-0.214, 8.0182962e-9, -5.8046727e-9, 1.0500021e+2
-0.215, 8.0918747e-9, -5.8142455e-9, 1.0533355e+2
-0.216, 8.1652169e-9, -5.8239364e-9, 1.0566689e+2
-0.217, 8.2454097e-9, -5.8359912e-9, 1.0600022e+2
-0.218, 8.3176888e-9, -5.8485190e-9, 1.0633356e+2
-0.219, 8.4035499e-9, -5.8618732e-9, 1.0666689e+2
-0.220, 8.4921270e-9, -5.8783005e-9, 1.0700023e+2
-0.221, 8.5714928e-9, -5.8957919e-9, 1.0733356e+2
-0.222, 8.6664480e-9, -5.9188379e-9, 1.0766690e+2
-0.223, 8.7623482e-9, -5.9436562e-9, 1.0800024e+2
-0.224, 8.8595478e-9, -5.9657572e-9, 1.0833357e+2
-0.225, 8.9641867e-9, -5.9890390e-9, 1.0866691e+2
-0.226, 9.0615044e-9, -6.0174030e-9, 1.0900024e+2
-0.227, 9.1708685e-9, -6.0478942e-9, 1.0933358e+2
-0.228, 9.2868460e-9, -6.0811041e-9, 1.0966692e+2
-0.229, 9.4005799e-9, -6.1156138e-9, 1.1000025e+2
-0.230, 9.5209272e-9, -6.1504779e-9, 1.1033359e+2
-0.231, 9.6400941e-9, -6.1885328e-9, 1.1066692e+2
-0.232, 9.7620942e-9, -6.2342700e-9, 1.1100026e+2
-0.233, 9.8937800e-9, -6.2810703e-9, 1.1133360e+2
-0.234, 1.0014837e-8, -6.3304717e-9, 1.1166693e+2
-0.235, 1.0152427e-8, -6.3810535e-9, 1.1200027e+2
-0.236, 1.0289073e-8, -6.4314003e-9, 1.1233360e+2
-0.237, 1.0420876e-8, -6.4871828e-9, 1.1266694e+2
-0.238, 1.0564727e-8, -6.5493473e-9, 1.1300027e+2
-0.239, 1.0709520e-8, -6.6121029e-9, 1.1333361e+2
-0.240, 1.0849710e-8, -6.6756862e-9, 1.1366695e+2
-0.241, 1.0999229e-8, -6.7391501e-9, 1.1400028e+2
-0.242, 1.1144261e-8, -6.8078148e-9, 1.1433362e+2
-0.243, 1.1297440e-8, -6.8796702e-9, 1.1466695e+2
-0.244, 1.1454282e-8, -6.9568440e-9, 1.1500029e+2
-0.245, 1.1605573e-8, -7.0376815e-9, 1.1533363e+2
-0.246, 1.1762178e-8, -7.1173369e-9, 1.1566696e+2
-0.247, 1.1916067e-8, -7.1947479e-9, 1.1600030e+2
-0.248, 1.2064523e-8, -7.2764124e-9, 1.1633363e+2
-0.249, 1.2203649e-8, -7.3581958e-9, 1.1666697e+2
-0.250, 1.2350215e-8, -7.4402147e-9, 1.1700031e+2
-0.251, 1.2506113e-8, -7.5224706e-9, 1.1733364e+2
-0.252, 1.2658228e-8, -7.6062632e-9, 1.1766698e+2
-0.253, 1.2798181e-8, -7.6895823e-9, 1.1800031e+2
-0.254, 1.2949235e-8, -7.7770377e-9, 1.1833365e+2
-0.255, 1.3100645e-8, -7.8704030e-9, 1.1866698e+2
-0.256, 1.3243667e-8, -7.9608133e-9, 1.1900032e+2
-0.257, 1.3392241e-8, -8.0483877e-9, 1.1933366e+2
-0.258, 1.3525582e-8, -8.1337159e-9, 1.1966699e+2
-0.259, 1.3660220e-8, -8.2202263e-9, 1.2000033e+2
-0.260, 1.3798873e-8, -8.3087457e-9, 1.2033366e+2
-0.261, 1.3925362e-8, -8.3964382e-9, 1.2066700e+2
-0.262, 1.4061419e-8, -8.4864942e-9, 1.2100034e+2
-0.263, 1.4182474e-8, -8.5725320e-9, 1.2133367e+2
-0.264, 1.4300340e-8, -8.6546690e-9, 1.2166701e+2
-0.265, 1.4421988e-8, -8.7414156e-9, 1.2200034e+2
-0.266, 1.4531469e-8, -8.8253262e-9, 1.2233368e+2
-0.267, 1.4648156e-8, -8.9019094e-9, 1.2266702e+2
-0.268, 1.4763071e-8, -8.9796748e-9, 1.2300035e+2
-0.269, 1.4864521e-8, -9.0573211e-9, 1.2333369e+2
-0.270, 1.4973057e-8, -9.1314210e-9, 1.2366702e+2
-0.271, 1.5070729e-8, -9.2041041e-9, 1.2400036e+2
-0.272, 1.5160962e-8, -9.2776142e-9, 1.2433369e+2
-0.273, 1.5257806e-8, -9.3513606e-9, 1.2466703e+2
-0.274, 1.5343549e-8, -9.4206172e-9, 1.2500037e+2
-0.275, 1.5436260e-8, -9.4873904e-9, 1.2533370e+2
-0.276, 1.5523538e-8, -9.5535730e-9, 1.2566704e+2
-0.277, 1.5597116e-8, -9.6218837e-9, 1.2600037e+2
-0.278, 1.5678728e-8, -9.6831023e-9, 1.2633371e+2
-0.279, 1.5754903e-8, -9.7431396e-9, 1.2666705e+2
-0.280, 1.5827773e-8, -9.8047135e-9, 1.2700038e+2
-0.281, 1.5903479e-8, -9.8636868e-9, 1.2733372e+2
-0.282, 1.5960522e-8, -9.9194697e-9, 1.2766705e+2
-0.283, 1.6027723e-8, -9.9683968e-9, 1.2800038e+2
-0.284, 1.6096815e-8, -1.0013544e-8, 1.2833371e+2
-0.285, 1.6147007e-8, -1.0065545e-8, 1.2866704e+2
-0.286, 1.6218461e-8, -1.0107972e-8, 1.2900037e+2
-0.287, 1.6269597e-8, -1.0161982e-8, 1.2933369e+2
-0.288, 1.6322273e-8, -1.0206538e-8, 1.2966702e+2
-0.289, 1.6382860e-8, -1.0246011e-8, 1.3000035e+2
-0.290, 1.6426911e-8, -1.0287020e-8, 1.3033368e+2
-0.291, 1.6479468e-8, -1.0328975e-8, 1.3066701e+2
-0.292, 1.6529780e-8, -1.0368922e-8, 1.3100034e+2
-0.293, 1.6572178e-8, -1.0408986e-8, 1.3133366e+2
-0.294, 1.6625680e-8, -1.0447869e-8, 1.3166699e+2
-0.295, 1.6672804e-8, -1.0483324e-8, 1.3200032e+2
-0.296, 1.6717800e-8, -1.0518661e-8, 1.3233365e+2
-0.297, 1.6785830e-8, -1.0540288e-8, 1.3266698e+2
-0.298, 1.6813702e-8, -1.0579880e-8, 1.3300031e+2
-0.299, 1.6865313e-8, -1.0616635e-8, 1.3333363e+2
-0.300, 1.6896493e-8, -1.0670171e-8, 1.3366696e+2
-0.301, 1.6962160e-8, -1.0676436e-8, 1.3400029e+2
-0.302, 1.6986723e-8, -1.0715790e-8, 1.3433362e+2
-0.303, 1.7000897e-8, -1.0788946e-8, 1.3466695e+2
-0.304, 1.7049201e-8, -1.0802892e-8, 1.3500027e+2
-0.305, 1.7089473e-8, -1.0837637e-8, 1.3533360e+2
-0.306, 1.7127148e-8, -1.0858201e-8, 1.3566693e+2
-0.307, 1.7175690e-8, -1.0886447e-8, 1.3600026e+2
-0.308, 1.7222813e-8, -1.0909965e-8, 1.3633359e+2
-0.309, 1.7256944e-8, -1.0937384e-8, 1.3666692e+2
-0.310, 1.7295918e-8, -1.0964331e-8, 1.3700024e+2
-0.311, 1.7337372e-8, -1.0989858e-8, 1.3733357e+2
-0.312, 1.7371386e-8, -1.1015858e-8, 1.3766690e+2
-0.313, 1.7413194e-8, -1.1042687e-8, 1.3800023e+2
-0.314, 1.7443194e-8, -1.1067504e-8, 1.3833356e+2
-0.315, 1.7476262e-8, -1.1089250e-8, 1.3866689e+2
-0.316, 1.7512047e-8, -1.1110997e-8, 1.3900021e+2
-0.317, 1.7534960e-8, -1.1132978e-8, 1.3933354e+2
-0.318, 1.7573461e-8, -1.1158979e-8, 1.3966687e+2
-0.319, 1.7604878e-8, -1.1179661e-8, 1.4000020e+2
-0.320, 1.7634285e-8, -1.1203179e-8, 1.4033353e+2
-0.321, 1.7671960e-8, -1.1226343e-8, 1.4066685e+2
-0.322, 1.7697706e-8, -1.1246553e-8, 1.4100018e+2
-0.323, 1.7730303e-8, -1.1267471e-8, 1.4133351e+2
-0.324, 1.7767682e-8, -1.1286617e-8, 1.4166684e+2
-0.325, 1.7797623e-8, -1.1309190e-8, 1.4200017e+2
-0.326, 1.7831400e-8, -1.1329163e-8, 1.4233350e+2
-0.327, 1.7864116e-8, -1.1350436e-8, 1.4266682e+2
-0.328, 1.7891928e-8, -1.1368755e-8, 1.4300015e+2
-0.329, 1.7927771e-8, -1.1386719e-8, 1.4333348e+2
-0.330, 1.7951098e-8, -1.1406101e-8, 1.4366681e+2
-0.331, 1.7985053e-8, -1.1423592e-8, 1.4400014e+2
-0.332, 1.8015051e-8, -1.1440137e-8, 1.4433347e+2
-0.333, 1.8033477e-8, -1.1456093e-8, 1.4466679e+2
-0.334, 1.8062115e-8, -1.1472402e-8, 1.4500012e+2
-0.335, 1.8090342e-8, -1.1489185e-8, 1.4533345e+2
-0.336, 1.8110301e-8, -1.1503484e-8, 1.4566678e+2
-0.337, 1.8138943e-8, -1.1519793e-8, 1.4600011e+2
-0.338, 1.8155950e-8, -1.1536221e-8, 1.4633344e+2
-0.339, 1.8183465e-8, -1.1552530e-8, 1.4666676e+2
-0.340, 1.8213466e-8, -1.1567066e-8, 1.4700009e+2
-0.341, 1.8228937e-8, -1.1581249e-8, 1.4733342e+2
-0.342, 1.8253916e-8, -1.1594484e-8, 1.4766675e+2
-0.343, 1.8278126e-8, -1.1610085e-8, 1.4800008e+2
-0.344, 1.8299977e-8, -1.1621903e-8, 1.4833340e+2
-0.345, 1.8325958e-8, -1.1633603e-8, 1.4866673e+2
-0.346, 1.8339659e-8, -1.1644832e-8, 1.4900006e+2
-0.347, 1.8364991e-8, -1.1660550e-8, 1.4933339e+2
-0.348, 1.8390384e-8, -1.1673668e-8, 1.4966672e+2
-0.349, 1.8404734e-8, -1.1683833e-8, 1.5000005e+2
-0.350, 1.8431720e-8, -1.1695295e-8, 1.5033337e+2
-0.351, 1.8454218e-8, -1.1704278e-8, 1.5066670e+2
-0.352, 1.8469395e-8, -1.1710305e-8, 1.5100003e+2
-0.353, 1.8492544e-8, -1.1716450e-8, 1.5133336e+2
-0.354, 1.8506302e-8, -1.1725668e-8, 1.5166669e+2
-0.355, 1.8523487e-8, -1.1736896e-8, 1.5200002e+2
-0.356, 1.8548052e-8, -1.1748833e-8, 1.5233334e+2
-0.357, 1.8564764e-8, -1.1758288e-8, 1.5266667e+2
-0.358, 1.8589802e-8, -1.1772352e-8, 1.5300000e+2
-0.359, 1.8612537e-8, -1.1783224e-8, 1.5333333e+2
-0.360, 1.8628597e-8, -1.1794925e-8, 1.5366666e+2
-0.361, 1.8655349e-8, -1.1808634e-8, 1.5399998e+2
-0.362, 1.8667041e-8, -1.1821516e-8, 1.5433331e+2
-0.363, 1.8693497e-8, -1.1831443e-8, 1.5466664e+2
-0.364, 1.8719360e-8, -1.1843853e-8, 1.5499997e+2
-0.365, 1.8738021e-8, -1.1855907e-8, 1.5533330e+2
-0.366, 1.8761229e-8, -1.1868908e-8, 1.5566663e+2
-0.367, 1.8781897e-8, -1.1880252e-8, 1.5599995e+2
-0.368, 1.8799790e-8, -1.1890535e-8, 1.5633328e+2
-0.369, 1.8827427e-8, -1.1900108e-8, 1.5666661e+2
-0.370, 1.8845910e-8, -1.1914644e-8, 1.5699994e+2
-0.371, 1.8868526e-8, -1.1934499e-8, 1.5733327e+2
-0.372, 1.8896989e-8, -1.1942890e-8, 1.5766660e+2
-0.373, 1.8914527e-8, -1.1958609e-8, 1.5799992e+2
-0.374, 1.8938678e-8, -1.1974327e-8, 1.5833325e+2
-0.375, 1.8959938e-8, -1.1988627e-8, 1.5866658e+2
-0.376, 1.8979899e-8, -1.1999973e-8, 1.5899991e+2
-0.377, 1.9006176e-8, -1.2010492e-8, 1.5933324e+2
-0.378, 1.9021885e-8, -1.2018882e-8, 1.5966656e+2
-0.379, 1.9043377e-8, -1.2031883e-8, 1.5999989e+2
-0.380, 1.9069361e-8, -1.2039328e-8, 1.6033322e+2
-0.381, 1.9081348e-8, -1.2043937e-8, 1.6066655e+2
-0.382, 1.9110756e-8, -1.2054929e-8, 1.6099988e+2
-0.383, 1.9133019e-8, -1.2067337e-8, 1.6133321e+2
-0.384, 1.9148667e-8, -1.2080692e-8, 1.6166653e+2
-0.385, 1.9175715e-8, -1.2090265e-8, 1.6199986e+2
-0.386, 1.9191834e-8, -1.2100783e-8, 1.6233319e+2
-0.387, 1.9209727e-8, -1.2107992e-8, 1.6266652e+2
-0.388, 1.9237422e-8, -1.2119103e-8, 1.6299985e+2
-0.389, 1.9252127e-8, -1.2130212e-8, 1.6333318e+2
-0.390, 1.9274625e-8, -1.2140847e-8, 1.6366650e+2
-0.391, 1.9299545e-8, -1.2155030e-8, 1.6399983e+2
-0.392, 1.9320805e-8, -1.2165430e-8, 1.6433316e+2
-0.393, 1.9345604e-8, -1.2174057e-8, 1.6466649e+2
-0.394, 1.9363320e-8, -1.2185875e-8, 1.6499982e+2
-0.395, 1.9391489e-8, -1.2196040e-8, 1.6533315e+2
-0.396, 1.9419243e-8, -1.2207740e-8, 1.6566647e+2
-0.397, 1.9431644e-8, -1.2216722e-8, 1.6599980e+2
-0.398, 1.9458867e-8, -1.2230549e-8, 1.6633313e+2
-0.399, 1.9484554e-8, -1.2241540e-8, 1.6666646e+2
-0.400, 1.9505222e-8, -1.2252886e-8, 1.6699979e+2
-0.401, 1.9534689e-8, -1.2263759e-8, 1.6733311e+2
-0.402, 1.9551814e-8, -1.2276050e-8, 1.6766644e+2
-0.403, 1.9576852e-8, -1.2289168e-8, 1.6799977e+2
-0.404, 1.9603188e-8, -1.2300159e-8, 1.6833310e+2
-0.405, 1.9621023e-8, -1.2311387e-8, 1.6866643e+2
-0.406, 1.9644880e-8, -1.2322968e-8, 1.6899976e+2
-0.407, 1.9670980e-8, -1.2334668e-8, 1.6933308e+2
-0.408, 1.9693420e-8, -1.2348142e-8, 1.6966641e+2
-0.409, 1.9725013e-8, -1.2361142e-8, 1.6999974e+2
-0.410, 1.9760622e-8, -1.2370360e-8, 1.7033307e+2
-0.411, 1.9774911e-8, -1.2381234e-8, 1.7066640e+2
-0.412, 1.9803139e-8, -1.2392815e-8, 1.7099973e+2
-0.413, 1.9816129e-8, -1.2404042e-8, 1.7133305e+2
-0.414, 1.9842879e-8, -1.2414797e-8, 1.7166638e+2
-0.415, 1.9864967e-8, -1.2426025e-8, 1.7199971e+2
-0.416, 1.9888528e-8, -1.2435007e-8, 1.7233304e+2
-0.417, 1.9913742e-8, -1.2446944e-8, 1.7266637e+2
-0.418, 1.9932283e-8, -1.2458289e-8, 1.7299969e+2
-0.419, 1.9956435e-8, -1.2470697e-8, 1.7333302e+2
-0.420, 1.9980471e-8, -1.2479325e-8, 1.7366635e+2
-0.421, 1.9999307e-8, -1.2488544e-8, 1.7399968e+2
-0.422, 2.0024759e-8, -1.2497762e-8, 1.7433301e+2
-0.423, 2.0049088e-8, -1.2509345e-8, 1.7466634e+2
-0.424, 2.0071647e-8, -1.2517853e-8, 1.7499966e+2
-0.425, 2.0099579e-8, -1.2525890e-8, 1.7533299e+2
-0.426, 2.0115522e-8, -1.2533808e-8, 1.7566632e+2
-0.427, 2.0145048e-8, -1.2545153e-8, 1.7599965e+2
-0.428, 2.0175341e-8, -1.2554136e-8, 1.7633298e+2
-0.429, 2.0195596e-8, -1.2565363e-8, 1.7666631e+2
-0.430, 2.0221933e-8, -1.2576826e-8, 1.7699963e+2
-0.431, 2.0245791e-8, -1.2588527e-8, 1.7733296e+2
-0.432, 2.0266814e-8, -1.2600936e-8, 1.7766629e+2
-0.433, 2.0298877e-8, -1.2614055e-8, 1.7799962e+2
-0.434, 2.0320492e-8, -1.2622563e-8, 1.7833295e+2
-0.435, 2.0345706e-8, -1.2631191e-8, 1.7866628e+2
-0.436, 2.0371216e-8, -1.2639465e-8, 1.7899960e+2
-0.437, 2.0391884e-8, -1.2650928e-8, 1.7933293e+2
-0.438, 2.0421055e-8, -1.2661682e-8, 1.7966626e+2
-0.439, 2.0447393e-8, -1.2668184e-8, 1.7999959e+2
-0.440, 2.0473317e-8, -1.2677637e-8, 1.8033292e+2
-0.441, 2.0504554e-8, -1.2687329e-8, 1.8066624e+2
-0.442, 2.0525755e-8, -1.2697493e-8, 1.8099957e+2
-0.443, 2.0550674e-8, -1.2707183e-8, 1.8133290e+2
-0.444, 2.0581144e-8, -1.2717464e-8, 1.8166623e+2
-0.445, 2.0599511e-8, -1.2726684e-8, 1.8199956e+2
-0.446, 2.0630631e-8, -1.2734484e-8, 1.8233289e+2
-0.447, 2.0655964e-8, -1.2739330e-8, 1.8266621e+2
-0.448, 2.0673326e-8, -1.2742993e-8, 1.8299954e+2
-0.449, 2.0702496e-8, -1.2748666e-8, 1.8333287e+2
-0.450, 2.0720920e-8, -1.2755874e-8, 1.8366620e+2
-0.451, 2.0747965e-8, -1.2766749e-8, 1.8399953e+2
-0.452, 2.0779501e-8, -1.2771357e-8, 1.8433286e+2
-0.453, 2.0801409e-8, -1.2779039e-8, 1.8466618e+2
-0.454, 2.0832763e-8, -1.2782229e-8, 1.8499951e+2
-0.455, 2.0861405e-8, -1.2791920e-8, 1.8533284e+2
-0.456, 2.0887329e-8, -1.2802203e-8, 1.8566617e+2
-0.457, 2.0922345e-8, -1.2811657e-8, 1.8599950e+2
-0.458, 2.0940533e-8, -1.2818277e-8, 1.8633282e+2
-0.459, 2.0973484e-8, -1.2822057e-8, 1.8666615e+2
-0.460, 2.1004960e-8, -1.2830685e-8, 1.8699948e+2
-0.461, 2.1031179e-8, -1.2839903e-8, 1.8733281e+2
-0.462, 2.1062418e-8, -1.2844040e-8, 1.8766614e+2
-0.463, 2.1092887e-8, -1.2848411e-8, 1.8799947e+2
-0.464, 2.1116509e-8, -1.2851603e-8, 1.8833279e+2
-0.465, 2.1155955e-8, -1.2857395e-8, 1.8866612e+2
-0.466, 2.1179575e-8, -1.2861885e-8, 1.8899945e+2
-0.467, 2.1213413e-8, -1.2865430e-8, 1.8933278e+2
-0.468, 2.1252209e-8, -1.2873467e-8, 1.8966611e+2
-0.469, 2.1275595e-8, -1.2884342e-8, 1.8999944e+2
-0.470, 2.1310079e-8, -1.2888713e-8, 1.9033276e+2
-0.471, 2.1344212e-8, -1.2894032e-8, 1.9066609e+2
-0.472, 2.1377870e-8, -1.2901713e-8, 1.9099942e+2
-0.473, 2.1418616e-8, -1.2914240e-8, 1.9133275e+2
-0.474, 2.1446844e-8, -1.2918851e-8, 1.9166608e+2
-0.475, 2.1483988e-8, -1.2923460e-8, 1.9199940e+2
-0.476, 2.1522609e-8, -1.2930787e-8, 1.9233273e+2
-0.477, 2.1546642e-8, -1.2938823e-8, 1.9266606e+2
-0.478, 2.1584436e-8, -1.2943551e-8, 1.9299939e+2
-0.479, 2.1622229e-8, -1.2948987e-8, 1.9333272e+2
-0.480, 2.1655651e-8, -1.2955367e-8, 1.9366605e+2
-0.481, 2.1692854e-8, -1.2961040e-8, 1.9399937e+2
-0.482, 2.1725096e-8, -1.2968016e-8, 1.9433270e+2
-0.483, 2.1760764e-8, -1.2973334e-8, 1.9466603e+2
-0.484, 2.1801922e-8, -1.2979360e-8, 1.9499936e+2
-0.485, 2.1835168e-8, -1.2986805e-8, 1.9533269e+2
-0.486, 2.1872076e-8, -1.2998150e-8, 1.9566602e+2
-0.487, 2.1911996e-8, -1.3006188e-8, 1.9599934e+2
-0.488, 2.1948903e-8, -1.3012923e-8, 1.9633267e+2
-0.489, 2.1997501e-8, -1.3023206e-8, 1.9666600e+2
-0.490, 2.2030276e-8, -1.3030651e-8, 1.9699933e+2
-0.491, 2.2073383e-8, -1.3037153e-8, 1.9733266e+2
-0.492, 2.2119856e-8, -1.3044597e-8, 1.9766599e+2
-0.493, 2.2155524e-8, -1.3056416e-8, 1.9799931e+2
-0.494, 2.2199989e-8, -1.3066580e-8, 1.9833264e+2
-0.495, 2.2246345e-8, -1.3074852e-8, 1.9866597e+2
-0.496, 2.2288274e-8, -1.3087026e-8, 1.9899930e+2
-0.497, 2.2339529e-8, -1.3097307e-8, 1.9933263e+2
-0.498, 2.2382224e-8, -1.3111962e-8, 1.9966595e+2
-0.499, 2.2427162e-8, -1.3128862e-8, 1.9999928e+2
-0.500, 2.1692559e-8, -1.3142808e-8, 2.0033261e+2
-0.499, 2.0138552e-8, -1.3139617e-8, 2.0066594e+2
-0.498, 1.9334207e-8, -1.3126735e-8, 2.0099927e+2
-0.497, 1.8714459e-8, -1.3111726e-8, 2.0133260e+2
-0.496, 1.8210688e-8, -1.3097189e-8, 2.0166592e+2
-0.495, 1.7769514e-8, -1.3081470e-8, 2.0199925e+2
-0.494, 1.7373040e-8, -1.3067526e-8, 2.0233258e+2
-0.493, 1.7014949e-8, -1.3054171e-8, 2.0266591e+2
-0.492, 1.6680245e-8, -1.3039162e-8, 2.0299924e+2
-0.491, 1.6383449e-8, -1.3022850e-8, 2.0333257e+2
-0.490, 1.6094452e-8, -1.3008787e-8, 2.0366589e+2
-0.489, 1.5818088e-8, -1.2996971e-8, 2.0399922e+2
-0.488, 1.5566885e-8, -1.2982787e-8, 2.0433255e+2
-0.487, 1.5319220e-8, -1.2966242e-8, 2.0466588e+2
-0.486, 1.5093523e-8, -1.2952532e-8, 2.0499921e+2
-0.485, 1.4871371e-8, -1.2943432e-8, 2.0533253e+2
-0.484, 1.4655596e-8, -1.2933505e-8, 2.0566586e+2
-0.483, 1.4461198e-8, -1.2922868e-8, 2.0599919e+2
-0.482, 1.4263021e-8, -1.2913886e-8, 2.0633252e+2
-0.481, 1.4079133e-8, -1.2904078e-8, 2.0666585e+2
-0.480, 1.3904339e-8, -1.2896160e-8, 2.0699918e+2
-0.479, 1.3732262e-8, -1.2886705e-8, 2.0733250e+2
-0.478, 1.3566917e-8, -1.2875594e-8, 2.0766583e+2
-0.477, 1.3409013e-8, -1.2871340e-8, 2.0799916e+2
-0.476, 1.3245085e-8, -1.2861176e-8, 2.0833249e+2
-0.475, 1.3098519e-8, -1.2851368e-8, 2.0866582e+2
-0.474, 1.2952071e-8, -1.2843802e-8, 2.0899915e+2
-0.473, 1.2805033e-8, -1.2835412e-8, 2.0933247e+2
-0.472, 1.2671222e-8, -1.2827850e-8, 2.0966580e+2
-0.471, 1.2533866e-8, -1.2817567e-8, 2.0999913e+2
-0.470, 1.2403598e-8, -1.2810476e-8, 2.1033246e+2
-0.469, 1.2278527e-8, -1.2802794e-8, 2.1066579e+2
-0.468, 1.2154517e-8, -1.2795466e-8, 2.1099911e+2
-0.467, 1.2056137e-8, -1.2786840e-8, 2.1133244e+2
-0.466, 1.1942404e-8, -1.2779275e-8, 2.1166577e+2
-0.465, 1.1826780e-8, -1.2774193e-8, 2.1199910e+2
-0.464, 1.1723794e-8, -1.2766394e-8, 2.1233243e+2
-0.463, 1.1610298e-8, -1.2753985e-8, 2.1266576e+2
-0.462, 1.1501405e-8, -1.2743583e-8, 2.1299908e+2
-0.461, 1.1398065e-8, -1.2735428e-8, 2.1333241e+2
-0.460, 1.1287283e-8, -1.2726210e-8, 2.1366574e+2
-0.459, 1.1191619e-8, -1.2718884e-8, 2.1399907e+2
-0.458, 1.1092176e-8, -1.2708247e-8, 2.1433240e+2
-0.457, 1.0992261e-8, -1.2699856e-8, 2.1466573e+2
-0.456, 1.0903210e-8, -1.2690165e-8, 2.1499905e+2
-0.455, 1.0806720e-8, -1.2682365e-8, 2.1533238e+2
-0.454, 1.0717434e-8, -1.2673973e-8, 2.1566571e+2
-0.453, 1.0630628e-8, -1.2667237e-8, 2.1599904e+2
-0.452, 1.0539688e-8, -1.2658138e-8, 2.1633237e+2
-0.451, 1.0461032e-8, -1.2655184e-8, 2.1666570e+2
-0.450, 1.0374698e-8, -1.2653528e-8, 2.1699902e+2
-0.449, 1.0294033e-8, -1.2647146e-8, 2.1733235e+2
-0.448, 1.0222816e-8, -1.2640764e-8, 2.1766568e+2
-0.447, 1.0141207e-8, -1.2634973e-8, 2.1799901e+2
-0.446, 1.0064676e-8, -1.2626582e-8, 2.1833234e+2
-0.445, 1.0005270e-8, -1.2606019e-8, 2.1866566e+2
-0.444, 9.9202353e-9, -1.2594908e-8, 2.1899899e+2
-0.443, 9.8543333e-9, -1.2582263e-8, 2.1933232e+2
-0.442, 9.7760307e-9, -1.2580609e-8, 2.1966565e+2
-0.441, 9.6592263e-9, -1.2613111e-8, 2.1999898e+2
-0.440, 9.6169455e-9, -1.2588527e-8, 2.2033231e+2
-0.439, 9.5490353e-9, -1.2571627e-8, 2.2066563e+2
-0.438, 9.4905754e-9, -1.2556145e-8, 2.2099896e+2
-0.437, 9.4328216e-9, -1.2541846e-8, 2.2133229e+2
-0.436, 9.3820383e-9, -1.2508516e-8, 2.2166562e+2
-0.435, 9.3065697e-9, -1.2504499e-8, 2.2199895e+2
-0.434, 9.2057091e-9, -1.2545153e-8, 2.2233228e+2
-0.433, 9.1253991e-9, -1.2556971e-8, 2.2266560e+2
-0.432, 9.0845349e-9, -1.2533216e-8, 2.2299893e+2
-0.431, 9.0179242e-9, -1.2512062e-8, 2.2333226e+2
-0.430, 8.9674943e-9, -1.2490316e-8, 2.2366559e+2
-0.429, 8.9054897e-9, -1.2481452e-8, 2.2399892e+2
-0.428, 8.8419494e-9, -1.2469870e-8, 2.2433224e+2
-0.427, 8.7865599e-9, -1.2459471e-8, 2.2466557e+2
-0.426, 8.7301064e-9, -1.2450371e-8, 2.2499890e+2
-0.425, 8.6702272e-9, -1.2442452e-8, 2.2533223e+2
-0.424, 8.6163725e-9, -1.2434534e-8, 2.2566556e+2
-0.423, 8.5521243e-9, -1.2425670e-8, 2.2599889e+2
-0.422, 8.4983869e-9, -1.2416806e-8, 2.2633221e+2
-0.421, 8.4416971e-9, -1.2408533e-8, 2.2666554e+2
-0.420, 8.3831173e-9, -1.2401561e-8, 2.2699887e+2
-0.419, 8.3376479e-9, -1.2391752e-8, 2.2733220e+2
-0.418, 8.2776515e-9, -1.2381115e-8, 2.2766553e+2
-0.417, 8.2188363e-9, -1.2372960e-8, 2.2799886e+2
-0.416, 8.1701774e-9, -1.2363978e-8, 2.2833218e+2
-0.415, 8.1137230e-9, -1.2356414e-8, 2.2866551e+2
-0.414, 8.0623490e-9, -1.2349441e-8, 2.2899884e+2
-0.413, 8.0149896e-9, -1.2344715e-8, 2.2933217e+2
-0.412, 7.9579454e-9, -1.2336442e-8, 2.2966550e+2
-0.411, 7.9135383e-9, -1.2326750e-8, 2.2999883e+2
-0.410, 7.8484632e-9, -1.2319895e-8, 2.3033215e+2
-0.409, 7.7961433e-9, -1.2310323e-8, 2.3066548e+2
-0.408, 7.7572873e-9, -1.2303232e-8, 2.3099881e+2
-0.407, 7.7088647e-9, -1.2295313e-8, 2.3133214e+2
-0.406, 7.6643403e-9, -1.2283377e-8, 2.3166547e+2
-0.405, 7.6179250e-9, -1.2272505e-8, 2.3199879e+2
-0.404, 7.5651334e-9, -1.2261868e-8, 2.3233212e+2
-0.403, 7.5239148e-9, -1.2255840e-8, 2.3266545e+2
-0.402, 7.4743118e-9, -1.2247686e-8, 2.3299878e+2
-0.401, 7.4249438e-9, -1.2240122e-8, 2.3333211e+2
-0.400, 7.3897488e-9, -1.2233031e-8, 2.3366544e+2
-0.399, 7.3401454e-9, -1.2227477e-8, 2.3399876e+2
-0.398, 7.2952666e-9, -1.2220622e-8, 2.3433209e+2
-0.397, 7.2539308e-9, -1.2213885e-8, 2.3466542e+2
-0.396, 7.2066881e-9, -1.2207149e-8, 2.3499875e+2
-0.395, 7.1691311e-9, -1.2200885e-8, 2.3533208e+2
-0.394, 7.1263777e-9, -1.2190721e-8, 2.3566541e+2
-0.393, 7.0820900e-9, -1.2182094e-8, 2.3599873e+2
-0.392, 7.0467765e-9, -1.2174294e-8, 2.3633206e+2
-0.391, 7.0016610e-9, -1.2166611e-8, 2.3666539e+2
-0.390, 6.9603252e-9, -1.2156685e-8, 2.3699872e+2
-0.389, 6.9232406e-9, -1.2150657e-8, 2.3733205e+2
-0.388, 6.8789512e-9, -1.2144393e-8, 2.3766537e+2
-0.387, 6.8455281e-9, -1.2139548e-8, 2.3799870e+2
-0.386, 6.8005308e-9, -1.2133520e-8, 2.3833203e+2
-0.385, 6.7613208e-9, -1.2126192e-8, 2.3866536e+2
-0.384, 6.7284875e-9, -1.2119103e-8, 2.3899869e+2
-0.383, 6.6832535e-9, -1.2112247e-8, 2.3933202e+2
-0.382, 6.6432162e-9, -1.2101729e-8, 2.3966534e+2
-0.381, 6.6084946e-9, -1.2093456e-8, 2.3999867e+2
-0.380, 6.5620798e-9, -1.2082583e-8, 2.4033200e+2
-0.379, 6.5252319e-9, -1.2070529e-8, 2.4066533e+2
-0.378, 6.4855485e-9, -1.2059300e-8, 2.4099866e+2
-0.377, 6.4445667e-9, -1.2047837e-8, 2.4133199e+2
-0.376, 6.4118519e-9, -1.2039328e-8, 2.4166531e+2
-0.375, 6.3681536e-9, -1.2034010e-8, 2.4199864e+2
-0.374, 6.3324861e-9, -1.2024318e-8, 2.4233197e+2
-0.373, 6.2962289e-9, -1.2013801e-8, 2.4266530e+2
-0.372, 6.2526482e-9, -1.2005527e-8, 2.4299863e+2
-0.371, 6.2231225e-9, -1.1996782e-8, 2.4333195e+2
-0.370, 6.1804872e-9, -1.1987328e-8, 2.4366528e+2
-0.369, 6.1393872e-9, -1.1980945e-8, 2.4399861e+2
-0.368, 6.1071450e-9, -1.1970073e-8, 2.4433194e+2
-0.367, 6.0613208e-9, -1.1955890e-8, 2.4466527e+2
-0.366, 6.0236456e-9, -1.1947263e-8, 2.4499860e+2
-0.365, 5.9872698e-9, -1.1937690e-8, 2.4533192e+2
-0.364, 5.9428631e-9, -1.1924572e-8, 2.4566525e+2
-0.363, 5.9090848e-9, -1.1916890e-8, 2.4599858e+2
-0.362, 5.8712923e-9, -1.1903417e-8, 2.4633191e+2
-0.361, 5.8293654e-9, -1.1888408e-8, 2.4666524e+2
-0.360, 5.7958238e-9, -1.1878125e-8, 2.4699857e+2
-0.359, 5.7527161e-9, -1.1866426e-8, 2.4733189e+2
-0.358, 5.7150413e-9, -1.1854961e-8, 2.4766522e+2
-0.357, 5.6789013e-9, -1.1842553e-8, 2.4799855e+2
-0.356, 5.6350848e-9, -1.1830853e-8, 2.4833188e+2
-0.355, 5.6059140e-9, -1.1824470e-8, 2.4866521e+2
-0.354, 5.5672937e-9, -1.1812179e-8, 2.4899854e+2
-0.353, 5.5252491e-9, -1.1800833e-8, 2.4933186e+2
-0.352, 5.4935971e-9, -1.1791497e-8, 2.4966519e+2
-0.351, 5.4502527e-9, -1.1781806e-8, 2.4999852e+2
-0.350, 5.4154126e-9, -1.1770934e-8, 2.5033185e+2
-0.349, 5.3828160e-9, -1.1760060e-8, 2.5066518e+2
-0.348, 5.3388813e-9, -1.1747887e-8, 2.5099850e+2
-0.347, 5.3045137e-9, -1.1737724e-8, 2.5133183e+2
-0.346, 5.2642397e-9, -1.1727088e-8, 2.5166516e+2
-0.345, 5.2240847e-9, -1.1716215e-8, 2.5199849e+2
-0.344, 5.1930233e-9, -1.1705578e-8, 2.5233182e+2
-0.343, 5.1490887e-9, -1.1694705e-8, 2.5266515e+2
-0.342, 5.1154299e-9, -1.1684659e-8, 2.5299847e+2
-0.341, 5.0772822e-9, -1.1671895e-8, 2.5333180e+2
-0.340, 5.0332294e-9, -1.1658186e-8, 2.5366513e+2
-0.339, 4.9970899e-9, -1.1642705e-8, 2.5399846e+2
-0.338, 4.9571707e-9, -1.1625685e-8, 2.5433179e+2
-0.337, 4.9139448e-9, -1.1612922e-8, 2.5466512e+2
-0.336, 4.8827657e-9, -1.1599804e-8, 2.5499844e+2
-0.335, 4.8367053e-9, -1.1584794e-8, 2.5533177e+2
-0.334, 4.7976130e-9, -1.1571794e-8, 2.5566510e+2
-0.333, 4.7615916e-9, -1.1558794e-8, 2.5599843e+2
-0.332, 4.7177751e-9, -1.1543430e-8, 2.5633176e+2
-0.331, 4.6834066e-9, -1.1527829e-8, 2.5666510e+2
-0.330, 4.6445510e-9, -1.1511875e-8, 2.5699844e+2
-0.329, 4.5980184e-9, -1.1500293e-8, 2.5733179e+2
-0.328, 4.5608157e-9, -1.1481738e-8, 2.5766513e+2
-0.327, 4.5186526e-9, -1.1468383e-8, 2.5799847e+2
-0.326, 4.4795603e-9, -1.1458811e-8, 2.5833182e+2
-0.325, 4.4382240e-9, -1.1437655e-8, 2.5866516e+2
-0.324, 4.3919273e-9, -1.1421110e-8, 2.5899850e+2
-0.323, 4.3596855e-9, -1.1407400e-8, 2.5933185e+2
-0.322, 4.3125619e-9, -1.1388491e-8, 2.5966519e+2
-0.321, 4.2719344e-9, -1.1371591e-8, 2.5999854e+2
-0.320, 4.2380384e-9, -1.1357173e-8, 2.6033188e+2
-0.319, 4.1894981e-9, -1.1339446e-8, 2.6066522e+2
-0.318, 4.1504054e-9, -1.1321008e-8, 2.6099857e+2
-0.317, 4.1100141e-9, -1.1304108e-8, 2.6133191e+2
-0.316, 4.0623007e-9, -1.1289926e-8, 2.6166525e+2
-0.315, 4.0275783e-9, -1.1271136e-8, 2.6199860e+2
-0.314, 3.9785650e-9, -1.1255417e-8, 2.6233194e+2
-0.313, 3.9303787e-9, -1.1235444e-8, 2.6266528e+2
-0.312, 3.8888062e-9, -1.1218307e-8, 2.6299863e+2
-0.311, 3.8416830e-9, -1.1201289e-8, 2.6333197e+2
-0.310, 3.7982213e-9, -1.1186279e-8, 2.6366531e+2
-0.309, 3.7532235e-9, -1.1169142e-8, 2.6399866e+2
-0.308, 3.6991321e-9, -1.1148106e-8, 2.6433200e+2
-0.307, 3.6479932e-9, -1.1126951e-8, 2.6466534e+2
-0.306, 3.6046490e-9, -1.1100123e-8, 2.6499869e+2
-0.305, 3.5561090e-9, -1.1075068e-8, 2.6533203e+2
-0.304, 3.5170165e-9, -1.1052141e-8, 2.6566537e+2
-0.303, 3.4599721e-9, -1.1024249e-8, 2.6599872e+2
-0.302, 3.4078889e-9, -1.0998013e-8, 2.6633206e+2
-0.301, 3.3556868e-9, -1.0974730e-8, 2.6666541e+2
-0.300, 3.2972258e-9, -1.0951331e-8, 2.6699875e+2
-0.299, 3.2459688e-9, -1.0926393e-8, 2.6733209e+2
-0.298, 3.1902239e-9, -1.0900866e-8, 2.6766544e+2
-0.297, 3.1269205e-9, -1.0874156e-8, 2.6799878e+2
-0.296, 3.0715299e-9, -1.0847446e-8, 2.6833212e+2
-0.295, 3.0012584e-9, -1.0819438e-8, 2.6866547e+2
-0.294, 2.9413798e-9, -1.0787764e-8, 2.6899881e+2
-0.293, 2.8787850e-9, -1.0755146e-8, 2.6933215e+2
-0.292, 2.8026081e-9, -1.0720754e-8, 2.6966550e+2
-0.291, 2.7422573e-9, -1.0687544e-8, 2.6999884e+2
-0.290, 2.6685607e-9, -1.0652444e-8, 2.7033218e+2
-0.289, 2.5922657e-9, -1.0615807e-8, 2.7066553e+2
-0.288, 2.5211675e-9, -1.0577043e-8, 2.7099887e+2
-0.287, 2.4367235e-9, -1.0535797e-8, 2.7133221e+2
-0.286, 2.3580664e-9, -1.0494550e-8, 2.7166556e+2
-0.285, 2.2800000e-9, -1.0453069e-8, 2.7199890e+2
-0.284, 2.1864621e-9, -1.0409223e-8, 2.7233224e+2
-0.283, 2.1016637e-9, -1.0364313e-8, 2.7266559e+2
-0.282, 2.0036379e-9, -1.0317748e-8, 2.7299893e+2
-0.281, 1.9039585e-9, -1.0263975e-8, 2.7333228e+2
-0.280, 1.8067593e-9, -1.0213038e-8, 2.7366562e+2
-0.279, 1.6982222e-9, -1.0156900e-8, 2.7399896e+2
-0.278, 1.5909841e-9, -1.0099226e-8, 2.7433231e+2
-0.277, 1.4811479e-9, -1.0043917e-8, 2.7466565e+2
-0.276, 1.3609185e-9, -9.9831707e-9, 2.7499899e+2
-0.275, 1.2482477e-9, -9.9252606e-9, 2.7533234e+2
-0.274, 1.1232942e-9, -9.8589590e-9, 2.7566568e+2
-0.273, 9.9538811e-10, -9.7872226e-9, 2.7599902e+2
-0.272, 8.7480434e-10, -9.7138297e-9, 2.7633237e+2
-0.271, 7.3166290e-10, -9.6394928e-9, 2.7666571e+2
-0.270, 6.0033178e-10, -9.5592458e-9, 2.7699905e+2
-0.269, 4.6108770e-10, -9.4781720e-9, 2.7733240e+2
-0.268, 3.0460057e-10, -9.3950892e-9, 2.7766574e+2
-0.267, 1.5838839e-10, -9.3095238e-9, 2.7799908e+2
-0.266, 1.3107073e-12, -9.2224237e-9, 2.7833243e+2
-0.265, -1.6119973e-10, -9.1323678e-9, 2.7866577e+2
-0.264, -3.2040329e-10, -9.0399475e-9, 2.7899911e+2
-0.263, -4.9188958e-10, -8.9397281e-9, 2.7933246e+2
-0.262, -6.6325784e-10, -8.8463628e-9, 2.7966580e+2
-0.261, -8.3580709e-10, -8.7433065e-9, 2.7999915e+2
-0.260, -1.0148521e-9, -8.6374143e-9, 2.8033249e+2
-0.259, -1.1852753e-9, -8.5327034e-9, 2.8066583e+2
-0.258, -1.3705799e-9, -8.4206659e-9, 2.8099918e+2
-0.257, -1.5571834e-9, -8.3067366e-9, 2.8133252e+2
-0.256, -1.7389449e-9, -8.1894989e-9, 2.8166586e+2
-0.255, -1.9372404e-9, -8.0735605e-9, 2.8199921e+2
-0.254, -2.1254976e-9, -7.9579774e-9, 2.8233255e+2
-0.253, -2.3134004e-9, -7.8419209e-9, 2.8266589e+2
-0.252, -2.5132314e-9, -7.7213738e-9, 2.8299924e+2
-0.251, -2.7016067e-9, -7.5991720e-9, 2.8333258e+2
-0.250, -2.8968319e-9, -7.4794517e-9, 2.8366592e+2
-0.249, -3.0921747e-9, -7.3579587e-9, 2.8399927e+2
-0.248, -3.2759444e-9, -7.2348119e-9, 2.8433261e+2
-0.247, -3.4679801e-9, -7.1117836e-9, 2.8466595e+2
-0.246, -3.6394663e-9, -6.9868626e-9, 2.8499930e+2
-0.245, -3.8131969e-9, -6.8586337e-9, 2.8533264e+2
-0.244, -3.9987373e-9, -6.7322956e-9, 2.8566599e+2
-0.243, -4.1656176e-9, -6.6139938e-9, 2.8599933e+2
-0.242, -4.3474975e-9, -6.4943926e-9, 2.8633267e+2
-0.241, -4.5229993e-9, -6.3745538e-9, 2.8666602e+2
-0.240, -4.6845647e-9, -6.2612155e-9, 2.8699936e+2
-0.239, -4.8526259e-9, -6.1468142e-9, 2.8733270e+2
-0.238, -5.0085229e-9, -6.0324123e-9, 2.8766605e+2
-0.237, -5.1648921e-9, -5.9201377e-9, 2.8799939e+2
-0.236, -5.3160640e-9, -5.8109362e-9, 2.8833273e+2
-0.235, -5.4485767e-9, -5.7026806e-9, 2.8866608e+2
-0.234, -5.5807341e-9, -5.5957239e-9, 2.8899942e+2
-0.233, -5.7165530e-9, -5.4988134e-9, 2.8933276e+2
-0.232, -5.8366645e-9, -5.4023759e-9, 2.8966611e+2
-0.231, -5.9636260e-9, -5.3068834e-9, 2.8999945e+2
-0.230, -6.0748797e-9, -5.2143458e-9, 2.9033279e+2
-0.229, -6.1834169e-9, -5.1199169e-9, 2.9066614e+2
-0.228, -6.2958510e-9, -5.0324611e-9, 2.9099948e+2
-0.227, -6.3872636e-9, -4.9460689e-9, 2.9133282e+2
-0.226, -6.4885959e-9, -4.8612132e-9, 2.9166617e+2
-0.225, -6.5794179e-9, -4.7880575e-9, 2.9199951e+2
-0.224, -6.6590191e-9, -4.7125379e-9, 2.9233286e+2
-0.223, -6.7432269e-9, -4.6356008e-9, 2.9266620e+2
-0.222, -6.8169244e-9, -4.5642183e-9, 2.9299954e+2
-0.221, -6.8873138e-9, -4.4975623e-9, 2.9333289e+2
-0.220, -6.9632540e-9, -4.4309068e-9, 2.9366623e+2
-0.219, -7.0210069e-9, -4.3661421e-9, 2.9399957e+2
-0.218, -7.0840738e-9, -4.3052779e-9, 2.9433292e+2
-0.217, -7.1435982e-9, -4.2466590e-9, 2.9466626e+2
-0.216, -7.1940280e-9, -4.1937125e-9, 2.9499960e+2
-0.215, -7.2495374e-9, -4.1431303e-9, 2.9533295e+2
-0.214, -7.2921731e-9, -4.0913655e-9, 2.9566629e+2
-0.213, -7.3390596e-9, -4.0433834e-9, 2.9599963e+2
-0.212, -7.3893713e-9, -3.9938644e-9, 2.9633298e+2
-0.211, -7.4240938e-9, -3.9511998e-9, 2.9666632e+2
-0.210, -7.4628312e-9, -3.9099537e-9, 2.9699966e+2
-0.209, -7.5018063e-9, -3.8663441e-9, 2.9733301e+2
-0.208, -7.5273165e-9, -3.8323069e-9, 2.9766635e+2
-0.207, -7.5674720e-9, -3.7875152e-9, 2.9799969e+2
-0.206, -7.5980608e-9, -3.7521786e-9, 2.9833304e+2
-0.205, -7.6304216e-9, -3.7190870e-9, 2.9866638e+2
-0.204, -7.6640800e-9, -3.6871777e-9, 2.9899973e+2
-0.203, -7.6745916e-9, -3.6497134e-9, 2.9933307e+2
-0.202, -7.7214786e-9, -3.6367129e-9, 2.9966641e+2
-0.201, -7.7383673e-9, -3.6068126e-9, 2.9999976e+2
-0.200, -7.7553741e-9, -3.5814036e-9, 3.0033310e+2
-0.199, -7.7806490e-9, -3.5528032e-9, 3.0066644e+2
-0.198, -7.7902156e-9, -3.5165206e-9, 3.0099979e+2
-0.197, -7.8108835e-9, -3.4900476e-9, 3.0133313e+2
-0.196, -7.8295432e-9, -3.4703109e-9, 3.0166647e+2
-0.195, -7.8495033e-9, -3.4647563e-9, 3.0199982e+2
-0.194, -7.8747764e-9, -3.4525831e-9, 3.0233316e+2
-0.193, -7.8874143e-9, -3.4255192e-9, 3.0266650e+2
-0.192, -7.8937923e-9, -3.4031828e-9, 3.0299985e+2
-0.191, -7.9065474e-9, -3.3755276e-9, 3.0333319e+2
-0.190, -7.9215461e-9, -3.3595731e-9, 3.0366653e+2
-0.189, -7.9308755e-9, -3.3433818e-9, 3.0399988e+2
-0.188, -7.9489464e-9, -3.3288454e-9, 3.0433322e+2
-0.187, -7.9542604e-9, -3.3126537e-9, 3.0466656e+2
-0.186, -7.9694962e-9, -3.2992993e-9, 3.0499991e+2
-0.185, -7.9844948e-9, -3.2834626e-9, 3.0533325e+2
-0.184, -7.9908729e-9, -3.2718803e-9, 3.0566660e+2
-0.183, -8.0025648e-9, -3.2559258e-9, 3.0599994e+2
-0.182, -8.0079978e-9, -3.2405618e-9, 3.0633328e+2
-0.181, -8.0139024e-9, -3.2259073e-9, 3.0666663e+2
-0.180, -8.0285476e-9, -3.2117251e-9, 3.0699997e+2
-0.179, -8.0279579e-9, -3.2032159e-9, 3.0733331e+2
-0.178, -8.0377598e-9, -3.1951792e-9, 3.0766666e+2
-0.177, -8.0520506e-9, -3.1844247e-9, 3.0800000e+2
-0.176, -8.0516962e-9, -3.1736702e-9, 3.0833334e+2
-0.175, -8.0619706e-9, -3.1664611e-9, 3.0866669e+2
-0.174, -8.0703568e-9, -3.1568881e-9, 3.0900003e+2
-0.173, -8.0785050e-9, -3.1448335e-9, 3.0933337e+2
-0.172, -8.0909066e-9, -3.1311240e-9, 3.0966672e+2
-0.171, -8.0918516e-9, -3.1204876e-9, 3.1000006e+2
-0.170, -8.0970484e-9, -3.1135148e-9, 3.1033340e+2
-0.169, -8.1077953e-9, -3.1040599e-9, 3.1066675e+2
-0.168, -8.1086222e-9, -3.0925964e-9, 3.1100009e+2
-0.167, -8.1159444e-9, -3.0834961e-9, 3.1133344e+2
-0.166, -8.1183069e-9, -3.0707323e-9, 3.1166678e+2
-0.165, -8.1210239e-9, -3.0622231e-9, 3.1200012e+2
-0.164, -8.1328331e-9, -3.0520593e-9, 3.1233347e+2
-0.163, -8.1297626e-9, -3.0418954e-9, 3.1266681e+2
-0.162, -8.1401561e-9, -3.0345682e-9, 3.1300015e+2
-0.161, -8.1498399e-9, -3.0284226e-9, 3.1333350e+2
-0.160, -8.1525569e-9, -3.0213316e-9, 3.1366684e+2
-0.159, -8.1630676e-9, -3.0151861e-9, 3.1400018e+2
-0.158, -8.1693274e-9, -3.0077403e-9, 3.1433353e+2
-0.157, -8.1708622e-9, -2.9987586e-9, 3.1466687e+2
-0.156, -8.1820826e-9, -2.9936766e-9, 3.1500021e+2
-0.155, -8.1829095e-9, -2.9885947e-9, 3.1533356e+2
-0.154, -8.1920035e-9, -2.9828036e-9, 3.1566690e+2
-0.153, -8.2008613e-9, -2.9760672e-9, 3.1600024e+2
-0.152, -8.2035774e-9, -2.9670852e-9, 3.1633359e+2
-0.151, -8.2121989e-9, -2.9599942e-9, 3.1666693e+2
-0.150, -8.2144425e-9, -2.9504215e-9, 3.1700027e+2
-0.149, -8.2211749e-9, -2.9393121e-9, 3.1733362e+2
-0.148, -8.2303870e-9, -2.9357667e-9, 3.1766696e+2
-0.147, -8.2313312e-9, -2.9317484e-9, 3.1800031e+2
-0.146, -8.2394811e-9, -2.9260754e-9, 3.1833365e+2
-0.145, -8.2465670e-9, -2.9240665e-9, 3.1866699e+2
-0.144, -8.2452685e-9, -2.9175664e-9, 3.1900034e+2
-0.143, -8.2547160e-9, -2.9090572e-9, 3.1933368e+2
-0.142, -8.2589677e-9, -2.9000753e-9, 3.1966702e+2
-0.141, -8.2589677e-9, -2.8932208e-9, 3.2000037e+2
-0.140, -8.2667624e-9, -2.8838840e-9, 3.2033371e+2
-0.139, -8.2662908e-9, -2.8765568e-9, 3.2066705e+2
-0.138, -8.2697156e-9, -2.8734839e-9, 3.2100040e+2
-0.137, -8.2766833e-9, -2.8700566e-9, 3.2133374e+2
-0.136, -8.2786915e-9, -2.8632019e-9, 3.2166708e+2
-0.135, -8.2922726e-9, -2.8582381e-9, 3.2200043e+2
-0.134, -8.3005407e-9, -2.8522109e-9, 3.2233377e+2
-0.133, -8.3033749e-9, -2.8440563e-9, 3.2266711e+2
-0.132, -8.3145943e-9, -2.8408653e-9, 3.2300046e+2
-0.131, -8.3149487e-9, -2.8375560e-9, 3.2333380e+2
-0.130, -8.3278229e-9, -2.8334197e-9, 3.2366714e+2
-0.129, -8.3375067e-9, -2.8281015e-9, 3.2400049e+2
-0.128, -8.3356166e-9, -2.8234923e-9, 3.2433383e+2
-0.127, -8.3501437e-9, -2.8181739e-9, 3.2466718e+2
-0.126, -8.3556948e-9, -2.8136831e-9, 3.2500052e+2
-0.125, -8.3574667e-9, -2.8094285e-9, 3.2533386e+2
-0.124, -8.3721110e-9, -2.8060012e-9, 3.2566721e+2
-0.123, -8.3727008e-9, -2.8019829e-9, 3.2600055e+2
-0.122, -8.3829770e-9, -2.7991465e-9, 3.2633389e+2
-0.121, -8.3960865e-9, -2.7941829e-9, 3.2666724e+2
-0.120, -8.3993932e-9, -2.7879192e-9, 3.2700058e+2
-0.119, -8.4074241e-9, -2.7813007e-9, 3.2733392e+2
-0.118, -8.4140384e-9, -2.7774008e-9, 3.2766727e+2
-0.117, -8.4189979e-9, -2.7731459e-9, 3.2800061e+2
-0.116, -8.4328162e-9, -2.7671188e-9, 3.2833395e+2
-0.115, -8.4322256e-9, -2.7631006e-9, 3.2866730e+2
-0.114, -8.4419103e-9, -2.7603821e-9, 3.2900064e+2
-0.113, -8.4564373e-9, -2.7541185e-9, 3.2933398e+2
-0.112, -8.4572633e-9, -2.7492730e-9, 3.2966733e+2
-0.111, -8.4724991e-9, -2.7439548e-9, 3.3000067e+2
-0.110, -8.4784038e-9, -2.7382818e-9, 3.3033401e+2
-0.109, -8.4896241e-9, -2.7347367e-9, 3.3066736e+2
-0.108, -8.5066301e-9, -2.7313092e-9, 3.3100070e+2
-0.107, -8.5108836e-9, -2.7277638e-9, 3.3133405e+2
-0.106, -8.5234015e-9, -2.7227998e-9, 3.3166739e+2
-0.105, -8.5366292e-9, -2.7178360e-9, 3.3200073e+2
-0.104, -8.5439522e-9, -2.7162996e-9, 3.3233408e+2
-0.103, -8.5597778e-9, -2.7064906e-9, 3.3266742e+2
-0.102, -8.5806819e-9, -2.7070814e-9, 3.3300076e+2
-0.101, -8.5835170e-9, -2.7010543e-9, 3.3333411e+2
-0.100, -8.6037124e-9, -2.6985723e-9, 3.3366745e+2
-0.099, -8.6089091e-9, -2.6980997e-9, 3.3400079e+2
-0.098, -8.6237897e-9, -2.6906539e-9, 3.3433414e+2
-0.097, -8.6402059e-9, -2.6872267e-9, 3.3466748e+2
-0.096, -8.6490637e-9, -2.6859266e-9, 3.3500082e+2
-0.095, -8.6644176e-9, -2.6785993e-9, 3.3533417e+2
-0.094, -8.6777625e-9, -2.6709170e-9, 3.3566751e+2
-0.093, -8.6901633e-9, -2.6646534e-9, 3.3600085e+2
-0.092, -8.7102414e-9, -2.6580353e-9, 3.3633420e+2
-0.091, -8.7173273e-9, -2.6524807e-9, 3.3666754e+2
-0.090, -8.7366958e-9, -2.6482263e-9, 3.3700089e+2
-0.089, -8.7489793e-9, -2.6327438e-9, 3.3733423e+2
-0.088, -8.7661043e-9, -2.6286076e-9, 3.3766757e+2
-0.087, -8.7845287e-9, -2.6251803e-9, 3.3800092e+2
-0.086, -8.8190149e-9, -2.6416076e-9, 3.3833426e+2
-0.085, -8.8269276e-9, -2.6325078e-9, 3.3866760e+2
-0.084, -8.8556265e-9, -2.6291986e-9, 3.3900095e+2
-0.083, -8.8636583e-9, -2.6164348e-9, 3.3933429e+2
-0.082, -8.8994438e-9, -2.6180891e-9, 3.3966763e+2
-0.081, -8.9178673e-9, -2.6163167e-9, 3.4000098e+2
-0.080, -8.9406615e-9, -2.6200984e-9, 3.4033432e+2
-0.079, -8.9834149e-9, -2.6334530e-9, 3.4066766e+2
-0.078, -8.9932177e-9, -2.6178530e-9, 3.4100101e+2
-0.077, -9.0093977e-9, -2.6114710e-9, 3.4133435e+2
-0.076, -9.0419938e-9, -2.6092255e-9, 3.4166769e+2
-0.075, -9.0630170e-9, -2.6061528e-9, 3.4200104e+2
-0.074, -9.0930161e-9, -2.6035527e-9, 3.4233438e+2
-0.073, -9.1226591e-9, -2.5992981e-9, 3.4266772e+2
-0.072, -9.1459258e-9, -2.5955162e-9, 3.4300107e+2
-0.071, -9.1797023e-9, -2.5942162e-9, 3.4333441e+2
-0.070, -9.2071026e-9, -2.5918525e-9, 3.4366776e+2
-0.069, -9.2330863e-9, -2.5858251e-9, 3.4400110e+2
-0.068, -9.2680441e-9, -2.5828704e-9, 3.4433444e+2
-0.067, -9.2894217e-9, -2.5766067e-9, 3.4466779e+2
-0.066, -9.3230810e-9, -2.5758977e-9, 3.4500113e+2
-0.065, -9.3587484e-9, -2.5725884e-9, 3.4533447e+2
-0.064, -9.3822505e-9, -2.5677429e-9, 3.4566782e+2
-0.063, -9.4177990e-9, -2.5685705e-9, 3.4600116e+2
-0.062, -9.4515773e-9, -2.5634883e-9, 3.4633450e+2
-0.061, -9.4819290e-9, -2.5585247e-9, 3.4666785e+2
-0.060, -9.5192512e-9, -2.5541520e-9, 3.4700119e+2
-0.059, -9.5477137e-9, -2.5514340e-9, 3.4733453e+2
-0.058, -9.5846806e-9, -2.5477702e-9, 3.4766788e+2
-0.057, -9.6222372e-9, -2.5428062e-9, 3.4800122e+2
-0.056, -9.6560147e-9, -2.5415061e-9, 3.4833456e+2
-0.055, -9.6956967e-9, -2.5390245e-9, 3.4866791e+2
-0.054, -9.7291206e-9, -2.5293334e-9, 3.4900125e+2
-0.053, -9.7676223e-9, -2.5280333e-9, 3.4933459e+2
-0.052, -9.8069508e-9, -2.5264970e-9, 3.4966794e+2
-0.051, -9.8417905e-9, -2.5221243e-9, 3.5000128e+2
-0.050, -9.8834816e-9, -2.5166880e-9, 3.5033463e+2
-0.049, -9.9235189e-9, -2.5127878e-9, 3.5066797e+2
-0.048, -9.9519823e-9, -2.5113696e-9, 3.5100131e+2
-0.047, -9.9934363e-9, -2.5068785e-9, 3.5133466e+2
-0.046, -1.0033237e-8, -2.5014422e-9, 3.5166800e+2
-0.045, -1.0074573e-8, -2.5003783e-9, 3.5200134e+2
-0.044, -1.0122523e-8, -2.4975422e-9, 3.5233469e+2
-0.043, -1.0160907e-8, -2.4917512e-9, 3.5266803e+2
-0.042, -1.0203307e-8, -2.4889146e-9, 3.5300137e+2
-0.041, -1.0248658e-8, -2.4871418e-9, 3.5333472e+2
-0.040, -1.0288931e-8, -2.4838327e-9, 3.5366806e+2
-0.039, -1.0337353e-8, -2.4781599e-9, 3.5400140e+2
-0.038, -1.0381879e-8, -2.4740234e-9, 3.5433475e+2
-0.037, -1.0424986e-8, -2.4733142e-9, 3.5466809e+2
-0.036, -1.0473527e-8, -2.4727236e-9, 3.5500143e+2
-0.035, -1.0508722e-8, -2.4668145e-9, 3.5533478e+2
-0.034, -1.0556081e-8, -2.4636233e-9, 3.5566812e+2
-0.033, -1.0604386e-8, -2.4575961e-9, 3.5600146e+2
-0.032, -1.0648675e-8, -2.4538140e-9, 3.5633481e+2
-0.031, -1.0702412e-8, -2.4566504e-9, 3.5666815e+2
-0.030, -1.0747173e-8, -2.4552322e-9, 3.5700150e+2
-0.029, -1.0791462e-8, -2.4508593e-9, 3.5733484e+2
-0.028, -1.0844018e-8, -2.4431774e-9, 3.5766818e+2
-0.027, -1.0884291e-8, -2.4411684e-9, 3.5800153e+2
-0.026, -1.0933658e-8, -2.4422322e-9, 3.5833487e+2
-0.025, -1.0986333e-8, -2.4398685e-9, 3.5866821e+2
-0.024, -1.1030857e-8, -2.4388047e-9, 3.5900156e+2
-0.023, -1.1079752e-8, -2.4360867e-9, 3.5933490e+2
-0.022, -1.1124868e-8, -2.4331321e-9, 3.5966824e+2
-0.021, -1.1171519e-8, -2.4308866e-9, 3.6000159e+2
-0.020, -1.1222540e-8, -2.4281683e-9, 3.6033493e+2
-0.019, -1.1265412e-8, -2.4241500e-9, 3.6066827e+2
-0.018, -1.1310054e-8, -2.4181226e-9, 3.6100162e+2
-0.017, -1.1362375e-8, -2.4133953e-9, 3.6133496e+2
-0.016, -1.1401113e-8, -2.4137499e-9, 3.6166830e+2
-0.015, -1.1450951e-8, -2.4118589e-9, 3.6200165e+2
-0.014, -1.1496658e-8, -2.4063043e-9, 3.6233499e+2
-0.013, -1.1538584e-8, -2.4040590e-9, 3.6266833e+2
-0.012, -1.1584055e-8, -2.4021678e-9, 3.6300168e+2
-0.011, -1.1622438e-8, -2.3999225e-9, 3.6333502e+2
-0.010, -1.1662475e-8, -2.3961404e-9, 3.6366837e+2
-0.009, -1.1708535e-8, -2.3928315e-9, 3.6400171e+2
-0.008, -1.1746446e-8, -2.3875131e-9, 3.6433505e+2
-0.007, -1.1795106e-8, -2.3849129e-9, 3.6466840e+2
-0.006, -1.1835497e-8, -2.3811313e-9, 3.6500174e+2
-0.005, -1.1871282e-8, -2.3792404e-9, 3.6533508e+2
-0.004, -1.1910256e-8, -2.3761675e-9, 3.6566843e+2
-0.003, -1.1940373e-8, -2.3743949e-9, 3.6600177e+2
-0.002, -1.1977694e-8, -2.3707312e-9, 3.6633511e+2
-0.001, -1.2016313e-8, -2.3670674e-9, 3.6666846e+2
-0.000, -1.2075011e-8, -2.3695492e-9, 3.6700180e+2
0.001, -1.2097686e-8, -2.3656492e-9, 3.6733514e+2
0.002, -1.2127804e-8, -2.3623401e-9, 3.6766849e+2
0.003, -1.2149179e-8, -2.3598581e-9, 3.6800183e+2
0.004, -1.2182485e-8, -2.3570217e-9, 3.6833517e+2
0.005, -1.2204571e-8, -2.3538307e-9, 3.6866852e+2
0.006, -1.2236931e-8, -2.3514672e-9, 3.6900186e+2
0.007, -1.2266929e-8, -2.3479216e-9, 3.6933521e+2
0.008, -1.2288306e-8, -2.3463853e-9, 3.6966855e+2
0.009, -1.2316887e-8, -2.3428397e-9, 3.7000189e+2
0.010, -1.2339562e-8, -2.3383486e-9, 3.7033524e+2
0.011, -1.2361885e-8, -2.3345668e-9, 3.7066858e+2
0.012, -1.2390466e-8, -2.3309032e-9, 3.7100192e+2
0.013, -1.2404992e-8, -2.3297213e-9, 3.7133527e+2
0.014, -1.2435109e-8, -2.3303122e-9, 3.7166861e+2
0.015, -1.2463335e-8, -2.3265305e-9, 3.7200195e+2
0.016, -1.2476563e-8, -2.3238123e-9, 3.7233530e+2
0.017, -1.2501838e-8, -2.3216848e-9, 3.7266864e+2
0.018, -1.2523687e-8, -2.3187303e-9, 3.7300198e+2
0.019, -1.2544945e-8, -2.3136484e-9, 3.7333533e+2
0.020, -1.2574707e-8, -2.3112847e-9, 3.7366867e+2
0.021, -1.2589470e-8, -2.3056119e-9, 3.7400201e+2
0.022, -1.2610375e-8, -2.3026572e-9, 3.7433536e+2
0.023, -1.2638011e-8, -2.3038391e-9, 3.7466870e+2
0.024, -1.2655018e-8, -2.3011211e-9, 3.7500204e+2
0.025, -1.2678519e-8, -2.2929660e-9, 3.7533539e+2
0.026, -1.2700015e-8, -2.2772479e-9, 3.7566873e+2
0.027, -1.2734501e-8, -2.2805571e-9, 3.7600208e+2
0.028, -1.2763201e-8, -2.2793751e-9, 3.7633542e+2
0.029, -1.2791309e-8, -2.2848117e-9, 3.7666876e+2
0.030, -1.2819299e-8, -2.2793751e-9, 3.7700211e+2
0.031, -1.2856502e-8, -2.2771296e-9, 3.7733545e+2
0.032, -1.2864415e-8, -2.2570383e-9, 3.7766879e+2
0.033, -1.2944371e-8, -2.2963935e-9, 3.7800214e+2
0.034, -1.2956891e-8, -2.2807933e-9, 3.7833548e+2
0.035, -1.2991613e-8, -2.2811479e-9, 3.7866882e+2
0.036, -1.3022555e-8, -2.2693296e-9, 3.7900217e+2
0.037, -1.3051963e-8, -2.2659024e-9, 3.7933551e+2
0.038, -1.3081725e-8, -2.2553839e-9, 3.7966885e+2
0.039, -1.3116920e-8, -2.2452200e-9, 3.8000220e+2
0.040, -1.3144793e-8, -2.2313924e-9, 3.8033554e+2
0.041, -1.3190379e-8, -2.2277291e-9, 3.8066888e+2
0.042, -1.3258409e-8, -2.2595203e-9, 3.8100223e+2
0.043, -1.3311317e-8, -2.2701567e-9, 3.8133557e+2
0.044, -1.3357261e-8, -2.2621203e-9, 3.8166891e+2
0.045, -1.3389267e-8, -2.2433293e-9, 3.8200226e+2
0.046, -1.3434737e-8, -2.2341109e-9, 3.8233560e+2
0.047, -1.3485639e-8, -2.2303290e-9, 3.8266895e+2
0.048, -1.3526857e-8, -2.2270199e-9, 3.8300229e+2
0.049, -1.3581658e-8, -2.2285562e-9, 3.8333563e+2
0.050, -1.3633977e-8, -2.2241835e-9, 3.8366898e+2
0.051, -1.3684997e-8, -2.2253652e-9, 3.8400232e+2
0.052, -1.3748419e-8, -2.2231197e-9, 3.8433566e+2
0.053, -1.3800150e-8, -2.2214652e-9, 3.8466901e+2
0.054, -1.3858138e-8, -2.2165016e-9, 3.8500235e+2
0.055, -1.3919079e-8, -2.2114197e-9, 3.8533569e+2
0.056, -1.3976360e-8, -2.2084650e-9, 3.8566904e+2
0.057, -1.4048638e-8, -2.2056286e-9, 3.8600238e+2
0.058, -1.4111235e-8, -2.2048015e-9, 3.8633572e+2
0.059, -1.4178435e-8, -2.2024378e-9, 3.8666907e+2
0.060, -1.4254375e-8, -2.1986557e-9, 3.8700241e+2
0.061, -1.4312365e-8, -2.1957012e-9, 3.8733575e+2
0.062, -1.4391494e-8, -2.1896738e-9, 3.8766910e+2
0.063, -1.4465426e-8, -2.1877828e-9, 3.8800244e+2
0.064, -1.4530502e-8, -2.1843554e-9, 3.8833578e+2
0.065, -1.4615891e-8, -2.1838829e-9, 3.8866913e+2
0.066, -1.4695610e-8, -2.1830557e-9, 3.8900247e+2
0.067, -1.4768125e-8, -2.1806918e-9, 3.8933582e+2
0.068, -1.4857059e-8, -2.1763191e-9, 3.8966916e+2
0.069, -1.4934534e-8, -2.1743101e-9, 3.9000250e+2
0.070, -1.5022993e-8, -2.1704099e-9, 3.9033585e+2
0.071, -1.5112043e-8, -2.1665101e-9, 3.9066919e+2
0.072, -1.5189991e-8, -2.1604825e-9, 3.9100253e+2
0.073, -1.5283176e-8, -2.1559914e-9, 3.9133588e+2
0.074, -1.5376713e-8, -2.1522097e-9, 3.9166922e+2
0.075, -1.5468835e-8, -2.1468913e-9, 3.9200256e+2
0.076, -1.5564972e-8, -2.1427549e-9, 3.9233591e+2
0.077, -1.5654610e-8, -2.1376731e-9, 3.9266925e+2
0.078, -1.5761493e-8, -2.1303457e-9, 3.9300259e+2
0.079, -1.5872276e-8, -2.1289275e-9, 3.9333594e+2
0.080, -1.5966876e-8, -2.1284550e-9, 3.9366928e+2
0.081, -1.6085572e-8, -2.1233728e-9, 3.9400262e+2
0.082, -1.6198243e-8, -2.1185274e-9, 3.9433597e+2
0.083, -1.6311031e-8, -2.1165181e-9, 3.9466931e+2
0.084, -1.6429134e-8, -2.1145090e-9, 3.9500266e+2
0.085, -1.6534955e-8, -2.1081270e-9, 3.9533600e+2
0.086, -1.6653294e-8, -2.1049364e-9, 3.9566934e+2
0.087, -1.6779191e-8, -2.1022180e-9, 3.9600269e+2
0.088, -1.6893164e-8, -2.0955997e-9, 3.9633603e+2
0.089, -1.7020243e-8, -2.0938271e-9, 3.9666937e+2
0.090, -1.7146613e-8, -2.0889814e-9, 3.9700272e+2
0.091, -1.7271685e-8, -2.0851996e-9, 3.9733606e+2
0.092, -1.7407149e-8, -2.0811812e-9, 3.9766940e+2
0.093, -1.7527615e-8, -2.0783448e-9, 3.9800275e+2
0.094, -1.7664970e-8, -2.0745632e-9, 3.9833609e+2
0.095, -1.7802442e-8, -2.0711357e-9, 3.9866943e+2
0.096, -1.7936134e-8, -2.0673538e-9, 3.9900278e+2
0.097, -1.8079511e-8, -2.0573083e-9, 3.9933612e+2
0.098, -1.8217102e-8, -2.0506901e-9, 3.9966946e+2
0.099, -1.8354458e-8, -2.0491535e-9, 4.0000281e+2
