Dec. 15, 2005   00:00:20
Cyclic Voltammetry
File: d:\ida_biofilms\12_04_18_psoralenbiofilm\control\control_25um_pyo_transfer_gc.txt
Data Source:  Experiment
Instrument Model:  CHI760B
Header: 
Note: 

Init E (V) = 0.1
High E (V) = 0.1
Low E (V) = -0.5
Init P/N = N
Scan Rate (V/s) = 0.003
Segment = 2
Sample Interval (V) = 0.001
Quiet Time (sec) = 2
Sensitivity (A/V) = 1e-7
2nd E (V) = 0.1
Sens 2 (A/V) = 1e-7

Potential/V, i1/A, i2/A, Time/s

0.100, -8.4101622e-8, -7.9542708e-8, 3.3333334e-1
0.099, -7.7208043e-8, -7.4471451e-8, 6.6666669e-1
0.098, -7.1450728e-8, -7.0103972e-8, 1.0000000e+0
0.097, -6.6421883e-8, -6.6284642e-8, 1.3333334e+0
0.096, -6.1958637e-8, -6.2888745e-8, 1.6666667e+0
0.095, -5.7953628e-8, -5.9806759e-8, 2.0000000e+0
0.094, -5.4376269e-8, -5.6994345e-8, 2.3333333e+0
0.093, -5.1176137e-8, -5.4414517e-8, 2.6666665e+0
0.092, -4.8295828e-8, -5.2044111e-8, 2.9999998e+0
0.091, -4.5687155e-8, -4.9877332e-8, 3.3333330e+0
0.090, -4.3321659e-8, -4.7873293e-8, 3.6666663e+0
0.089, -4.1163435e-8, -4.6012136e-8, 3.9999995e+0
0.088, -3.9192646e-8, -4.4301668e-8, 4.3333330e+0
0.087, -3.7372196e-8, -4.2724508e-8, 4.6666665e+0
0.086, -3.5711544e-8, -4.1260922e-8, 5.0000000e+0
0.085, -3.4178438e-8, -3.9913278e-8, 5.3333335e+0
0.084, -3.2734860e-8, -3.8655330e-8, 5.6666670e+0
0.083, -3.1392613e-8, -3.7480230e-8, 6.0000005e+0
0.082, -3.0129733e-8, -3.6397786e-8, 6.3333340e+0
0.081, -2.8952950e-8, -3.5380818e-8, 6.6666675e+0
0.080, -2.7846200e-8, -3.4437715e-8, 7.0000010e+0
0.079, -2.6797796e-8, -3.3544364e-8, 7.3333344e+0
0.078, -2.5794977e-8, -3.2701006e-8, 7.6666679e+0
0.077, -2.4896803e-8, -3.1927140e-8, 8.0000010e+0
0.076, -2.3986344e-8, -3.1170174e-8, 8.3333340e+0
0.075, -2.3137531e-8, -3.0450202e-8, 8.6666670e+0
0.074, -2.2326752e-8, -2.9770527e-8, 9.0000000e+0
0.073, -2.1555534e-8, -2.9127722e-8, 9.3333330e+0
0.072, -2.0795301e-8, -2.8511989e-8, 9.6666660e+0
0.071, -2.0121405e-8, -2.7947310e-8, 9.9999990e+0
0.070, -1.9496399e-8, -2.7409694e-8, 1.0333332e+1
0.069, -1.8856042e-8, -2.6872666e-8, 1.0666665e+1
0.068, -1.8245684e-8, -2.6364711e-8, 1.0999998e+1
0.067, -1.7650088e-8, -2.5874723e-8, 1.1333331e+1
0.066, -1.7119449e-8, -2.5421489e-8, 1.1666664e+1
0.065, -1.6548301e-8, -2.4969202e-8, 1.1999997e+1
0.064, -1.6024629e-8, -2.4536176e-8, 1.2333330e+1
0.063, -1.5540287e-8, -2.4132934e-8, 1.2666663e+1
0.062, -1.5053818e-8, -2.3737964e-8, 1.2999996e+1
0.061, -1.4571248e-8, -2.3345358e-8, 1.3333329e+1
0.060, -1.4143239e-8, -2.2985962e-8, 1.3666662e+1
0.059, -1.3717712e-8, -2.2627630e-8, 1.3999995e+1
0.058, -1.3298327e-8, -2.2283006e-8, 1.4333328e+1
0.057, -1.2910122e-8, -2.1959773e-8, 1.4666661e+1
0.056, -1.2511522e-8, -2.1635834e-8, 1.4999994e+1
0.055, -1.2117410e-8, -2.1321583e-8, 1.5333327e+1
0.054, -1.1757077e-8, -2.1020334e-8, 1.5666660e+1
0.053, -1.1398042e-8, -2.0736337e-8, 1.5999993e+1
0.052, -1.1049990e-8, -2.0457543e-8, 1.6333326e+1
0.051, -1.0722252e-8, -2.0188439e-8, 1.6666660e+1
0.050, -1.0398650e-8, -1.9926780e-8, 1.6999994e+1
0.049, -1.0086857e-8, -1.9669496e-8, 1.7333328e+1
0.048, -9.7926600e-9, -1.9425091e-8, 1.7666662e+1
0.047, -9.4926778e-9, -1.9184707e-8, 1.7999996e+1
0.046, -9.2163157e-9, -1.8950468e-8, 1.8333330e+1
0.045, -8.9365280e-9, -1.8732774e-8, 1.8666664e+1
0.044, -8.6625276e-9, -1.8510351e-8, 1.8999998e+1
0.043, -8.4035268e-9, -1.8294310e-8, 1.9333332e+1
0.042, -8.1453528e-9, -1.8079572e-8, 1.9666666e+1
0.041, -7.8934379e-9, -1.7872631e-8, 2.0000000e+1
0.040, -7.6507343e-9, -1.7669237e-8, 2.0333334e+1
0.039, -7.4051978e-9, -1.7474353e-8, 2.0666668e+1
0.038, -7.1845800e-9, -1.7279824e-8, 2.1000002e+1
0.037, -6.9559314e-9, -1.7093447e-8, 2.1333336e+1
0.036, -6.7320074e-9, -1.6910855e-8, 2.1666670e+1
0.035, -6.5254442e-9, -1.6731688e-8, 2.2000004e+1
0.034, -6.3119128e-9, -1.6554766e-8, 2.2333338e+1
0.033, -6.1055867e-9, -1.6383046e-8, 2.2666672e+1
0.032, -5.9069363e-9, -1.6214988e-8, 2.3000006e+1
0.031, -5.7072231e-9, -1.6053550e-8, 2.3333340e+1
0.030, -5.5176672e-9, -1.5893766e-8, 2.3666674e+1
0.029, -5.3406297e-9, -1.5738829e-8, 2.4000008e+1
0.028, -5.1531992e-9, -1.5584716e-8, 2.4333342e+1
0.027, -4.9810049e-9, -1.5434388e-8, 2.4666676e+1
0.026, -4.8049125e-9, -1.5287602e-8, 2.5000010e+1
0.025, -4.6350794e-9, -1.5141293e-8, 2.5333344e+1
0.024, -4.4683173e-9, -1.5002781e-8, 2.5666677e+1
0.023, -4.2991930e-9, -1.4856468e-8, 2.6000011e+1
0.022, -4.1483750e-9, -1.4718784e-8, 2.6333345e+1
0.021, -3.9853920e-9, -1.4586184e-8, 2.6666679e+1
0.020, -3.8242987e-9, -1.4453818e-8, 2.7000013e+1
0.019, -3.6829289e-9, -1.4324999e-8, 2.7333347e+1
0.018, -3.5471097e-9, -1.4198896e-8, 2.7666681e+1
0.017, -3.4021967e-9, -1.4076813e-8, 2.8000015e+1
0.016, -3.2642518e-9, -1.3957684e-8, 2.8333349e+1
0.015, -3.1196929e-9, -1.3839382e-8, 2.8666683e+1
0.014, -2.9862359e-9, -1.3723444e-8, 2.9000017e+1
0.013, -2.8492360e-9, -1.3610105e-8, 2.9333351e+1
0.012, -2.7115272e-9, -1.3499014e-8, 2.9666685e+1
0.011, -2.5845659e-9, -1.3390521e-8, 3.0000019e+1
0.010, -2.4531168e-9, -1.3281674e-8, 3.0333353e+1
0.009, -2.3232030e-9, -1.3172589e-8, 3.0666687e+1
0.008, -2.1984854e-9, -1.3069889e-8, 3.1000021e+1
0.007, -2.0715243e-9, -1.2966242e-8, 3.1333355e+1
0.006, -1.9562552e-9, -1.2868503e-8, 3.1666689e+1
0.005, -1.8368526e-9, -1.2768403e-8, 3.2000023e+1
0.004, -1.7166231e-9, -1.2670902e-8, 3.2333355e+1
0.003, -1.6063144e-9, -1.2572691e-8, 3.2666687e+1
0.002, -1.4901006e-9, -1.2478616e-8, 3.3000019e+1
0.001, -1.3756583e-9, -1.2387261e-8, 3.3333351e+1
-0.000, -1.2456264e-9, -1.2288341e-8, 3.3666683e+1
-0.001, -1.1402780e-9, -1.2197458e-8, 3.4000015e+1
-0.002, -1.0385909e-9, -1.2108820e-8, 3.4333347e+1
-0.003, -9.3418728e-10, -1.2023846e-8, 3.4666679e+1
-0.004, -8.2742180e-10, -1.1937572e-8, 3.5000011e+1
-0.005, -7.2868717e-10, -1.1853071e-8, 3.5333344e+1
-0.006, -6.2239397e-10, -1.1772469e-8, 3.5666676e+1
-0.007, -5.2165172e-10, -1.1685842e-8, 3.6000008e+1
-0.008, -4.2362583e-10, -1.1604176e-8, 3.6333340e+1
-0.009, -3.2193864e-10, -1.1526647e-8, 3.6666672e+1
-0.010, -2.3147136e-10, -1.1450065e-8, 3.7000004e+1
-0.011, -1.3202818e-10, -1.1375136e-8, 3.7333336e+1
-0.012, -3.3175525e-11, -1.1300445e-8, 3.7666668e+1
-0.013, 5.2095224e-11, -1.1228589e-8, 3.8000000e+1
-0.014, 1.4775908e-10, -1.1158742e-8, 3.8333332e+1
-0.015, 2.3987984e-10, -1.1083815e-8, 3.8666664e+1
-0.016, 3.2739453e-10, -1.1013022e-8, 3.8999996e+1
-0.017, 4.2435755e-10, -1.0942466e-8, 3.9333328e+1
-0.018, 5.0939208e-10, -1.0874747e-8, 3.9666660e+1
-0.019, 5.9714300e-10, -1.0808683e-8, 3.9999992e+1
-0.020, 6.8642925e-10, -1.0744391e-8, 4.0333324e+1
-0.021, 7.6355089e-10, -1.0682109e-8, 4.0666656e+1
-0.022, 8.5153806e-10, -1.0616753e-8, 4.0999989e+1
-0.023, 9.3869834e-10, -1.0553169e-8, 4.1333321e+1
-0.024, 1.0184182e-9, -1.0490296e-8, 4.1666653e+1
-0.025, 1.1053425e-9, -1.0427659e-8, 4.1999985e+1
-0.026, 1.1785666e-9, -1.0364904e-8, 4.2333317e+1
-0.027, 1.2580503e-9, -1.0302503e-8, 4.2666649e+1
-0.028, 1.3370616e-9, -1.0240693e-8, 4.2999981e+1
-0.029, 1.4075694e-9, -1.0179710e-8, 4.3333313e+1
-0.030, 1.4895333e-9, -1.0117663e-8, 4.3666645e+1
-0.031, 1.5641747e-9, -1.0059753e-8, 4.3999977e+1
-0.032, 1.6355092e-9, -1.0003262e-8, 4.4333309e+1
-0.033, 1.7133395e-9, -9.9481881e-9, 4.4666641e+1
-0.034, 1.7823119e-9, -9.8921689e-9, 4.4999973e+1
-0.035, 1.8534102e-9, -9.8357953e-9, 4.5333305e+1
-0.036, 1.9242723e-9, -9.7770583e-9, 4.5666637e+1
-0.037, 1.9901740e-9, -9.7231663e-9, 4.5999969e+1
-0.038, 2.0608000e-9, -9.6725845e-9, 4.6333302e+1
-0.039, 2.1298905e-9, -9.6190469e-9, 4.6666634e+1
-0.040, 2.1946114e-9, -9.5631467e-9, 4.6999966e+1
-0.041, 2.2620483e-9, -9.5116182e-9, 4.7333298e+1
-0.042, 2.3187381e-9, -9.4604440e-9, 4.7666630e+1
-0.043, 2.3815692e-9, -9.4087982e-9, 4.7999962e+1
-0.044, 2.4466442e-9, -9.3576258e-9, 4.8333294e+1
-0.045, 2.5059321e-9, -9.3063335e-9, 4.8666626e+1
-0.046, 2.5686453e-9, -9.2566967e-9, 4.8999958e+1
-0.047, 2.6271063e-9, -9.2089500e-9, 4.9333290e+1
-0.048, 2.6814340e-9, -9.1603765e-9, 4.9666622e+1
-0.049, 2.7461546e-9, -9.1132213e-9, 4.9999954e+1
-0.050, 2.8007185e-9, -9.0680752e-9, 5.0333286e+1
-0.051, 2.8575262e-9, -9.0213925e-9, 5.0666618e+1
-0.052, 2.9142160e-9, -8.9775467e-9, 5.0999950e+1
-0.053, 2.9634653e-9, -8.9328740e-9, 5.1333282e+1
-0.054, 3.0176748e-9, -8.8906820e-9, 5.1666615e+1
-0.055, 3.0718843e-9, -8.8497902e-9, 5.1999947e+1
-0.056, 3.1226688e-9, -8.8070085e-9, 5.2333279e+1
-0.057, 3.1771143e-9, -8.7612708e-9, 5.2666611e+1
-0.058, 3.2217573e-9, -8.7178966e-9, 5.2999943e+1
-0.059, 3.2731324e-9, -8.6761789e-9, 5.3333275e+1
-0.060, 3.3241534e-9, -8.6364693e-9, 5.3666607e+1
-0.061, 3.3656076e-9, -8.5972314e-9, 5.3999939e+1
-0.062, 3.4154475e-9, -8.5574037e-9, 5.4333271e+1
-0.063, 3.4669407e-9, -8.5166310e-9, 5.4666603e+1
-0.064, 3.5093397e-9, -8.4781027e-9, 5.4999935e+1
-0.065, 3.5576442e-9, -8.4396934e-9, 5.5333267e+1
-0.066, 3.5966181e-9, -8.3977376e-9, 5.5666599e+1
-0.067, 3.6392536e-9, -8.3588558e-9, 5.5999931e+1
-0.068, 3.6879122e-9, -8.3217460e-9, 5.6333263e+1
-0.069, 3.7266501e-9, -8.2827460e-9, 5.6666595e+1
-0.070, 3.7714116e-9, -8.2453999e-9, 5.6999928e+1
-0.071, 3.8125116e-9, -8.2063991e-9, 5.7333260e+1
-0.072, 3.8493595e-9, -8.1703533e-9, 5.7666592e+1
-0.073, 3.8956562e-9, -8.1340703e-9, 5.7999924e+1
-0.074, 3.9267176e-9, -8.0982607e-9, 5.8333256e+1
-0.075, 3.9691170e-9, -8.0626883e-9, 5.8666588e+1
-0.076, 4.0116341e-9, -8.0294784e-9, 5.8999920e+1
-0.077, 4.0390340e-9, -7.9952045e-9, 5.9333252e+1
-0.078, 4.0771813e-9, -7.9621127e-9, 5.9666584e+1
-0.079, 4.1127306e-9, -7.9294953e-9, 5.9999916e+1
-0.080, 4.1453272e-9, -7.8942755e-9, 6.0333248e+1
-0.081, 4.1876080e-9, -7.8598843e-9, 6.0666580e+1
-0.082, 4.2176063e-9, -7.8266744e-9, 6.0999912e+1
-0.083, 4.2546908e-9, -7.7927558e-9, 6.1333244e+1
-0.084, 4.2889408e-9, -7.7612015e-9, 6.1666576e+1
-0.085, 4.3163411e-9, -7.7295281e-9, 6.1999908e+1
-0.086, 4.3517718e-9, -7.6982101e-9, 6.2333241e+1
-0.087, 4.3829518e-9, -7.6657090e-9, 6.2666573e+1
-0.088, 4.4143671e-9, -7.6328543e-9, 6.2999905e+1
-0.089, 4.4496802e-9, -7.6043714e-9, 6.3333237e+1
-0.090, 4.4747184e-9, -7.5762445e-9, 6.3666569e+1
-0.091, 4.5066058e-9, -7.5459887e-9, 6.3999901e+1
-0.092, 4.5395567e-9, -7.5152613e-9, 6.4333237e+1
-0.093, 4.5603428e-9, -7.4855970e-9, 6.4666573e+1
-0.094, 4.5961284e-9, -7.4529787e-9, 6.4999908e+1
-0.095, 4.6287250e-9, -7.4216597e-9, 6.5333244e+1
-0.096, 4.6697064e-9, -7.3875048e-9, 6.5666580e+1
-0.097, 4.7250976e-9, -7.3492141e-9, 6.5999916e+1
-0.098, 4.7236801e-9, -7.3266411e-9, 6.6333252e+1
-0.099, 4.7237982e-9, -7.3060766e-9, 6.6666588e+1
-0.100, 4.7783622e-9, -7.2719217e-9, 6.6999924e+1
-0.101, 4.6993507e-9, -7.2805495e-9, 6.7333260e+1
-0.102, 4.7820232e-9, -7.2435573e-9, 6.7666595e+1
-0.103, 4.8277298e-9, -7.2019573e-9, 6.7999931e+1
-0.104, 4.8521769e-9, -7.1759558e-9, 6.8333267e+1
-0.105, 4.8847730e-9, -7.1483015e-9, 6.8666603e+1
-0.106, 4.8996540e-9, -7.1200557e-9, 6.8999939e+1
-0.107, 4.9244560e-9, -7.0950010e-9, 6.9333275e+1
-0.108, 4.9491393e-9, -7.0755006e-9, 6.9666611e+1
-0.109, 4.9726423e-9, -7.0532824e-9, 6.9999947e+1
-0.110, 4.9960271e-9, -7.0264541e-9, 7.0333282e+1
-0.111, 5.0191749e-9, -6.9965536e-9, 7.0666618e+1
-0.112, 5.0426778e-9, -6.9720900e-9, 7.0999954e+1
-0.113, 5.0688969e-9, -6.9452621e-9, 7.1333290e+1
-0.114, 5.0887379e-9, -6.9237531e-9, 7.1666626e+1
-0.115, 5.1084617e-9, -6.9031887e-9, 7.1999962e+1
-0.116, 5.1332631e-9, -6.8755335e-9, 7.2333298e+1
-0.117, 5.1492073e-9, -6.8526069e-9, 7.2666634e+1
-0.118, 5.1708198e-9, -6.8325150e-9, 7.2999969e+1
-0.119, 5.1931419e-9, -6.8089969e-9, 7.3333305e+1
-0.120, 5.2127471e-9, -6.7850046e-9, 7.3666641e+1
-0.121, 5.2384932e-9, -6.7640866e-9, 7.3999977e+1
-0.122, 5.2525477e-9, -6.7408048e-9, 7.4333313e+1
-0.123, 5.2739244e-9, -6.7202404e-9, 7.4666649e+1
-0.124, 5.2982538e-9, -6.7007409e-9, 7.4999985e+1
-0.125, 5.3121902e-9, -6.6769852e-9, 7.5333321e+1
-0.126, 5.3393534e-9, -6.6550032e-9, 7.5666656e+1
-0.127, 5.3594316e-9, -6.6355028e-9, 7.5999992e+1
-0.128, 5.3759663e-9, -6.6129298e-9, 7.6333328e+1
-0.129, 5.4011222e-9, -6.5894112e-9, 7.6666664e+1
-0.130, 5.4125779e-9, -6.5692025e-9, 7.7000000e+1
-0.131, 5.4310023e-9, -6.5479289e-9, 7.7333336e+1
-0.132, 5.4490719e-9, -6.5289014e-9, 7.7666672e+1
-0.133, 5.4664331e-9, -6.5051466e-9, 7.8000008e+1
-0.134, 5.4872191e-9, -6.4835191e-9, 7.8333344e+1
-0.135, 5.5150915e-9, -6.4572827e-9, 7.8666679e+1
-0.136, 5.5194618e-9, -6.4403816e-9, 7.9000015e+1
-0.137, 5.5672937e-9, -6.4107173e-9, 7.9333351e+1
-0.138, 5.5547744e-9, -6.4003176e-9, 7.9666687e+1
-0.139, 5.5698921e-9, -6.3856627e-9, 8.0000023e+1
-0.140, 5.5775686e-9, -6.3721903e-9, 8.0333359e+1
-0.141, 5.5867808e-9, -6.3552896e-9, 8.0666695e+1
-0.142, 5.6160703e-9, -6.3289352e-9, 8.1000031e+1
-0.143, 5.6433520e-9, -6.3056529e-9, 8.1333366e+1
-0.144, 5.6626033e-9, -6.2833161e-9, 8.1666702e+1
-0.145, 5.6830349e-9, -6.2636971e-9, 8.2000038e+1
-0.146, 5.6826810e-9, -6.2488064e-9, 8.2333374e+1
-0.147, 5.6977982e-9, -6.2334427e-9, 8.2666710e+1
-0.148, 5.7241349e-9, -6.2125238e-9, 8.3000046e+1
-0.149, 5.7350005e-9, -6.1956240e-9, 8.3333382e+1
-0.150, 5.7397247e-9, -6.1845142e-9, 8.3666718e+1
-0.151, 5.7605112e-9, -6.1661960e-9, 8.4000053e+1
-0.152, 5.7797620e-9, -6.1461050e-9, 8.4333389e+1
-0.153, 5.7971228e-9, -6.1300320e-9, 8.4666725e+1
-0.154, 5.8143663e-9, -6.1085226e-9, 8.5000061e+1
-0.155, 5.8279483e-9, -6.0928040e-9, 8.5333397e+1
-0.156, 5.8500333e-9, -6.0755494e-9, 8.5666733e+1
-0.157, 5.8579466e-9, -6.0549854e-9, 8.6000069e+1
-0.158, 5.8769611e-9, -6.0406853e-9, 8.6333405e+1
-0.159, 5.8955032e-9, -6.0254393e-9, 8.6666740e+1
-0.160, 5.9207776e-9, -6.0073573e-9, 8.7000076e+1
-0.161, 5.9105023e-9, -5.9995573e-9, 8.7333412e+1
-0.162, 5.9381384e-9, -5.9792296e-9, 8.7666748e+1
-0.163, 5.9573897e-9, -5.9612657e-9, 8.8000084e+1
-0.164, 5.9778213e-9, -5.9441296e-9, 8.8333420e+1
-0.165, 5.9884506e-9, -5.9254561e-9, 8.8666756e+1
-0.166, 6.0058123e-9, -5.9136376e-9, 8.9000092e+1
-0.167, 6.0240000e-9, -5.8976828e-9, 8.9333427e+1
-0.168, 6.0389991e-9, -5.8820824e-9, 8.9666763e+1
-0.169, 6.0620291e-9, -5.8662462e-9, 9.0000099e+1
-0.170, 6.0740759e-9, -5.8501732e-9, 9.0333435e+1
-0.171, 6.0945076e-9, -5.8341003e-9, 9.0666771e+1
-0.172, 6.1184826e-9, -5.8186180e-9, 9.1000107e+1
-0.173, 6.1279311e-9, -5.8043179e-9, 9.1333443e+1
-0.174, 6.1637162e-9, -5.7820997e-9, 9.1666779e+1
-0.175, 6.1659606e-9, -5.7722902e-9, 9.2000114e+1
-0.176, 6.1780070e-9, -5.7540896e-9, 9.2333450e+1
-0.177, 6.1973759e-9, -5.7399081e-9, 9.2666786e+1
-0.178, 6.2147372e-9, -5.7248988e-9, 9.3000122e+1
-0.179, 6.2319803e-9, -5.7097713e-9, 9.3333458e+1
-0.180, 6.2576087e-9, -5.6921619e-9, 9.3666794e+1
-0.181, 6.2702457e-9, -5.6741976e-9, 9.4000130e+1
-0.182, 6.2909140e-9, -5.6617888e-9, 9.4333466e+1
-0.183, 6.3111099e-9, -5.6438245e-9, 9.4666801e+1
-0.184, 6.3302421e-9, -5.6278697e-9, 9.5000137e+1
-0.185, 6.3483121e-9, -5.6135696e-9, 9.5333473e+1
-0.186, 6.3674452e-9, -5.5965512e-9, 9.5666809e+1
-0.187, 6.3900023e-9, -5.5835514e-9, 9.6000145e+1
-0.188, 6.4120882e-9, -5.5671237e-9, 9.6333481e+1
-0.189, 6.4244889e-9, -5.5550688e-9, 9.6666817e+1
-0.190, 6.4371259e-9, -5.5456142e-9, 9.7000153e+1
-0.191, 6.4672427e-9, -5.5298957e-9, 9.7333488e+1
-0.192, 6.4791701e-9, -5.5176046e-9, 9.7666824e+1
-0.193, 6.5027916e-9, -5.5034231e-9, 9.8000160e+1
-0.194, 6.5206254e-9, -5.4880589e-9, 9.8333496e+1
-0.195, 6.5408208e-9, -5.4751768e-9, 9.8666832e+1
-0.196, 6.5638504e-9, -5.4628857e-9, 9.9000168e+1
-0.197, 6.5832197e-9, -5.4495310e-9, 9.9333504e+1
-0.198, 6.6086123e-9, -5.4364127e-9, 9.9666840e+1
-0.199, 6.6290444e-9, -5.4219940e-9, 1.0000018e+2
-0.200, 6.6511299e-9, -5.4098210e-9, 1.0033351e+2
-0.201, 6.6765220e-9, -5.4008393e-9, 1.0066685e+2
-0.202, 6.6909305e-9, -5.3890212e-9, 1.0100018e+2
-0.203, 6.7171491e-9, -5.3774389e-9, 1.0133352e+2
-0.204, 6.7425416e-9, -5.3658566e-9, 1.0166685e+2
-0.205, 6.7697048e-9, -5.3540385e-9, 1.0200019e+2
-0.206, 6.7882477e-9, -5.3428111e-9, 1.0233353e+2
-0.207, 6.8118684e-9, -5.3306382e-9, 1.0266686e+2
-0.208, 6.8300570e-9, -5.3177560e-9, 1.0300020e+2
-0.209, 6.8566299e-9, -5.3071196e-9, 1.0333353e+2
-0.210, 6.8761170e-9, -5.2956564e-9, 1.0366687e+2
-0.211, 6.9036350e-9, -5.2856102e-9, 1.0400021e+2
-0.212, 6.9322161e-9, -5.2768643e-9, 1.0433354e+2
-0.213, 6.9487505e-9, -5.2654010e-9, 1.0466688e+2
-0.214, 6.9736705e-9, -5.2563007e-9, 1.0500021e+2
-0.215, 6.9968187e-9, -5.2463731e-9, 1.0533355e+2
-0.216, 7.0199668e-9, -5.2365641e-9, 1.0566689e+2
-0.217, 7.0474848e-9, -5.2264002e-9, 1.0600022e+2
-0.218, 7.0679174e-9, -5.2165912e-9, 1.0633356e+2
-0.219, 7.0949628e-9, -5.2063092e-9, 1.0666689e+2
-0.220, 7.1237802e-9, -5.1974456e-9, 1.0700023e+2
-0.221, 7.1452746e-9, -5.1885816e-9, 1.0733356e+2
-0.222, 7.1750366e-9, -5.1818452e-9, 1.0766690e+2
-0.223, 7.2043269e-9, -5.1734541e-9, 1.0800024e+2
-0.224, 7.2327899e-9, -5.1649449e-9, 1.0833357e+2
-0.225, 7.2644415e-9, -5.1592721e-9, 1.0866691e+2
-0.226, 7.2861717e-9, -5.1514721e-9, 1.0900024e+2
-0.227, 7.3121558e-9, -5.1453268e-9, 1.0933358e+2
-0.228, 7.3455788e-9, -5.1382356e-9, 1.0966692e+2
-0.229, 7.3741595e-9, -5.1335078e-9, 1.1000025e+2
-0.230, 7.4032127e-9, -5.1299627e-9, 1.1033359e+2
-0.231, 7.4333295e-9, -5.1260627e-9, 1.1066692e+2
-0.232, 7.4626190e-9, -5.1201536e-9, 1.1100026e+2
-0.233, 7.5002937e-9, -5.1150715e-9, 1.1133360e+2
-0.234, 7.5234423e-9, -5.1173168e-9, 1.1166693e+2
-0.235, 7.5567481e-9, -5.1144804e-9, 1.1200027e+2
-0.236, 7.5938322e-9, -5.1108171e-9, 1.1233360e+2
-0.237, 7.6221767e-9, -5.1093987e-9, 1.1266694e+2
-0.238, 7.6571354e-9, -5.1064442e-9, 1.1300027e+2
-0.239, 7.6913853e-9, -5.1051443e-9, 1.1333361e+2
-0.240, 7.7262259e-9, -5.1031352e-9, 1.1366695e+2
-0.241, 7.7642550e-9, -5.1028985e-9, 1.1400028e+2
-0.242, 7.7927185e-9, -5.1028985e-9, 1.1433362e+2
-0.243, 7.8270865e-9, -5.1027804e-9, 1.1466695e+2
-0.244, 7.8671230e-9, -5.1027804e-9, 1.1500029e+2
-0.245, 7.8960589e-9, -5.1031352e-9, 1.1533363e+2
-0.246, 7.9333793e-9, -5.1024260e-9, 1.1566696e+2
-0.247, 7.9676292e-9, -5.1017168e-9, 1.1600030e+2
-0.248, 8.0036511e-9, -5.1021893e-9, 1.1633363e+2
-0.249, 8.0413258e-9, -5.1014806e-9, 1.1666697e+2
-0.250, 8.0741582e-9, -5.1008895e-9, 1.1700031e+2
-0.251, 8.1111251e-9, -5.1012443e-9, 1.1733364e+2
-0.252, 8.1510452e-9, -5.1026623e-9, 1.1766698e+2
-0.253, 8.1759648e-9, -5.1049076e-9, 1.1800031e+2
-0.254, 8.2144664e-9, -5.1051443e-9, 1.1833365e+2
-0.255, 8.2496605e-9, -5.1077440e-9, 1.1866698e+2
-0.256, 8.2834388e-9, -5.1088076e-9, 1.1900032e+2
-0.257, 8.3243021e-9, -5.1075078e-9, 1.1933366e+2
-0.258, 8.3530010e-9, -5.1090443e-9, 1.1966699e+2
-0.259, 8.3854799e-9, -5.1084532e-9, 1.2000033e+2
-0.260, 8.4202023e-9, -5.1090443e-9, 1.2033366e+2
-0.261, 8.4477199e-9, -5.1151900e-9, 1.2066700e+2
-0.262, 8.4825604e-9, -5.1168443e-9, 1.2100034e+2
-0.263, 8.5161034e-9, -5.1175530e-9, 1.2133367e+2
-0.264, 8.5455101e-9, -5.1177902e-9, 1.2166701e+2
-0.265, 8.5831848e-9, -5.1190900e-9, 1.2200034e+2
-0.266, 8.6075147e-9, -5.1218079e-9, 1.2233368e+2
-0.267, 8.6391667e-9, -5.1200355e-9, 1.2266702e+2
-0.268, 8.6715266e-9, -5.1197988e-9, 1.2300035e+2
-0.269, 8.6942027e-9, -5.1215716e-9, 1.2333369e+2
-0.270, 8.7265626e-9, -5.1231082e-9, 1.2366702e+2
-0.271, 8.7557339e-9, -5.1252349e-9, 1.2400036e+2
-0.272, 8.7821892e-9, -5.1240536e-9, 1.2433369e+2
-0.273, 8.8147862e-9, -5.1239355e-9, 1.2466703e+2
-0.274, 8.8413596e-9, -5.1283080e-9, 1.2500037e+2
-0.275, 8.8695868e-9, -5.1304352e-9, 1.2533370e+2
-0.276, 8.8994669e-9, -5.1294897e-9, 1.2566704e+2
-0.277, 8.9215515e-9, -5.1271263e-9, 1.2600037e+2
-0.278, 8.9497787e-9, -5.1285447e-9, 1.2633371e+2
-0.279, 8.9775334e-9, -5.1279536e-9, 1.2666705e+2
-0.280, 9.0016261e-9, -5.1285447e-9, 1.2700038e+2
-0.281, 9.0286720e-9, -5.1293716e-9, 1.2733372e+2
-0.282, 9.0469783e-9, -5.1300804e-9, 1.2766705e+2
-0.283, 9.0739061e-9, -5.1297264e-9, 1.2800038e+2
-0.284, 9.1044940e-9, -5.1313811e-9, 1.2833371e+2
-0.285, 9.1220915e-9, -5.1314988e-9, 1.2866704e+2
-0.286, 9.1487822e-9, -5.1309081e-9, 1.2900037e+2
-0.287, 9.1734673e-9, -5.1266533e-9, 1.2933369e+2
-0.288, 9.1948440e-9, -5.1285447e-9, 1.2966702e+2
-0.289, 9.2222434e-9, -5.1283080e-9, 1.3000035e+2
-0.290, 9.2401953e-9, -5.1262989e-9, 1.3033368e+2
-0.291, 9.2651149e-9, -5.1240536e-9, 1.3066701e+2
-0.292, 9.2905079e-9, -5.1221622e-9, 1.3100034e+2
-0.293, 9.3089314e-9, -5.1220446e-9, 1.3133366e+2
-0.294, 9.3340873e-9, -5.1209805e-9, 1.3166699e+2
-0.295, 9.3571177e-9, -5.1193259e-9, 1.3200032e+2
-0.296, 9.3782582e-9, -5.1183804e-9, 1.3233365e+2
-0.297, 9.4037684e-9, -5.1174354e-9, 1.3266698e+2
-0.298, 9.4230188e-9, -5.1161351e-9, 1.3300031e+2
-0.299, 9.4466408e-9, -5.1158988e-9, 1.3333363e+2
-0.300, 9.4742765e-9, -5.1150715e-9, 1.3366696e+2
-0.301, 9.4904564e-9, -5.1069171e-9, 1.3400029e+2
-0.302, 9.5169117e-9, -5.1076259e-9, 1.3433362e+2
-0.303, 9.5401784e-9, -5.1082170e-9, 1.3466695e+2
-0.304, 9.5560049e-9, -5.1079807e-9, 1.3500027e+2
-0.305, 9.5843484e-9, -5.1059712e-9, 1.3533360e+2
-0.306, 9.6008828e-9, -5.1069171e-9, 1.3566693e+2
-0.307, 9.6305266e-9, -5.1082170e-9, 1.3600026e+2
-0.308, 9.6542658e-9, -5.1071534e-9, 1.3633359e+2
-0.309, 9.6673762e-9, -5.1051443e-9, 1.3666692e+2
-0.310, 9.6875716e-9, -5.1002988e-9, 1.3700024e+2
-0.311, 9.7100106e-9, -5.0998259e-9, 1.3733357e+2
-0.312, 9.7278443e-9, -5.0991167e-9, 1.3766690e+2
-0.313, 9.7520561e-9, -5.0980531e-9, 1.3800023e+2
-0.314, 9.7685904e-9, -5.0976983e-9, 1.3833356e+2
-0.315, 9.7909121e-9, -5.0960440e-9, 1.3866689e+2
-0.316, 9.8138244e-9, -5.0939164e-9, 1.3900021e+2
-0.317, 9.8261070e-9, -5.0923803e-9, 1.3933354e+2
-0.318, 9.8496091e-9, -5.0901350e-9, 1.3966687e+2
-0.319, 9.8728759e-9, -5.0865894e-9, 1.4000020e+2
-0.320, 9.8861035e-9, -5.0881259e-9, 1.4033353e+2
-0.321, 9.9116138e-9, -5.0865894e-9, 1.4066685e+2
-0.322, 9.9266124e-9, -5.0835167e-9, 1.4100018e+2
-0.323, 9.9436193e-9, -5.0783164e-9, 1.4133351e+2
-0.324, 9.9647606e-9, -5.0781979e-9, 1.4166684e+2
-0.325, 9.9799955e-9, -5.0777254e-9, 1.4200017e+2
-0.326, 1.0001254e-8, -5.0748894e-9, 1.4233350e+2
-0.327, 1.0022631e-8, -5.0718163e-9, 1.4266682e+2
-0.328, 1.0037512e-8, -5.0688618e-9, 1.4300015e+2
-0.329, 1.0060424e-8, -5.0654343e-9, 1.4333348e+2
-0.330, 1.0071762e-8, -5.0635434e-9, 1.4366681e+2
-0.331, 1.0096091e-8, -5.0599978e-9, 1.4400014e+2
-0.332, 1.0121011e-8, -5.0534981e-9, 1.4433347e+2
-0.333, 1.0120657e-8, -5.0547975e-9, 1.4466679e+2
-0.334, 1.0143332e-8, -5.0504254e-9, 1.4500012e+2
-0.335, 1.0164237e-8, -5.0458162e-9, 1.4533345e+2
-0.336, 1.0171913e-8, -5.0442792e-9, 1.4566678e+2
-0.337, 1.0194708e-8, -5.0406159e-9, 1.4600011e+2
-0.338, 1.0208172e-8, -5.0367159e-9, 1.4633344e+2
-0.339, 1.0224824e-8, -5.0331703e-9, 1.4666676e+2
-0.340, 1.0246318e-8, -5.0300977e-9, 1.4700009e+2
-0.341, 1.0256948e-8, -5.0215880e-9, 1.4733342e+2
-0.342, 1.0275254e-8, -5.0183973e-9, 1.4766675e+2
-0.343, 1.0287538e-8, -5.0183973e-9, 1.4800008e+2
-0.344, 1.0307733e-8, -5.0124882e-9, 1.4833340e+2
-0.345, 1.0327929e-8, -5.0105973e-9, 1.4866673e+2
-0.346, 1.0333362e-8, -5.0059881e-9, 1.4900006e+2
-0.347, 1.0348715e-8, -5.0013789e-9, 1.4933339e+2
-0.348, 1.0369265e-8, -4.9985425e-9, 1.4966672e+2
-0.349, 1.0376942e-8, -4.9961786e-9, 1.5000005e+2
-0.350, 1.0394657e-8, -4.9941695e-9, 1.5033337e+2
-0.351, 1.0412609e-8, -4.9906244e-9, 1.5066670e+2
-0.352, 1.0427489e-8, -4.9848334e-9, 1.5100003e+2
-0.353, 1.0448040e-8, -4.9818785e-9, 1.5133336e+2
-0.354, 1.0453355e-8, -4.9809334e-9, 1.5166669e+2
-0.355, 1.0469416e-8, -4.9783333e-9, 1.5200002e+2
-0.356, 1.0484651e-8, -4.9776236e-9, 1.5233334e+2
-0.357, 1.0496936e-8, -4.9745510e-9, 1.5266667e+2
-0.358, 1.0530949e-8, -4.9642694e-9, 1.5300000e+2
-0.359, 1.0525043e-8, -4.9656874e-9, 1.5333333e+2
-0.360, 1.0533192e-8, -4.9648601e-9, 1.5366666e+2
-0.361, 1.0557522e-8, -4.9622599e-9, 1.5399998e+2
-0.362, 1.0564727e-8, -4.9558784e-9, 1.5433331e+2
-0.363, 1.0586221e-8, -4.9544604e-9, 1.5466664e+2
-0.364, 1.0617637e-8, -4.9458326e-9, 1.5499997e+2
-0.365, 1.0622361e-8, -4.9457145e-9, 1.5533330e+2
-0.366, 1.0607361e-8, -4.9510329e-9, 1.5566663e+2
-0.367, 1.0637006e-8, -4.9489057e-9, 1.5599995e+2
-0.368, 1.0650823e-8, -4.9419326e-9, 1.5633328e+2
-0.369, 1.0667831e-8, -4.9382689e-9, 1.5666661e+2
-0.370, 1.0667476e-8, -4.9393325e-9, 1.5699994e+2
-0.371, 1.0688263e-8, -4.9341327e-9, 1.5733327e+2
-0.372, 1.0705151e-8, -4.9317688e-9, 1.5766660e+2
-0.373, 1.0710584e-8, -4.9265685e-9, 1.5799992e+2
-0.374, 1.0733497e-8, -4.9171143e-9, 1.5833325e+2
-0.375, 1.0750385e-8, -4.9166413e-9, 1.5866658e+2
-0.376, 1.0758652e-8, -4.9161688e-9, 1.5899991e+2
-0.377, 1.0770816e-8, -4.9162865e-9, 1.5933324e+2
-0.378, 1.0783100e-8, -4.9102593e-9, 1.5966656e+2
-0.379, 1.0816759e-8, -4.9012772e-9, 1.5999989e+2
-0.380, 1.0831640e-8, -4.9022231e-9, 1.6033322e+2
-0.381, 1.0834003e-8, -4.8983226e-9, 1.6066655e+2
-0.382, 1.0846994e-8, -4.8989137e-9, 1.6099988e+2
-0.383, 1.0838136e-8, -4.9086046e-9, 1.6133321e+2
-0.384, 1.0881243e-8, -4.8957229e-9, 1.6166653e+2
-0.385, 1.0868016e-8, -4.9021045e-9, 1.6199986e+2
-0.386, 1.0928485e-8, -4.8800044e-9, 1.6233319e+2
-0.387, 1.0890692e-8, -4.8940683e-9, 1.6266652e+2
-0.388, 1.0919155e-8, -4.8905227e-9, 1.6299985e+2
-0.389, 1.0911005e-8, -4.8891047e-9, 1.6333318e+2
-0.390, 1.0924234e-8, -4.8958411e-9, 1.6366650e+2
-0.391, 1.0967460e-8, -4.8790589e-9, 1.6399983e+2
-0.392, 1.0978678e-8, -4.8790589e-9, 1.6433316e+2
-0.393, 1.0995568e-8, -4.8795319e-9, 1.6466649e+2
-0.394, 1.1003953e-8, -4.8756319e-9, 1.6499982e+2
-0.395, 1.1021786e-8, -4.8725592e-9, 1.6533315e+2
-0.396, 1.1038439e-8, -4.8697228e-9, 1.6566647e+2
-0.397, 1.1044699e-8, -4.8664131e-9, 1.6599980e+2
-0.398, 1.1060761e-8, -4.8657043e-9, 1.6633313e+2
-0.399, 1.1077177e-8, -4.8638138e-9, 1.6666646e+2
-0.400, 1.1088162e-8, -4.8626316e-9, 1.6699979e+2
-0.401, 1.1108121e-8, -4.8593218e-9, 1.6733311e+2
-0.402, 1.1119576e-8, -4.8589679e-9, 1.6766644e+2
-0.403, 1.1134222e-8, -4.8562492e-9, 1.6799977e+2
-0.404, 1.1151819e-8, -4.8550679e-9, 1.6833310e+2
-0.405, 1.1163865e-8, -4.8509317e-9, 1.6866643e+2
-0.406, 1.1178982e-8, -4.8493947e-9, 1.6899976e+2
-0.407, 1.1201186e-8, -4.8453765e-9, 1.6933308e+2
-0.408, 1.1207564e-8, -4.8489222e-9, 1.6966641e+2
-0.409, 1.1231067e-8, -4.8477404e-9, 1.6999974e+2
-0.410, 1.1256694e-8, -4.8408855e-9, 1.7033307e+2
-0.411, 1.1267206e-8, -4.8400586e-9, 1.7066640e+2
-0.412, 1.1283976e-8, -4.8395856e-9, 1.7099973e+2
-0.413, 1.1291181e-8, -4.8392312e-9, 1.7133305e+2
-0.414, 1.1311613e-8, -4.8381672e-9, 1.7166638e+2
-0.415, 1.1328502e-8, -4.8381672e-9, 1.7199971e+2
-0.416, 1.1342202e-8, -4.8376942e-9, 1.7233304e+2
-0.417, 1.1363224e-8, -4.8359219e-9, 1.7266637e+2
-0.418, 1.1372554e-8, -4.8374584e-9, 1.7299969e+2
-0.419, 1.1389090e-8, -4.8343858e-9, 1.7333302e+2
-0.420, 1.1409285e-8, -4.8345039e-9, 1.7366635e+2
-0.421, 1.1421450e-8, -4.8349764e-9, 1.7399968e+2
-0.422, 1.1440582e-8, -4.8345039e-9, 1.7433301e+2
-0.423, 1.1459242e-8, -4.8340310e-9, 1.7466634e+2
-0.424, 1.1475186e-8, -4.8308397e-9, 1.7499966e+2
-0.425, 1.1493256e-8, -4.8313131e-9, 1.7533299e+2
-0.426, 1.1506010e-8, -4.8269397e-9, 1.7566632e+2
-0.427, 1.1526680e-8, -4.8263491e-9, 1.7599965e+2
-0.428, 1.1549473e-8, -4.8254036e-9, 1.7633298e+2
-0.429, 1.1567779e-8, -4.8222124e-9, 1.7666631e+2
-0.430, 1.1590101e-8, -4.8256399e-9, 1.7699963e+2
-0.431, 1.1605454e-8, -4.8288307e-9, 1.7733296e+2
-0.432, 1.1618682e-8, -4.8298947e-9, 1.7766629e+2
-0.433, 1.1646200e-8, -4.8281219e-9, 1.7799962e+2
-0.434, 1.1666750e-8, -4.8264677e-9, 1.7833295e+2
-0.435, 1.1687418e-8, -4.8271764e-9, 1.7866628e+2
-0.436, 1.1711512e-8, -4.8288307e-9, 1.7899960e+2
-0.437, 1.1728991e-8, -4.8288307e-9, 1.7933293e+2
-0.438, 1.1747888e-8, -4.8293041e-9, 1.7966626e+2
-0.439, 1.1774934e-8, -4.8302491e-9, 1.7999959e+2
-0.440, 1.1797372e-8, -4.8320219e-9, 1.8033292e+2
-0.441, 1.1823710e-8, -4.8348583e-9, 1.8066624e+2
-0.442, 1.1846268e-8, -4.8358038e-9, 1.8099957e+2
-0.443, 1.1874731e-8, -4.8368674e-9, 1.8133290e+2
-0.444, 1.1901068e-8, -4.8384039e-9, 1.8166623e+2
-0.445, 1.1919965e-8, -4.8376942e-9, 1.8199956e+2
-0.446, 1.1950553e-8, -4.8389950e-9, 1.8233289e+2
-0.447, 1.1976890e-8, -4.8462039e-9, 1.8266621e+2
-0.448, 1.2001456e-8, -4.8514037e-9, 1.8299954e+2
-0.449, 1.2031808e-8, -4.8512856e-9, 1.8333287e+2
-0.450, 1.2050823e-8, -4.8542401e-9, 1.8366620e+2
-0.451, 1.2075625e-8, -4.8554223e-9, 1.8399953e+2
-0.452, 1.2104088e-8, -4.8563678e-9, 1.8433286e+2
-0.453, 1.2121449e-8, -4.8619224e-9, 1.8466618e+2
-0.454, 1.2142826e-8, -4.8692494e-9, 1.8499951e+2
-0.455, 1.2168218e-8, -4.8699587e-9, 1.8533284e+2
-0.456, 1.2194437e-8, -4.8707860e-9, 1.8566617e+2
-0.457, 1.2226443e-8, -4.8776410e-9, 1.8599950e+2
-0.458, 1.2250655e-8, -4.8826045e-9, 1.8633282e+2
-0.459, 1.2284668e-8, -4.8859135e-9, 1.8666615e+2
-0.460, 1.2315493e-8, -4.8887498e-9, 1.8699948e+2
-0.461, 1.2341475e-8, -4.8912319e-9, 1.8733281e+2
-0.462, 1.2371710e-8, -4.8948956e-9, 1.8766614e+2
-0.463, 1.2400410e-8, -4.8983226e-9, 1.8799947e+2
-0.464, 1.2427809e-8, -4.9025775e-9, 1.8833279e+2
-0.465, 1.2465956e-8, -4.9077777e-9, 1.8866612e+2
-0.466, 1.2495482e-8, -4.9135687e-9, 1.8899945e+2
-0.467, 1.2538472e-8, -4.9172320e-9, 1.8933278e+2
-0.468, 1.2568943e-8, -4.9250324e-9, 1.8966611e+2
-0.469, 1.2597759e-8, -4.9303508e-9, 1.8999944e+2
-0.470, 1.2635790e-8, -4.9351963e-9, 1.9033276e+2
-0.471, 1.2664135e-8, -4.9437054e-9, 1.9066609e+2
-0.472, 1.2699093e-8, -4.9489057e-9, 1.9099942e+2
-0.473, 1.2740311e-8, -4.9541056e-9, 1.9133275e+2
-0.474, 1.2773971e-8, -4.9596602e-9, 1.9166608e+2
-0.475, 1.2814953e-8, -4.9643876e-9, 1.9199940e+2
-0.476, 1.2855108e-8, -4.9718332e-9, 1.9233273e+2
-0.477, 1.2884870e-8, -4.9779785e-9, 1.9266606e+2
-0.478, 1.2929867e-8, -4.9848334e-9, 1.9299939e+2
-0.479, 1.2970494e-8, -4.9903877e-9, 1.9333272e+2
-0.480, 1.3010296e-8, -4.9966515e-9, 1.9366605e+2
-0.481, 1.3057537e-8, -5.0038604e-9, 1.9399937e+2
-0.482, 1.3094504e-8, -5.0113065e-9, 1.9433270e+2
-0.483, 1.3140683e-8, -5.0166244e-9, 1.9466603e+2
-0.484, 1.3188632e-8, -5.0245430e-9, 1.9499936e+2
-0.485, 1.3228669e-8, -5.0362430e-9, 1.9533269e+2
-0.486, 1.3274730e-8, -5.0473523e-9, 1.9566602e+2
-0.487, 1.3319254e-8, -5.0563345e-9, 1.9599934e+2
-0.488, 1.3364251e-8, -5.0651980e-9, 1.9633267e+2
-0.489, 1.3418935e-8, -5.0764255e-9, 1.9666600e+2
-0.490, 1.3459681e-8, -5.0858802e-9, 1.9699933e+2
-0.491, 1.3510817e-8, -5.0988804e-9, 1.9733266e+2
-0.492, 1.3563138e-8, -5.1132987e-9, 1.9766599e+2
-0.493, 1.3611797e-8, -5.1231082e-9, 1.9799931e+2
-0.494, 1.3664353e-8, -5.1340989e-9, 1.9833264e+2
-0.495, 1.3719626e-8, -5.1473359e-9, 1.9866597e+2
-0.496, 1.3774899e-8, -5.1589177e-9, 1.9899930e+2
-0.497, 1.3828399e-8, -5.1734541e-9, 1.9933263e+2
-0.498, 1.3875287e-8, -5.1885816e-9, 1.9966595e+2
-0.499, 1.3933157e-8, -5.2039457e-9, 1.9999928e+2
-0.500, 1.3231150e-8, -5.2174185e-9, 2.0033261e+2
-0.499, 1.1750839e-8, -5.2091456e-9, 2.0066594e+2
-0.498, 1.0966633e-8, -5.1829088e-9, 2.0099927e+2
-0.497, 1.0345408e-8, -5.1525357e-9, 2.0133260e+2
-0.496, 9.8315400e-9, -5.1238169e-9, 2.0166592e+2
-0.495, 9.3655039e-9, -5.0956896e-9, 2.0199925e+2
-0.494, 8.9508418e-9, -5.0705160e-9, 2.0233258e+2
-0.493, 8.5723197e-9, -5.0464068e-9, 2.0266591e+2
-0.492, 8.2115141e-9, -5.0238338e-9, 2.0299924e+2
-0.491, 7.8960589e-9, -4.9996061e-9, 2.0333257e+2
-0.490, 7.5922966e-9, -4.9762057e-9, 2.0366589e+2
-0.489, 7.3058954e-9, -4.9539870e-9, 2.0399922e+2
-0.488, 7.0403985e-9, -4.9317688e-9, 2.0433255e+2
-0.487, 6.7790360e-9, -4.9107323e-9, 2.0466588e+2
-0.486, 6.5370420e-9, -4.8888684e-9, 2.0499921e+2
-0.485, 6.3048500e-9, -4.8659405e-9, 2.0533253e+2
-0.484, 6.0779732e-9, -4.8476219e-9, 2.0566586e+2
-0.483, 5.8711738e-9, -4.8320219e-9, 2.0599919e+2
-0.482, 5.6623670e-9, -4.8164215e-9, 2.0633252e+2
-0.481, 5.4606466e-9, -4.7996398e-9, 2.0666585e+2
-0.480, 5.2717990e-9, -4.7843938e-9, 2.0699918e+2
-0.479, 5.0866125e-9, -4.7630029e-9, 2.0733250e+2
-0.478, 4.9043782e-9, -4.7488204e-9, 2.0766583e+2
-0.477, 4.7341913e-9, -4.7359383e-9, 2.0799916e+2
-0.476, 4.5604613e-9, -4.7196291e-9, 2.0833249e+2
-0.475, 4.4066901e-9, -4.7016653e-9, 2.0866582e+2
-0.474, 4.2485500e-9, -4.6879562e-9, 2.0899915e+2
-0.473, 4.0915902e-9, -4.6723558e-9, 2.0933247e+2
-0.472, 3.9462047e-9, -4.6584101e-9, 2.0966580e+2
-0.471, 3.7958587e-9, -4.6462372e-9, 2.0999913e+2
-0.470, 3.6605121e-9, -4.6350102e-9, 2.1033246e+2
-0.469, 3.5215042e-9, -4.6234279e-9, 2.1066579e+2
-0.468, 3.3833232e-9, -4.6100732e-9, 2.1099911e+2
-0.467, 3.2561258e-9, -4.5971911e-9, 2.1133244e+2
-0.466, 3.1332981e-9, -4.5865542e-9, 2.1166577e+2
-0.465, 3.0055101e-9, -4.5762727e-9, 2.1199910e+2
-0.464, 2.8947291e-9, -4.5662274e-9, 2.1233243e+2
-0.463, 2.7709564e-9, -4.5552357e-9, 2.1266576e+2
-0.462, 2.6573408e-9, -4.5464903e-9, 2.1299908e+2
-0.461, 2.5477407e-9, -4.5352633e-9, 2.1333241e+2
-0.460, 2.4315268e-9, -4.5278172e-9, 2.1366574e+2
-0.459, 2.3353908e-9, -4.5130442e-9, 2.1399907e+2
-0.458, 2.2581510e-9, -4.4955528e-9, 2.1433240e+2
-0.457, 2.1203241e-9, -4.4930712e-9, 2.1466573e+2
-0.456, 2.0287938e-9, -4.4857438e-9, 2.1499905e+2
-0.455, 1.9289965e-9, -4.4760529e-9, 2.1533238e+2
-0.454, 1.8348679e-9, -4.4656527e-9, 2.1566571e+2
-0.453, 1.7304644e-9, -4.4658894e-9, 2.1599904e+2
-0.452, 1.6492091e-9, -4.4418980e-9, 2.1633237e+2
-0.451, 1.5663005e-9, -4.4355160e-9, 2.1666570e+2
-0.450, 1.4758332e-9, -4.4259432e-9, 2.1699902e+2
-0.449, 1.3848935e-9, -4.4167248e-9, 2.1733235e+2
-0.448, 1.3064727e-9, -4.4106976e-9, 2.1766568e+2
-0.447, 1.2204934e-9, -4.4026609e-9, 2.1799901e+2
-0.446, 1.1375847e-9, -4.3950972e-9, 2.1833234e+2
-0.445, 1.0599908e-9, -4.3880064e-9, 2.1866566e+2
-0.444, 9.7885355e-10, -4.3816244e-9, 2.1899899e+2
-0.443, 9.0881819e-10, -4.3725241e-9, 2.1933232e+2
-0.442, 8.2886209e-10, -4.3637787e-9, 2.1966565e+2
-0.441, 7.5032325e-10, -4.3519601e-9, 2.1999898e+2
-0.440, 6.8489392e-10, -4.3446331e-9, 2.2033231e+2
-0.439, 6.0871713e-10, -4.3358872e-9, 2.2066563e+2
-0.438, 5.3927224e-10, -4.3283235e-9, 2.2099896e+2
-0.437, 4.7313431e-10, -4.3227693e-9, 2.2133229e+2
-0.436, 3.9825668e-10, -4.3143777e-9, 2.2166562e+2
-0.435, 3.3861439e-10, -4.3070507e-9, 2.2199895e+2
-0.434, 2.6562638e-10, -4.2992503e-9, 2.2233228e+2
-0.433, 1.9866170e-10, -4.2921591e-9, 2.2266560e+2
-0.432, 1.4338924e-10, -4.2897956e-9, 2.2299893e+2
-0.431, 7.3826265e-11, -4.2805777e-9, 2.2333226e+2
-0.430, 1.2412439e-11, -4.2754951e-9, 2.2366559e+2
-0.429, -4.9001393e-11, -4.2717136e-9, 2.2399892e+2
-0.428, -1.1478506e-10, -4.2626134e-9, 2.2433224e+2
-0.427, -1.6911268e-10, -4.2595407e-9, 2.2466557e+2
-0.426, -2.2674720e-10, -4.2493769e-9, 2.2499890e+2
-0.425, -2.8733432e-10, -4.2406314e-9, 2.2533223e+2
-0.424, -3.3800071e-10, -4.2355497e-9, 2.2566556e+2
-0.423, -3.9752490e-10, -4.2317678e-9, 2.2599889e+2
-0.422, -4.5149820e-10, -4.2265671e-9, 2.2633221e+2
-0.421, -5.0499910e-10, -4.2212496e-9, 2.2666554e+2
-0.420, -5.6121635e-10, -4.2143946e-9, 2.2699887e+2
-0.419, -6.0904831e-10, -4.2088399e-9, 2.2733220e+2
-0.418, -6.6030525e-10, -4.2017492e-9, 2.2766553e+2
-0.417, -7.1380613e-10, -4.1943031e-9, 2.2799886e+2
-0.416, -7.6057510e-10, -4.1891037e-9, 2.2833218e+2
-0.415, -8.1596563e-10, -4.1848485e-9, 2.2866551e+2
-0.414, -8.6651397e-10, -4.1821306e-9, 2.2899884e+2
-0.413, -9.1080282e-10, -4.1766937e-9, 2.2933217e+2
-0.412, -9.6205977e-10, -4.1696033e-9, 2.2966550e+2
-0.411, -1.0046951e-9, -4.1639301e-9, 2.2999883e+2
-0.410, -1.0661090e-9, -4.1583754e-9, 2.3033215e+2
-0.409, -1.1118151e-9, -4.1523482e-9, 2.3066548e+2
-0.408, -1.1549228e-9, -4.1475028e-9, 2.3099881e+2
-0.407, -1.2084237e-9, -4.1470298e-9, 2.3133214e+2
-0.406, -1.2492875e-9, -4.1412389e-9, 2.3166547e+2
-0.405, -1.2906237e-9, -4.1349750e-9, 2.3199879e+2
-0.404, -1.3394005e-9, -4.1304844e-9, 2.3233212e+2
-0.403, -1.3745953e-9, -4.1244568e-9, 2.3266545e+2
-0.402, -1.4267971e-9, -4.1213841e-9, 2.3299878e+2
-0.401, -1.4710859e-9, -4.1189021e-9, 2.3333211e+2
-0.400, -1.5019109e-9, -4.1133474e-9, 2.3366544e+2
-0.399, -1.5511601e-9, -4.1114565e-9, 2.3399876e+2
-0.398, -1.5880086e-9, -4.1043657e-9, 2.3433209e+2
-0.397, -1.6221404e-9, -4.1005839e-9, 2.3466542e+2
-0.396, -1.6604058e-9, -4.0926653e-9, 2.3499875e+2
-0.395, -1.7029231e-9, -4.0923109e-9, 2.3533208e+2
-0.394, -1.7359920e-9, -4.0852202e-9, 2.3566541e+2
-0.393, -1.7893751e-9, -4.0834474e-9, 2.3599873e+2
-0.392, -1.8268138e-9, -4.0794288e-9, 2.3633206e+2
-0.391, -1.8696855e-9, -4.0739923e-9, 2.3666539e+2
-0.390, -1.9066517e-9, -4.0705652e-9, 2.3699872e+2
-0.389, -1.9411379e-9, -4.0652468e-9, 2.3733205e+2
-0.388, -1.9711361e-9, -4.0568562e-9, 2.3766537e+2
-0.387, -2.0052682e-9, -4.0537831e-9, 2.3799870e+2
-0.386, -2.0300699e-9, -4.0401922e-9, 2.3833203e+2
-0.385, -2.0763666e-9, -4.0387738e-9, 2.3866536e+2
-0.384, -2.1217184e-9, -4.0353467e-9, 2.3899869e+2
-0.383, -2.1778175e-9, -4.0385375e-9, 2.3933202e+2
-0.382, -2.2165554e-9, -4.0316830e-9, 2.3966534e+2
-0.381, -2.2345070e-9, -4.0230552e-9, 2.3999867e+2
-0.380, -2.2706470e-9, -4.0154919e-9, 2.4033200e+2
-0.379, -2.2992279e-9, -4.0081645e-9, 2.4066533e+2
-0.378, -2.3353675e-9, -4.0020187e-9, 2.4099866e+2
-0.377, -2.3759952e-9, -3.9965822e-9, 2.4133199e+2
-0.376, -2.4059934e-9, -3.9907913e-9, 2.4166531e+2
-0.375, -2.4430780e-9, -3.9841730e-9, 2.4199864e+2
-0.374, -2.4748479e-9, -3.9780272e-9, 2.4233197e+2
-0.373, -2.5067357e-9, -3.9725911e-9, 2.4266530e+2
-0.372, -2.5458280e-9, -3.9686912e-9, 2.4299863e+2
-0.371, -2.5718108e-9, -3.9649093e-9, 2.4333195e+2
-0.370, -2.6080684e-9, -3.9623091e-9, 2.4366528e+2
-0.369, -2.6457436e-9, -3.9545092e-9, 2.4399861e+2
-0.368, -2.6712541e-9, -3.9456451e-9, 2.4433194e+2
-0.367, -2.7111728e-9, -3.9430450e-9, 2.4466527e+2
-0.366, -2.7429425e-9, -3.9396180e-9, 2.4499860e+2
-0.365, -2.7742404e-9, -3.9367816e-9, 2.4533192e+2
-0.364, -2.8114426e-9, -3.9307544e-9, 2.4566525e+2
-0.363, -2.8374256e-9, -3.9269721e-9, 2.4599858e+2
-0.362, -2.8683687e-9, -3.9246082e-9, 2.4633191e+2
-0.361, -2.9006109e-9, -3.9168082e-9, 2.4666524e+2
-0.360, -2.9268299e-9, -3.9130263e-9, 2.4699857e+2
-0.359, -2.9632059e-9, -3.9111359e-9, 2.4733189e+2
-0.358, -2.9935585e-9, -3.9045176e-9, 2.4766522e+2
-0.357, -3.0232026e-9, -3.8986085e-9, 2.4799855e+2
-0.356, -3.0573344e-9, -3.8921075e-9, 2.4833188e+2
-0.355, -3.0814276e-9, -3.8861985e-9, 2.4866521e+2
-0.354, -3.1127247e-9, -3.8827714e-9, 2.4899854e+2
-0.353, -3.1483922e-9, -3.8768624e-9, 2.4933186e+2
-0.352, -3.1731937e-9, -3.8710715e-9, 2.4966519e+2
-0.351, -3.2079162e-9, -3.8696530e-9, 2.4999852e+2
-0.350, -3.2350802e-9, -3.8630348e-9, 2.5033185e+2
-0.349, -3.2603544e-9, -3.8554711e-9, 2.5066518e+2
-0.348, -3.2911793e-9, -3.8518073e-9, 2.5099850e+2
-0.347, -3.3144456e-9, -3.8475529e-9, 2.5133183e+2
-0.346, -3.3388936e-9, -3.8434163e-9, 2.5166516e+2
-0.345, -3.3540104e-9, -3.8349071e-9, 2.5199849e+2
-0.344, -3.3499949e-9, -3.8197796e-9, 2.5233182e+2
-0.343, -3.3542469e-9, -3.8031156e-9, 2.5266515e+2
-0.342, -3.4999863e-9, -3.8291161e-9, 2.5299847e+2
-0.341, -3.5169934e-9, -3.8383341e-9, 2.5333180e+2
-0.340, -3.5547865e-9, -3.8253347e-9, 2.5366513e+2
-0.339, -3.5486449e-9, -3.8105616e-9, 2.5399846e+2
-0.338, -3.5753362e-9, -3.8022887e-9, 2.5433179e+2
-0.337, -3.6021457e-9, -3.7995704e-9, 2.5466512e+2
-0.336, -3.5905718e-9, -3.7845611e-9, 2.5499844e+2
-0.335, -3.6832832e-9, -3.8008707e-9, 2.5533177e+2
-0.334, -3.6679295e-9, -3.7862158e-9, 2.5566510e+2
-0.333, -3.6891883e-9, -3.7778243e-9, 2.5599843e+2
-0.332, -3.7169423e-9, -3.7745154e-9, 2.5633176e+2
-0.331, -3.7373744e-9, -3.7637609e-9, 2.5666510e+2
-0.330, -3.7654830e-9, -3.7584420e-9, 2.5699844e+2
-0.329, -3.7939460e-9, -3.7584420e-9, 2.5733179e+2
-0.328, -3.8166217e-9, -3.7528878e-9, 2.5766513e+2
-0.327, -3.8474468e-9, -3.7465058e-9, 2.5799847e+2
-0.326, -3.8741383e-9, -3.7421333e-9, 2.5833182e+2
-0.325, -3.8991765e-9, -3.7359875e-9, 2.5866516e+2
-0.324, -3.9292929e-9, -3.7305510e-9, 2.5899850e+2
-0.323, -3.9454728e-9, -3.7275965e-9, 2.5933185e+2
-0.322, -3.9742902e-9, -3.7228689e-9, 2.5966519e+2
-0.321, -4.0040518e-9, -3.7162506e-9, 2.5999854e+2
-0.320, -4.0230668e-9, -3.7130603e-9, 2.6033188e+2
-0.319, -4.0530654e-9, -3.7096326e-9, 2.6066522e+2
-0.318, -4.0790482e-9, -3.7056145e-9, 2.6099857e+2
-0.317, -4.1021964e-9, -3.6998236e-9, 2.6133191e+2
-0.316, -4.1305408e-9, -3.6963959e-9, 2.6166525e+2
-0.315, -4.1514454e-9, -3.6916687e-9, 2.6199860e+2
-0.314, -4.1764832e-9, -3.6858778e-9, 2.6233194e+2
-0.313, -4.2035291e-9, -3.6819778e-9, 2.6266528e+2
-0.312, -4.2254964e-9, -3.6765413e-9, 2.6299863e+2
-0.311, -4.2526604e-9, -3.6677954e-9, 2.6333197e+2
-0.310, -4.2755719e-9, -3.6635410e-9, 2.6366531e+2
-0.309, -4.2994293e-9, -3.6575138e-9, 2.6399866e+2
-0.308, -4.3301362e-9, -3.6505410e-9, 2.6433200e+2
-0.307, -4.3542294e-9, -3.6467589e-9, 2.6466534e+2
-0.306, -4.3804480e-9, -3.6397863e-9, 2.6499869e+2
-0.305, -4.4063131e-9, -3.6345862e-9, 2.6533203e+2
-0.304, -4.4214303e-9, -3.6291496e-9, 2.6566537e+2
-0.303, -4.4511923e-9, -3.6239494e-9, 2.6599872e+2
-0.302, -4.4743405e-9, -3.6173311e-9, 2.6633206e+2
-0.301, -4.4955990e-9, -3.6107131e-9, 2.6666541e+2
-0.300, -4.5248889e-9, -3.6024403e-9, 2.6699875e+2
-0.299, -4.5429589e-9, -3.5949945e-9, 2.6733209e+2
-0.298, -4.5726023e-9, -3.5892036e-9, 2.6766544e+2
-0.297, -4.5911448e-9, -3.5799850e-9, 2.6799878e+2
-0.296, -4.6348432e-9, -3.5792760e-9, 2.6833212e+2
-0.295, -4.6583457e-9, -3.5704124e-9, 2.6866547e+2
-0.294, -4.6790141e-9, -3.5604850e-9, 2.6899881e+2
-0.293, -4.7027529e-9, -3.5519756e-9, 2.6933215e+2
-0.292, -4.7326330e-9, -3.5457119e-9, 2.6966550e+2
-0.291, -4.7511755e-9, -3.5386212e-9, 2.6999884e+2
-0.290, -4.7796385e-9, -3.5303482e-9, 2.7033218e+2
-0.289, -4.8088098e-9, -3.5220753e-9, 2.7066553e+2
-0.288, -4.8330207e-9, -3.5130934e-9, 2.7099887e+2
-0.287, -4.8643183e-9, -3.5055299e-9, 2.7133221e+2
-0.286, -4.8917181e-9, -3.4974934e-9, 2.7166556e+2
-0.285, -4.9155751e-9, -3.4852021e-9, 2.7199890e+2
-0.284, -4.9480535e-9, -3.4785836e-9, 2.7233224e+2
-0.283, -4.9714379e-9, -3.4736201e-9, 2.7266559e+2
-0.282, -5.0004916e-9, -3.4658199e-9, 2.7299893e+2
-0.281, -5.0336788e-9, -3.4580196e-9, 2.7333228e+2
-0.280, -5.0589528e-9, -3.4488015e-9, 2.7366562e+2
-0.279, -5.0908411e-9, -3.4400556e-9, 2.7399896e+2
-0.278, -5.1201301e-9, -3.4290650e-9, 2.7433231e+2
-0.277, -5.1482396e-9, -3.4212646e-9, 2.7466565e+2
-0.276, -5.1834341e-9, -3.4083829e-9, 2.7499899e+2
-0.275, -5.2102438e-9, -3.3965644e-9, 2.7533234e+2
-0.274, -5.2430766e-9, -3.3847458e-9, 2.7566568e+2
-0.273, -5.2785074e-9, -3.3741094e-9, 2.7599902e+2
-0.272, -5.3018918e-9, -3.3641823e-9, 2.7633237e+2
-0.271, -5.3377951e-9, -3.3559091e-9, 2.7666571e+2
-0.270, -5.3713367e-9, -3.3463363e-9, 2.7699905e+2
-0.269, -5.4049960e-9, -3.3348724e-9, 2.7733240e+2
-0.268, -5.4417266e-9, -3.3218723e-9, 2.7766574e+2
-0.267, -5.4703078e-9, -3.3135996e-9, 2.7799908e+2
-0.266, -5.5026677e-9, -3.3010721e-9, 2.7833243e+2
-0.265, -5.5391616e-9, -3.2873628e-9, 2.7866577e+2
-0.264, -5.5670339e-9, -3.2735357e-9, 2.7899911e+2
-0.263, -5.6073080e-9, -3.2620713e-9, 2.7933246e+2
-0.262, -5.6447464e-9, -3.2458805e-9, 2.7966580e+2
-0.261, -5.6805316e-9, -3.2319349e-9, 2.7999915e+2
-0.260, -5.7204508e-9, -3.2190528e-9, 2.8033249e+2
-0.259, -5.7513936e-9, -3.2062888e-9, 2.8066583e+2
-0.258, -5.7902501e-9, -3.1911616e-9, 2.8099918e+2
-0.257, -5.8304055e-9, -3.1786342e-9, 2.8133252e+2
-0.256, -5.8641825e-9, -3.1651608e-9, 2.8166586e+2
-0.255, -5.9062275e-9, -3.1506244e-9, 2.8199921e+2
-0.254, -5.9430758e-9, -3.1333696e-9, 2.8233255e+2
-0.253, -5.9776801e-9, -3.1159968e-9, 2.8266589e+2
-0.252, -6.0207879e-9, -3.0970873e-9, 2.8299924e+2
-0.251, -6.0543295e-9, -3.0830234e-9, 2.8333258e+2
-0.250, -6.0937757e-9, -3.0693139e-9, 2.8366592e+2
-0.249, -6.1323959e-9, -3.0535956e-9, 2.8399927e+2
-0.248, -6.1660552e-9, -3.0394138e-9, 2.8433261e+2
-0.247, -6.2057381e-9, -3.0197953e-9, 2.8466595e+2
-0.246, -6.2380985e-9, -3.0047858e-9, 2.8499930e+2
-0.245, -6.2736474e-9, -2.9883582e-9, 2.8533264e+2
-0.244, -6.3142753e-9, -2.9718126e-9, 2.8566599e+2
-0.243, -6.3440377e-9, -2.9550304e-9, 2.8599933e+2
-0.242, -6.3818297e-9, -2.9416758e-9, 2.8633267e+2
-0.241, -6.4195058e-9, -2.9259575e-9, 2.8666602e+2
-0.240, -6.4469057e-9, -2.9123663e-9, 2.8699936e+2
-0.239, -6.4871788e-9, -2.8987752e-9, 2.8733270e+2
-0.238, -6.5230825e-9, -2.8847114e-9, 2.8766605e+2
-0.237, -6.5562697e-9, -2.8682841e-9, 2.8799939e+2
-0.236, -6.5915824e-9, -2.8565836e-9, 2.8833273e+2
-0.235, -6.6170931e-9, -2.8453562e-9, 2.8866608e+2
-0.234, -6.6496888e-9, -2.8334197e-9, 2.8899942e+2
-0.233, -6.6801600e-9, -2.8214830e-9, 2.8933276e+2
-0.232, -6.7036621e-9, -2.8073011e-9, 2.8966611e+2
-0.231, -6.7337789e-9, -2.7939464e-9, 2.8999945e+2
-0.230, -6.7598798e-9, -2.7827189e-9, 2.9033279e+2
-0.229, -6.7866894e-9, -2.7727916e-9, 2.9066614e+2
-0.228, -6.8175146e-9, -2.7628639e-9, 2.9099948e+2
-0.227, -6.8354669e-9, -2.7515183e-9, 2.9133282e+2
-0.226, -6.8638109e-9, -2.7433638e-9, 2.9166617e+2
-0.225, -6.8926282e-9, -2.7347367e-9, 2.9199951e+2
-0.224, -6.9149504e-9, -2.7259910e-9, 2.9233286e+2
-0.223, -6.9411690e-9, -2.7152360e-9, 2.9266620e+2
-0.222, -6.9651440e-9, -2.7037723e-9, 2.9299954e+2
-0.221, -6.9846302e-9, -2.6928992e-9, 2.9333289e+2
-0.220, -7.0112045e-9, -2.6849811e-9, 2.9366623e+2
-0.219, -7.0284472e-9, -2.6787175e-9, 2.9399957e+2
-0.218, -7.0506507e-9, -2.6698537e-9, 2.9433292e+2
-0.217, -7.0741537e-9, -2.6634717e-9, 2.9466626e+2
-0.216, -7.0910424e-9, -2.6559079e-9, 2.9499960e+2
-0.215, -7.1161979e-9, -2.6492897e-9, 2.9533295e+2
-0.214, -7.1317876e-9, -2.6429079e-9, 2.9566629e+2
-0.213, -7.1513937e-9, -2.6356985e-9, 2.9599963e+2
-0.212, -7.1744233e-9, -2.6312077e-9, 2.9633298e+2
-0.211, -7.1913124e-9, -2.6242348e-9, 2.9666632e+2
-0.210, -7.2096187e-9, -2.6159621e-9, 2.9699966e+2
-0.209, -7.2291049e-9, -2.6105256e-9, 2.9733301e+2
-0.208, -7.2417423e-9, -2.6076892e-9, 2.9766635e+2
-0.207, -7.2624102e-9, -2.5996525e-9, 2.9799969e+2
-0.206, -7.2781186e-9, -2.5911433e-9, 2.9833304e+2
-0.205, -7.2996134e-9, -2.5890161e-9, 2.9866638e+2
-0.204, -7.3176833e-9, -2.5851159e-9, 2.9899973e+2
-0.203, -7.3259496e-9, -2.5797979e-9, 2.9933307e+2
-0.202, -7.3416575e-9, -2.5735341e-9, 2.9966641e+2
-0.201, -7.3590192e-9, -2.5688067e-9, 2.9999976e+2
-0.200, -7.3683495e-9, -2.5638429e-9, 3.0033310e+2
-0.199, -7.3876003e-9, -2.5556883e-9, 3.0066644e+2
-0.198, -7.4016544e-9, -2.5509610e-9, 3.0099979e+2
-0.197, -7.4148820e-9, -2.5462334e-9, 3.0133313e+2
-0.196, -7.4335427e-9, -2.5425699e-9, 3.0166647e+2
-0.195, -7.4421638e-9, -2.5384335e-9, 3.0199982e+2
-0.194, -7.4585804e-9, -2.5329969e-9, 3.0233316e+2
-0.193, -7.4738162e-9, -2.5294518e-9, 3.0266650e+2
-0.192, -7.4823197e-9, -2.5251969e-9, 3.0299985e+2
-0.191, -7.5044051e-9, -2.5202331e-9, 3.0333319e+2
-0.190, -7.5163324e-9, -2.5171605e-9, 3.0366653e+2
-0.189, -7.5282616e-9, -2.5150331e-9, 3.0399988e+2
-0.188, -7.5425524e-9, -2.5129059e-9, 3.0433322e+2
-0.187, -7.5522362e-9, -2.5117239e-9, 3.0466656e+2
-0.186, -7.5708968e-9, -2.5066420e-9, 3.0499991e+2
-0.185, -7.5858955e-9, -2.5009694e-9, 3.0533325e+2
-0.184, -7.5932185e-9, -2.4995512e-9, 3.0566660e+2
-0.183, -7.6008950e-9, -2.4955329e-9, 3.0599994e+2
-0.182, -7.6273503e-9, -2.5002602e-9, 3.0633328e+2
-0.181, -7.6344362e-9, -2.4969511e-9, 3.0666663e+2
-0.180, -7.6523881e-9, -2.4912783e-9, 3.0699997e+2
-0.179, -7.6564035e-9, -2.4893874e-9, 3.0733331e+2
-0.178, -7.6722291e-9, -2.4856055e-9, 3.0766666e+2
-0.177, -7.6852213e-9, -2.4757962e-9, 3.0800000e+2
-0.176, -7.6921891e-9, -2.4721325e-9, 3.0833334e+2
-0.175, -7.7073059e-9, -2.4731963e-9, 3.0866669e+2
-0.174, -7.7202982e-9, -2.4743778e-9, 3.0900003e+2
-0.173, -7.7282110e-9, -2.4703597e-9, 3.0933337e+2
-0.172, -7.7447453e-9, -2.4670506e-9, 3.0966672e+2
-0.171, -7.7505318e-9, -2.4646869e-9, 3.1000006e+2
-0.170, -7.7596267e-9, -2.4610234e-9, 3.1033340e+2
-0.169, -7.7712006e-9, -2.4577140e-9, 3.1066675e+2
-0.168, -7.7789952e-9, -2.4560596e-9, 3.1100009e+2
-0.167, -7.7934041e-9, -2.4540505e-9, 3.1133344e+2
-0.166, -7.8023801e-9, -2.4512141e-9, 3.1166678e+2
-0.165, -7.8111198e-9, -2.4477869e-9, 3.1200012e+2
-0.164, -7.8226936e-9, -2.4445956e-9, 3.1233347e+2
-0.163, -7.8257640e-9, -2.4423503e-9, 3.1266681e+2
-0.162, -7.8388736e-9, -2.4396321e-9, 3.1300015e+2
-0.161, -7.8508018e-9, -2.4390412e-9, 3.1333350e+2
-0.160, -7.8555260e-9, -2.4332500e-9, 3.1366684e+2
-0.159, -7.8717068e-9, -2.4320683e-9, 3.1400018e+2
-0.158, -7.8789109e-9, -2.4287592e-9, 3.1433353e+2
-0.157, -7.8845801e-9, -2.4280502e-9, 3.1466687e+2
-0.156, -7.8970990e-9, -2.4259226e-9, 3.1500021e+2
-0.155, -7.8995788e-9, -2.4234408e-9, 3.1533356e+2
-0.154, -7.9132789e-9, -2.4227318e-9, 3.1566690e+2
-0.153, -7.9263884e-9, -2.4206046e-9, 3.1600024e+2
-0.152, -7.9292226e-9, -2.4193045e-9, 3.1633359e+2
-0.151, -7.9435134e-9, -2.4154043e-9, 3.1666693e+2
-0.150, -7.9497724e-9, -2.4116227e-9, 3.1700027e+2
-0.149, -7.9578033e-9, -2.4072497e-9, 3.1733362e+2
-0.148, -7.9712681e-9, -2.4061861e-9, 3.1766696e+2
-0.147, -7.9775271e-9, -2.4041771e-9, 3.1800031e+2
-0.146, -7.9896925e-9, -2.4007496e-9, 3.1833365e+2
-0.145, -8.0000850e-9, -2.3953133e-9, 3.1866699e+2
-0.144, -8.0012663e-9, -2.3925950e-9, 3.1900034e+2
-0.143, -8.0159106e-9, -2.3873949e-9, 3.1933368e+2
-0.142, -8.0231155e-9, -2.3852675e-9, 3.1966702e+2
-0.141, -8.0303195e-9, -2.3850313e-9, 3.2000037e+2
-0.140, -8.0450819e-9, -2.3827857e-9, 3.2033371e+2
-0.139, -8.0481533e-9, -2.3781765e-9, 3.2066705e+2
-0.138, -8.0567739e-9, -2.3727402e-9, 3.2100040e+2
-0.137, -8.0664595e-9, -2.3681310e-9, 3.2133374e+2
-0.136, -8.0697662e-9, -2.3648217e-9, 3.2166708e+2
-0.135, -8.0848839e-9, -2.3631674e-9, 3.2200043e+2
-0.134, -8.0937408e-9, -2.3577309e-9, 3.2233377e+2
-0.133, -8.1018907e-9, -2.3543036e-9, 3.2266711e+2
-0.132, -8.1138190e-9, -2.3500490e-9, 3.2300046e+2
-0.131, -8.1133464e-9, -2.3453215e-9, 3.2333380e+2
-0.130, -8.1257472e-9, -2.3420124e-9, 3.2366714e+2
-0.129, -8.1377936e-9, -2.3401214e-9, 3.2400049e+2
-0.128, -8.1389748e-9, -2.3362214e-9, 3.2433383e+2
-0.127, -8.1571621e-9, -2.3350395e-9, 3.2466718e+2
-0.126, -8.1676736e-9, -2.3337396e-9, 3.2500052e+2
-0.125, -8.1723979e-9, -2.3294850e-9, 3.2533386e+2
-0.124, -8.1885778e-9, -2.3270033e-9, 3.2566721e+2
-0.123, -8.1951921e-9, -2.3248756e-9, 3.2600055e+2
-0.122, -8.2108995e-9, -2.3254667e-9, 3.2633389e+2
-0.121, -8.2238918e-9, -2.3207394e-9, 3.2666724e+2
-0.120, -8.2302680e-9, -2.3169575e-9, 3.2700058e+2
-0.119, -8.2433784e-9, -2.3141211e-9, 3.2733392e+2
-0.118, -8.2496374e-9, -2.3121121e-9, 3.2766727e+2
-0.117, -8.2639282e-9, -2.3130573e-9, 3.2800061e+2
-0.116, -8.2808178e-9, -2.3091575e-9, 3.2833395e+2
-0.115, -8.2862499e-9, -2.3063211e-9, 3.2866730e+2
-0.114, -8.3011304e-9, -2.3039572e-9, 3.2900064e+2
-0.113, -8.3151859e-9, -2.3017117e-9, 3.2933398e+2
-0.112, -8.3202627e-9, -2.2987572e-9, 3.2966733e+2
-0.111, -8.3372704e-9, -2.2954481e-9, 3.3000067e+2
-0.110, -8.3483718e-9, -2.2913118e-9, 3.3033401e+2
-0.109, -8.3614822e-9, -2.2885935e-9, 3.3066736e+2
-0.108, -8.3790788e-9, -2.2856388e-9, 3.3100070e+2
-0.107, -8.3862837e-9, -2.2855207e-9, 3.3133405e+2
-0.106, -8.4035268e-9, -2.2813844e-9, 3.3166739e+2
-0.105, -8.4195895e-9, -2.2787843e-9, 3.3200073e+2
-0.104, -8.4284473e-9, -2.2763023e-9, 3.3233408e+2
-0.103, -8.4513587e-9, -2.2738205e-9, 3.3266742e+2
-0.102, -8.4719085e-9, -2.2677933e-9, 3.3300076e+2
-0.101, -8.4815932e-9, -2.2647204e-9, 3.3333411e+2
-0.100, -8.5026155e-9, -2.2624749e-9, 3.3366745e+2
-0.099, -8.5087573e-9, -2.2610567e-9, 3.3400079e+2
-0.098, -8.5262366e-9, -2.2590476e-9, 3.3433414e+2
-0.097, -8.5448963e-9, -2.2546749e-9, 3.3466748e+2
-0.096, -8.5569436e-9, -2.2518383e-9, 3.3500082e+2
-0.095, -8.5761940e-9, -2.2473474e-9, 3.3533417e+2
-0.094, -8.5920204e-9, -2.2443929e-9, 3.3566751e+2
-0.093, -8.6065466e-9, -2.2388382e-9, 3.3600085e+2
-0.092, -8.6272145e-9, -2.2351745e-9, 3.3633420e+2
-0.091, -8.6397334e-9, -2.2335198e-9, 3.3666754e+2
-0.090, -8.6602840e-9, -2.2317472e-9, 3.3700089e+2
-0.089, -8.6795344e-9, -2.2287927e-9, 3.3733423e+2
-0.088, -8.6940615e-9, -2.2252471e-9, 3.3766757e+2
-0.087, -8.7209893e-9, -2.2205198e-9, 3.3800092e+2
-0.086, -8.7383505e-9, -2.2178015e-9, 3.3833426e+2
-0.085, -8.7600807e-9, -2.2163835e-9, 3.3866760e+2
-0.084, -8.7850003e-9, -2.2135471e-9, 3.3900095e+2
-0.083, -8.8040153e-9, -2.2104740e-9, 3.3933429e+2
-0.082, -8.8305896e-9, -2.2075195e-9, 3.3966763e+2
-0.081, -8.8583434e-9, -2.2033830e-9, 3.4000098e+2
-0.080, -8.8720435e-9, -2.2020832e-9, 3.4033432e+2
-0.079, -8.9032230e-9, -2.1980648e-9, 3.4066766e+2
-0.078, -8.9258982e-9, -2.1940467e-9, 3.4100101e+2
-0.077, -8.9489278e-9, -2.1927467e-9, 3.4133435e+2
-0.076, -8.9790451e-9, -2.1894375e-9, 3.4166769e+2
-0.075, -9.0040828e-9, -2.1876647e-9, 3.4200104e+2
-0.074, -9.0319556e-9, -2.1845921e-9, 3.4233438e+2
-0.073, -9.0628989e-9, -2.1797466e-9, 3.4266772e+2
-0.072, -9.0851024e-9, -2.1763191e-9, 3.4300107e+2
-0.071, -9.1201793e-9, -2.1740736e-9, 3.4333441e+2
-0.070, -9.1515941e-9, -2.1725373e-9, 3.4366776e+2
-0.069, -9.1787582e-9, -2.1686373e-9, 3.4400110e+2
-0.068, -9.2122994e-9, -2.1655644e-9, 3.4433444e+2
-0.067, -9.2339132e-9, -2.1620188e-9, 3.4466779e+2
-0.066, -9.2668628e-9, -2.1595370e-9, 3.4500113e+2
-0.065, -9.3012318e-9, -2.1595370e-9, 3.4533447e+2
-0.064, -9.3294581e-9, -2.1558733e-9, 3.4566782e+2
-0.063, -9.3652437e-9, -2.1516187e-9, 3.4600116e+2
-0.062, -9.3985495e-9, -2.1523279e-9, 3.4633450e+2
-0.061, -9.4270121e-9, -2.1489004e-9, 3.4666785e+2
-0.060, -9.4674029e-9, -2.1466551e-9, 3.4700119e+2
-0.059, -9.4974020e-9, -2.1444095e-9, 3.4733453e+2
-0.058, -9.5344861e-9, -2.1407458e-9, 3.4766788e+2
-0.057, -9.5740509e-9, -2.1372004e-9, 3.4800122e+2
-0.056, -9.6040491e-9, -2.1328277e-9, 3.4833456e+2
-0.055, -9.6444408e-9, -2.1299913e-9, 3.4866791e+2
-0.054, -9.6812887e-9, -2.1295186e-9, 3.4900125e+2
-0.053, -9.7175468e-9, -2.1273912e-9, 3.4933459e+2
-0.052, -9.7599457e-9, -2.1247910e-9, 3.4966794e+2
-0.051, -9.7927790e-9, -2.1226638e-9, 3.5000128e+2
-0.050, -9.8352952e-9, -2.1190001e-9, 3.5033463e+2
-0.049, -9.8787574e-9, -2.1156910e-9, 3.5066797e+2
-0.048, -9.9125357e-9, -2.1155728e-9, 3.5100131e+2
-0.047, -9.9564694e-9, -2.1128546e-9, 3.5133466e+2
-0.046, -9.9936726e-9, -2.1099000e-9, 3.5166800e+2
-0.045, -1.0035009e-8, -2.1099000e-9, 3.5200134e+2
-0.044, -1.0079770e-8, -2.1068272e-9, 3.5233469e+2
-0.043, -1.0117445e-8, -2.1056452e-9, 3.5266803e+2
-0.042, -1.0163859e-8, -2.1048179e-9, 3.5300137e+2
-0.041, -1.0209684e-8, -2.1019815e-9, 3.5333472e+2
-0.040, -1.0246059e-8, -2.0980817e-9, 3.5366806e+2
-0.039, -1.0283144e-8, -2.0965454e-9, 3.5400140e+2
-0.038, -1.0332984e-8, -2.0935906e-9, 3.5433475e+2
-0.037, -1.0378099e-8, -2.0874451e-9, 3.5466809e+2
-0.036, -1.0428057e-8, -2.0846085e-9, 3.5500143e+2
-0.035, -1.0465614e-8, -2.0842541e-9, 3.5533478e+2
-0.034, -1.0510730e-8, -2.0833086e-9, 3.5566812e+2
-0.033, -1.0557144e-8, -2.0848452e-9, 3.5600146e+2
-0.032, -1.0599189e-8, -2.0836632e-9, 3.5633481e+2
-0.031, -1.0645604e-8, -2.0835451e-9, 3.5666815e+2
-0.030, -1.0691664e-8, -2.0792905e-9, 3.5700150e+2
-0.029, -1.0736780e-8, -2.0778723e-9, 3.5733484e+2
-0.028, -1.0786501e-8, -2.0771633e-9, 3.5766818e+2
-0.027, -1.0826775e-8, -2.0755084e-9, 3.5800153e+2
-0.026, -1.0871654e-8, -2.0752722e-9, 3.5833487e+2
-0.025, -1.0921730e-8, -2.0751540e-9, 3.5866821e+2
-0.024, -1.0964247e-8, -2.0733810e-9, 3.5900156e+2
-0.023, -1.1011843e-8, -2.0678266e-9, 3.5933490e+2
-0.022, -1.1055778e-8, -2.0668813e-9, 3.5966824e+2
-0.021, -1.1099358e-8, -2.0646356e-9, 3.6000159e+2
-0.020, -1.1146363e-8, -2.0616810e-9, 3.6033493e+2
-0.019, -1.1190061e-8, -2.0612081e-9, 3.6066827e+2
-0.018, -1.1233287e-8, -2.0587263e-9, 3.6100162e+2
-0.017, -1.1279703e-8, -2.0548263e-9, 3.6133496e+2
-0.016, -1.1318794e-8, -2.0555355e-9, 3.6166830e+2
-0.015, -1.1365445e-8, -2.0529356e-9, 3.6200165e+2
-0.014, -1.1407726e-8, -2.0512809e-9, 3.6233499e+2
-0.013, -1.1444102e-8, -2.0518718e-9, 3.6266833e+2
-0.012, -1.1492997e-8, -2.0517537e-9, 3.6300168e+2
-0.011, -1.1528192e-8, -2.0499809e-9, 3.6333502e+2
-0.010, -1.1568938e-8, -2.0489173e-9, 3.6366837e+2
-0.009, -1.1607676e-8, -2.0470263e-9, 3.6400171e+2
-0.008, -1.1642398e-8, -2.0460809e-9, 3.6433505e+2
-0.007, -1.1682671e-8, -2.0439535e-9, 3.6466840e+2
-0.006, -1.1720465e-8, -2.0414717e-9, 3.6500174e+2
-0.005, -1.1752706e-8, -2.0396989e-9, 3.6533508e+2
-0.004, -1.1790854e-8, -2.0379263e-9, 3.6566843e+2
-0.003, -1.1818136e-8, -2.0352078e-9, 3.6600177e+2
-0.002, -1.1853449e-8, -2.0316626e-9, 3.6633511e+2
-0.001, -1.1886164e-8, -2.0285895e-9, 3.6666846e+2
-0.000, -1.1936829e-8, -2.0331989e-9, 3.6700180e+2
0.001, -1.1959624e-8, -2.0295352e-9, 3.6733514e+2
0.002, -1.1986198e-8, -2.0279987e-9, 3.6766849e+2
0.003, -1.2007574e-8, -2.0262261e-9, 3.6800183e+2
0.004, -1.2035446e-8, -2.0232716e-9, 3.6833517e+2
0.005, -1.2053752e-8, -2.0179531e-9, 3.6866852e+2
0.006, -1.2080680e-8, -2.0170079e-9, 3.6900186e+2
0.007, -1.2107253e-8, -2.0175985e-9, 3.6933521e+2
0.008, -1.2119654e-8, -2.0135804e-9, 3.6966855e+2
0.009, -1.2145400e-8, -2.0092075e-9, 3.7000189e+2
0.010, -1.2159100e-8, -2.0053075e-9, 3.7033524e+2
0.011, -1.2179179e-8, -2.0024711e-9, 3.7066858e+2
0.012, -1.2202444e-8, -2.0019983e-9, 3.7100192e+2
0.013, -1.2210712e-8, -1.9990438e-9, 3.7133527e+2
0.014, -1.2232088e-8, -1.9973891e-9, 3.7166861e+2
0.015, -1.2254292e-8, -1.9976256e-9, 3.7200195e+2
0.016, -1.2264095e-8, -1.9944346e-9, 3.7233530e+2
0.017, -1.2289606e-8, -1.9940800e-9, 3.7266864e+2
0.018, -1.2307793e-8, -1.9941981e-9, 3.7300198e+2
0.019, -1.2327516e-8, -1.9918345e-9, 3.7333533e+2
0.020, -1.2349247e-8, -1.9900619e-9, 3.7366867e+2
0.021, -1.2363539e-8, -1.9881710e-9, 3.7400201e+2
0.022, -1.2383497e-8, -1.9863979e-9, 3.7433536e+2
0.023, -1.2406645e-8, -1.9843889e-9, 3.7466870e+2
0.024, -1.2421054e-8, -1.9826163e-9, 3.7500204e+2
0.025, -1.2441841e-8, -1.9797799e-9, 3.7533539e+2
0.026, -1.2459438e-8, -1.9767070e-9, 3.7566873e+2
0.027, -1.2475854e-8, -1.9715072e-9, 3.7600208e+2
0.028, -1.2506916e-8, -1.9729252e-9, 3.7633542e+2
0.029, -1.2517781e-8, -1.9684341e-9, 3.7666876e+2
0.030, -1.2544238e-8, -1.9659523e-9, 3.7700211e+2
0.031, -1.2568919e-8, -1.9652433e-9, 3.7733545e+2
0.032, -1.2583919e-8, -1.9626432e-9, 3.7766879e+2
0.033, -1.2617225e-8, -1.9624069e-9, 3.7800214e+2
0.034, -1.2645096e-8, -1.9631161e-9, 3.7833548e+2
0.035, -1.2657971e-8, -1.9568525e-9, 3.7866882e+2
0.036, -1.2682064e-8, -1.9512976e-9, 3.7900217e+2
0.037, -1.2688441e-8, -1.9414883e-9, 3.7933551e+2
0.038, -1.2767217e-8, -1.9527158e-9, 3.7966885e+2
0.039, -1.2785284e-8, -1.9516520e-9, 3.8000220e+2
0.040, -1.2814811e-8, -1.9501156e-9, 3.8033554e+2
0.041, -1.2847880e-8, -1.9476338e-9, 3.8066888e+2
0.042, -1.2879886e-8, -1.9463338e-9, 3.8100223e+2
0.043, -1.2911892e-8, -1.9446793e-9, 3.8133557e+2
0.044, -1.2946143e-8, -1.9405428e-9, 3.8166891e+2
0.045, -1.2972361e-8, -1.9380610e-9, 3.8200226e+2
0.046, -1.3008501e-8, -1.9341611e-9, 3.8233560e+2
0.047, -1.3066018e-8, -1.9398338e-9, 3.8266895e+2
0.048, -1.3097314e-8, -1.9390065e-9, 3.8300229e+2
0.049, -1.3139360e-8, -1.9390065e-9, 3.8333563e+2
0.050, -1.3175619e-8, -1.9327429e-9, 3.8366898e+2
0.051, -1.3196049e-8, -1.9250610e-9, 3.8400232e+2
0.052, -1.3288171e-8, -1.9365245e-9, 3.8433566e+2
0.053, -1.3312737e-8, -1.9335700e-9, 3.8466901e+2
0.054, -1.3341554e-8, -1.9232880e-9, 3.8500235e+2
0.055, -1.3395763e-8, -1.9243518e-9, 3.8533569e+2
0.056, -1.3431667e-8, -1.9189152e-9, 3.8566904e+2
0.057, -1.3505362e-8, -1.9243518e-9, 3.8600238e+2
0.058, -1.3541739e-8, -1.9199788e-9, 3.8633572e+2
0.059, -1.3582247e-8, -1.9164332e-9, 3.8666907e+2
0.060, -1.3640709e-8, -1.9170243e-9, 3.8700241e+2
0.061, -1.3686416e-8, -1.9151334e-9, 3.8733575e+2
0.062, -1.3743933e-8, -1.9080424e-9, 3.8766910e+2
0.063, -1.3802275e-8, -1.9067423e-9, 3.8800244e+2
0.064, -1.3845618e-8, -1.9066242e-9, 3.8833578e+2
0.065, -1.3904435e-8, -1.9087514e-9, 3.8866913e+2
0.066, -1.3964078e-8, -1.9043787e-9, 3.8900247e+2
0.067, -1.4018285e-8, -1.9036697e-9, 3.8933582e+2
0.068, -1.4082535e-8, -1.8988240e-9, 3.8966916e+2
0.069, -1.4137335e-8, -1.8981150e-9, 3.9000250e+2
0.070, -1.4202410e-8, -1.8991786e-9, 3.9033585e+2
0.071, -1.4267485e-8, -1.8992969e-9, 3.9066919e+2
0.072, -1.4328426e-8, -1.8975241e-9, 3.9100253e+2
0.073, -1.4397989e-8, -1.8946877e-9, 3.9133588e+2
0.074, -1.4460585e-8, -1.8932695e-9, 3.9166922e+2
0.075, -1.4528140e-8, -1.8935058e-9, 3.9200256e+2
0.076, -1.4605616e-8, -1.8894875e-9, 3.9233591e+2
0.077, -1.4663840e-8, -1.8834603e-9, 3.9266925e+2
0.078, -1.4740253e-8, -1.8825148e-9, 3.9300259e+2
0.079, -1.4814541e-8, -1.8768418e-9, 3.9333594e+2
0.080, -1.4879143e-8, -1.8758965e-9, 3.9366928e+2
0.081, -1.4959808e-8, -1.8754236e-9, 3.9400262e+2
0.082, -1.5032795e-8, -1.8731783e-9, 3.9433597e+2
0.083, -1.5107437e-8, -1.8716420e-9, 3.9466931e+2
0.084, -1.5187865e-8, -1.8688053e-9, 3.9500266e+2
0.085, -1.5258964e-8, -1.8656146e-9, 3.9533600e+2
0.086, -1.5337148e-8, -1.8658508e-9, 3.9566934e+2
0.087, -1.5421238e-8, -1.8633692e-9, 3.9600269e+2
0.088, -1.5493518e-8, -1.8621872e-9, 3.9633603e+2
0.089, -1.5579261e-8, -1.8607691e-9, 3.9666937e+2
0.090, -1.5658980e-8, -1.8576961e-9, 3.9700272e+2
0.091, -1.5738109e-8, -1.8546235e-9, 3.9733606e+2
0.092, -1.5823026e-8, -1.8527325e-9, 3.9766940e+2
0.093, -1.5896132e-8, -1.8494234e-9, 3.9800275e+2
0.094, -1.5980577e-8, -1.8477688e-9, 3.9833609e+2
0.095, -1.6065966e-8, -1.8456414e-9, 3.9866943e+2
0.096, -1.6146512e-8, -1.8448143e-9, 3.9900278e+2
0.097, -1.6231901e-8, -1.8442232e-9, 3.9933612e+2
0.098, -1.6314456e-8, -1.8413870e-9, 3.9966946e+2
0.099, -1.6390631e-8, -1.8358322e-9, 4.0000281e+2
