Dec. 15, 2005   01:27:59
Cyclic Voltammetry
File: d:\ida_biofilms\12_04_18_psoralenbiofilm\control\control_50um_pyo_transfer_gc.txt
Data Source:  Experiment
Instrument Model:  CHI760B
Header: 
Note: 

Init E (V) = 0.1
High E (V) = 0.1
Low E (V) = -0.5
Init P/N = N
Scan Rate (V/s) = 0.003
Segment = 2
Sample Interval (V) = 0.001
Quiet Time (sec) = 2
Sensitivity (A/V) = 1e-7
2nd E (V) = 0.1
Sens 2 (A/V) = 1e-7

Potential/V, i1/A, i2/A, Time/s

0.100, -9.2854279e-8, -8.9042651e-8, 3.3333334e-1
0.099, -8.4645372e-8, -8.3057365e-8, 6.6666669e-1
0.098, -7.7806000e-8, -7.7882227e-8, 1.0000000e+0
0.097, -7.1826300e-8, -7.3288668e-8, 1.3333334e+0
0.096, -6.6586161e-8, -6.9160990e-8, 1.6666667e+0
0.095, -6.1970447e-8, -6.5440801e-8, 2.0000000e+0
0.094, -5.7893278e-8, -6.2043860e-8, 2.3333333e+0
0.093, -5.4278363e-8, -5.8939882e-8, 2.6666665e+0
0.092, -5.1068074e-8, -5.6112224e-8, 2.9999998e+0
0.091, -4.8203468e-8, -5.3532510e-8, 3.3333330e+0
0.090, -4.5601059e-8, -5.1190945e-8, 3.6666663e+0
0.089, -4.3248320e-8, -4.9067538e-8, 3.9999995e+0
0.088, -4.1105917e-8, -4.7121056e-8, 4.3333330e+0
0.087, -3.9133116e-8, -4.5325610e-8, 4.6666665e+0
0.086, -3.7327201e-8, -4.3684512e-8, 5.0000000e+0
0.085, -3.5655088e-8, -4.2168100e-8, 5.3333335e+0
0.084, -3.4109586e-8, -4.0769869e-8, 5.6666670e+0
0.083, -3.2662228e-8, -3.9465004e-8, 6.0000005e+0
0.082, -3.1305571e-8, -3.8258115e-8, 6.3333340e+0
0.081, -3.0006905e-8, -3.7113509e-8, 6.6666675e+0
0.080, -2.8841342e-8, -3.6090746e-8, 7.0000010e+0
0.079, -2.7691133e-8, -3.5085360e-8, 7.3333344e+0
0.078, -2.6641665e-8, -3.4181728e-8, 7.6666679e+0
0.077, -2.5637549e-8, -3.3309295e-8, 8.0000010e+0
0.076, -2.4682681e-8, -3.2479413e-8, 8.3333340e+0
0.075, -2.3795133e-8, -3.1706254e-8, 8.6666670e+0
0.074, -2.2941952e-8, -3.0976942e-8, 9.0000000e+0
0.073, -2.2124205e-8, -3.0275171e-8, 9.3333330e+0
0.072, -2.1358538e-8, -2.9621614e-8, 9.6666660e+0
0.071, -2.0620982e-8, -2.8993943e-8, 9.9999990e+0
0.070, -1.9916023e-8, -2.8389314e-8, 1.0333332e+1
0.069, -1.9263265e-8, -2.7830426e-8, 1.0666665e+1
0.068, -1.8612512e-8, -2.7257235e-8, 1.0999998e+1
0.067, -1.8010185e-8, -2.6741601e-8, 1.1333331e+1
0.066, -1.7406558e-8, -2.6226676e-8, 1.1666664e+1
0.065, -1.6842849e-8, -2.5744248e-8, 1.1999997e+1
0.064, -1.6305007e-8, -2.5285223e-8, 1.2333330e+1
0.063, -1.5761493e-8, -2.4826553e-8, 1.2666663e+1
0.062, -1.5260500e-8, -2.4397075e-8, 1.2999996e+1
0.061, -1.4772141e-8, -2.3986741e-8, 1.3333329e+1
0.060, -1.4298309e-8, -2.3591653e-8, 1.3666662e+1
0.059, -1.3851288e-8, -2.3207319e-8, 1.3999995e+1
0.058, -1.3414423e-8, -2.2831852e-8, 1.4333328e+1
0.057, -1.2993975e-8, -2.2464537e-8, 1.4666661e+1
0.056, -1.2583092e-8, -2.2113650e-8, 1.4999994e+1
0.055, -1.2183076e-8, -2.1774344e-8, 1.5333327e+1
0.054, -1.1809987e-8, -2.1445439e-8, 1.5666660e+1
0.053, -1.1437251e-8, -2.1130715e-8, 1.5999993e+1
0.052, -1.1078808e-8, -2.0827812e-8, 1.6333326e+1
0.051, -1.0735481e-8, -2.0533180e-8, 1.6666660e+1
0.050, -1.0399476e-8, -2.0247885e-8, 1.6999994e+1
0.049, -1.0075991e-8, -1.9967199e-8, 1.7333328e+1
0.048, -9.7676223e-9, -1.9696559e-8, 1.7666662e+1
0.047, -9.4567740e-9, -1.9429818e-8, 1.7999996e+1
0.046, -9.1670653e-9, -1.9174188e-8, 1.8333330e+1
0.045, -8.8745233e-9, -1.8926238e-8, 1.8666664e+1
0.044, -8.5927283e-9, -1.8689516e-8, 1.8999998e+1
0.043, -8.3222709e-9, -1.8448423e-8, 1.9333332e+1
0.042, -8.0534672e-9, -1.8214893e-8, 1.9666666e+1
0.041, -7.7984819e-9, -1.7989160e-8, 2.0000000e+1
0.040, -7.5479853e-9, -1.7768985e-8, 2.0333334e+1
0.039, -7.2986688e-9, -1.7559328e-8, 2.0666668e+1
0.038, -7.0706099e-9, -1.7350262e-8, 2.1000002e+1
0.037, -6.8360566e-9, -1.7145569e-8, 2.1333336e+1
0.036, -6.6081167e-9, -1.6947020e-8, 2.1666670e+1
0.035, -6.3978924e-9, -1.6760289e-8, 2.2000004e+1
0.034, -6.1799916e-9, -1.6572022e-8, 2.2333338e+1
0.033, -5.9715388e-9, -1.6389665e-8, 2.2666672e+1
0.032, -5.7732432e-9, -1.6216053e-8, 2.3000006e+1
0.031, -5.5709317e-9, -1.6043742e-8, 2.3333340e+1
0.030, -5.3883435e-9, -1.5872967e-8, 2.3666674e+1
0.029, -5.2016218e-9, -1.5704082e-8, 2.4000008e+1
0.028, -5.0127746e-9, -1.5542408e-8, 2.4333342e+1
0.027, -4.8351465e-9, -1.5384868e-8, 2.4666676e+1
0.026, -4.6591726e-9, -1.5228395e-8, 2.5000010e+1
0.025, -4.4855604e-9, -1.5075818e-8, 2.5333344e+1
0.024, -4.3200976e-9, -1.4923952e-8, 2.5666677e+1
0.023, -4.1502646e-9, -1.4770197e-8, 2.6000011e+1
0.022, -3.9973203e-9, -1.4628140e-8, 2.6333345e+1
0.021, -3.8309125e-9, -1.4488093e-8, 2.6666679e+1
0.020, -3.6804482e-9, -1.4351118e-8, 2.7000013e+1
0.019, -3.5493539e-9, -1.4218278e-8, 2.7333347e+1
0.018, -3.3998349e-9, -1.4084022e-8, 2.7666681e+1
0.017, -3.2540948e-9, -1.3954729e-8, 2.8000015e+1
0.016, -3.1186302e-9, -1.3824963e-8, 2.8333349e+1
0.015, -2.9704101e-9, -1.3700753e-8, 2.8666683e+1
0.014, -2.8381342e-9, -1.3576779e-8, 2.9000017e+1
0.013, -2.7034961e-9, -1.3459422e-8, 2.9333351e+1
0.012, -2.5683857e-9, -1.3341949e-8, 2.9666685e+1
0.011, -2.4413063e-9, -1.3225891e-8, 3.0000019e+1
0.010, -2.3119830e-9, -1.3115388e-8, 3.0333353e+1
0.009, -2.1860846e-9, -1.3003823e-8, 3.0666687e+1
0.008, -2.0632571e-9, -1.2897222e-8, 3.1000021e+1
0.007, -1.9416104e-9, -1.2792748e-8, 3.1333355e+1
0.006, -1.8249240e-9, -1.2687683e-8, 3.1666689e+1
0.005, -1.7043404e-9, -1.2583918e-8, 3.2000023e+1
0.004, -1.5876541e-9, -1.2479917e-8, 3.2333355e+1
0.003, -1.4875022e-9, -1.2383242e-8, 3.2666687e+1
0.002, -1.3706980e-9, -1.2284913e-8, 3.3000019e+1
0.001, -1.2567281e-9, -1.2187884e-8, 3.3333351e+1
-0.000, -1.1294125e-9, -1.2084592e-8, 3.3666683e+1
-0.001, -1.0231193e-9, -1.1990046e-8, 3.4000015e+1
-0.002, -9.2851837e-10, -1.1896916e-8, 3.4333347e+1
-0.003, -8.2659501e-10, -1.1806979e-8, 3.4666679e+1
-0.004, -7.2325446e-10, -1.1717042e-8, 3.5000011e+1
-0.005, -6.3007072e-10, -1.1631240e-8, 3.5333344e+1
-0.006, -5.2531290e-10, -1.1542839e-8, 3.5666676e+1
-0.007, -4.2610598e-10, -1.1456446e-8, 3.6000008e+1
-0.008, -3.3209555e-10, -1.1374901e-8, 3.6333340e+1
-0.009, -2.3359720e-10, -1.1291226e-8, 3.6666672e+1
-0.010, -1.4903509e-10, -1.1213225e-8, 3.7000004e+1
-0.011, -5.2544503e-11, -1.1132387e-8, 3.7333336e+1
-0.012, 4.5835738e-11, -1.1050959e-8, 3.7666668e+1
-0.013, 1.3004355e-10, -1.0972013e-8, 3.8000000e+1
-0.014, 2.2204619e-10, -1.0895902e-8, 3.8333332e+1
-0.015, 3.1286781e-10, -1.0821329e-8, 3.8666664e+1
-0.016, 3.9837478e-10, -1.0748054e-8, 3.8999996e+1
-0.017, 4.9462912e-10, -1.0670053e-8, 3.9333328e+1
-0.018, 5.7564814e-10, -1.0599025e-8, 3.9666660e+1
-0.019, 6.6942235e-10, -1.0523387e-8, 3.9999992e+1
-0.020, 7.5611034e-10, -1.0456969e-8, 4.0333324e+1
-0.021, 8.2992502e-10, -1.0387122e-8, 4.0666656e+1
-0.022, 8.9901558e-10, -1.0352258e-8, 4.0999989e+1
-0.023, 9.7377517e-10, -1.0281229e-8, 4.1333321e+1
-0.024, 1.0612898e-9, -1.0214102e-8, 4.1666653e+1
-0.025, 1.1482141e-9, -1.0142246e-8, 4.1999985e+1
-0.026, 1.2199028e-9, -1.0077954e-8, 4.2333317e+1
-0.027, 1.3241883e-9, -9.9886073e-9, 4.2666649e+1
-0.028, 1.3748547e-9, -9.9636699e-9, 4.2999981e+1
-0.029, 1.4687470e-9, -9.8915791e-9, 4.3333313e+1
-0.030, 1.5227204e-9, -9.8537596e-9, 4.3666645e+1
-0.031, 1.5988970e-9, -9.7879314e-9, 4.3999977e+1
-0.032, 1.6712945e-9, -9.7270672e-9, 4.4333309e+1
-0.033, 1.7545575e-9, -9.6666746e-9, 4.4666641e+1
-0.034, 1.8254196e-9, -9.6095931e-9, 4.4999973e+1
-0.035, 1.8952189e-9, -9.5529815e-9, 4.5333305e+1
-0.036, 1.9695059e-9, -9.4974366e-9, 4.5666637e+1
-0.037, 2.0349353e-9, -9.4414165e-9, 4.5999969e+1
-0.038, 2.1056792e-9, -9.3859889e-9, 4.6333302e+1
-0.039, 2.1735889e-9, -9.3344603e-9, 4.6666634e+1
-0.040, 2.2407900e-9, -9.2806873e-9, 4.6999966e+1
-0.041, 2.3099984e-9, -9.2272687e-9, 4.7333298e+1
-0.042, 2.3651527e-9, -9.1721946e-9, 4.7666630e+1
-0.043, 2.4351883e-9, -9.1226768e-9, 4.7999962e+1
-0.044, 2.5054596e-9, -9.0720933e-9, 4.8333294e+1
-0.045, 2.5607321e-9, -9.0247019e-9, 4.8666626e+1
-0.046, 2.6258071e-9, -8.9754195e-9, 4.8999958e+1
-0.047, 2.6924176e-9, -8.9246006e-9, 4.9333290e+1
-0.048, 2.7465090e-9, -8.8769720e-9, 4.9666622e+1
-0.049, 2.8093401e-9, -8.8317078e-9, 4.9999954e+1
-0.050, 2.8662659e-9, -8.7860892e-9, 5.0333286e+1
-0.051, 2.9249634e-9, -8.7401162e-9, 5.0666618e+1
-0.052, 2.9854323e-9, -8.6916607e-9, 5.0999950e+1
-0.053, 3.0383429e-9, -8.6472234e-9, 5.1333282e+1
-0.054, 3.0971585e-9, -8.6070413e-9, 5.1666615e+1
-0.055, 3.1542027e-9, -8.5628402e-9, 5.1999947e+1
-0.056, 3.2048688e-9, -8.5166310e-9, 5.2333279e+1
-0.057, 3.2615588e-9, -8.4739664e-9, 5.2666611e+1
-0.058, 3.3091543e-9, -8.4305940e-9, 5.2999943e+1
-0.059, 3.3626553e-9, -8.3873388e-9, 5.3333275e+1
-0.060, 3.4163923e-9, -8.3450278e-9, 5.3666607e+1
-0.061, 3.4604448e-9, -8.3031910e-9, 5.3999939e+1
-0.062, 3.5137098e-9, -8.2660812e-9, 5.4333271e+1
-0.063, 3.5620138e-9, -8.2261353e-9, 5.4666603e+1
-0.064, 3.6081926e-9, -8.1868983e-9, 5.4999935e+1
-0.065, 3.6627561e-9, -8.1449434e-9, 5.5333267e+1
-0.066, 3.7059822e-9, -8.1039344e-9, 5.5666599e+1
-0.067, 3.7528691e-9, -8.0651690e-9, 5.5999931e+1
-0.068, 3.7988115e-9, -8.0295965e-9, 5.6333263e+1
-0.069, 3.8399111e-9, -7.9933136e-9, 5.6666595e+1
-0.070, 3.8880974e-9, -7.9559674e-9, 5.6999928e+1
-0.071, 3.9333310e-9, -7.9180307e-9, 5.7333260e+1
-0.072, 3.9779744e-9, -7.8802120e-9, 5.7666592e+1
-0.073, 4.0208459e-9, -7.8426305e-9, 5.7999924e+1
-0.074, 4.0537973e-9, -7.8033926e-9, 5.8333256e+1
-0.075, 4.0985579e-9, -7.7666371e-9, 5.8666588e+1
-0.076, 4.1428470e-9, -7.7337825e-9, 5.8999920e+1
-0.077, 4.1730819e-9, -7.7005735e-9, 5.9333252e+1
-0.078, 4.2163073e-9, -7.6646458e-9, 5.9666584e+1
-0.079, 4.2558721e-9, -7.6257622e-9, 5.9999916e+1
-0.080, 4.2884691e-9, -7.5918436e-9, 6.0333248e+1
-0.081, 4.3295687e-9, -7.5617077e-9, 6.0666580e+1
-0.082, 4.3619290e-9, -7.5289712e-9, 6.0999912e+1
-0.083, 4.3996042e-9, -7.4985982e-9, 6.1333244e+1
-0.084, 4.4390509e-9, -7.4639699e-9, 6.1666576e+1
-0.085, 4.4694031e-9, -7.4302875e-9, 6.1999908e+1
-0.086, 4.5035353e-9, -7.3984965e-9, 6.2333241e+1
-0.087, 4.5389661e-9, -7.3661135e-9, 6.2666573e+1
-0.088, 4.5708539e-9, -7.3362130e-9, 6.2999905e+1
-0.089, 4.6088839e-9, -7.3077313e-9, 6.3333237e+1
-0.090, 4.6330948e-9, -7.2777122e-9, 6.3666569e+1
-0.091, 4.6675810e-9, -7.2466309e-9, 6.3999901e+1
-0.092, 4.7025397e-9, -7.2169661e-9, 6.4333237e+1
-0.093, 4.7242708e-9, -7.1873023e-9, 6.4666573e+1
-0.094, 4.7581667e-9, -7.1584649e-9, 6.4999908e+1
-0.095, 4.7884012e-9, -7.1319923e-9, 6.5333244e+1
-0.096, 4.8176907e-9, -7.1057560e-9, 6.5666580e+1
-0.097, 4.8501692e-9, -7.0769186e-9, 6.5999916e+1
-0.098, 4.8731992e-9, -7.0487909e-9, 6.6333252e+1
-0.099, 4.9008353e-9, -7.0211361e-9, 6.6666588e+1
-0.100, 4.9320148e-9, -6.9926540e-9, 6.6999924e+1
-0.101, 4.9557536e-9, -6.9634623e-9, 6.7333260e+1
-0.102, 4.9902398e-9, -6.9359261e-9, 6.7666595e+1
-0.103, 5.0192934e-9, -6.9089792e-9, 6.7999931e+1
-0.104, 5.0400795e-9, -6.8835697e-9, 6.8333267e+1
-0.105, 5.0670073e-9, -6.8586337e-9, 6.8666603e+1
-0.106, 5.0863762e-9, -6.8336972e-9, 6.8999939e+1
-0.107, 5.1112958e-9, -6.8081691e-9, 6.9333275e+1
-0.108, 5.1398770e-9, -6.7835875e-9, 6.9666611e+1
-0.109, 5.1599542e-9, -6.7612498e-9, 6.9999947e+1
-0.110, 5.1849924e-9, -6.7366681e-9, 7.0333282e+1
-0.111, 5.2089675e-9, -6.7110228e-9, 7.0666618e+1
-0.112, 5.2272737e-9, -6.6876220e-9, 7.0999954e+1
-0.113, 5.2567994e-9, -6.6639858e-9, 7.1333290e+1
-0.114, 5.2790026e-9, -6.6373946e-9, 7.1666626e+1
-0.115, 5.3036864e-9, -6.6137567e-9, 7.1999962e+1
-0.116, 5.3296692e-9, -6.5879928e-9, 7.2333298e+1
-0.117, 5.3462035e-9, -6.5640018e-9, 7.2666634e+1
-0.118, 5.3706515e-9, -6.5390653e-9, 7.2999969e+1
-0.119, 5.3910831e-9, -6.5164918e-9, 7.3333305e+1
-0.120, 5.4124603e-9, -6.4928556e-9, 7.3666641e+1
-0.121, 5.4487175e-9, -6.4698100e-9, 7.3999977e+1
-0.122, 5.4554499e-9, -6.4464092e-9, 7.4333313e+1
-0.123, 5.4744644e-9, -6.4206453e-9, 7.4666649e+1
-0.124, 5.4951323e-9, -6.3986629e-9, 7.4999985e+1
-0.125, 5.5070610e-9, -6.3765633e-9, 7.5333321e+1
-0.126, 5.5305636e-9, -6.3555263e-9, 7.5666656e+1
-0.127, 5.5513496e-9, -6.3316525e-9, 7.5999992e+1
-0.128, 5.5684746e-9, -6.3097887e-9, 7.6333328e+1
-0.129, 5.5915046e-9, -6.2901706e-9, 7.6666664e+1
-0.130, 5.6036695e-9, -6.2675976e-9, 7.7000000e+1
-0.131, 5.6245737e-9, -6.2477428e-9, 7.7333336e+1
-0.132, 5.6445333e-9, -6.2269425e-9, 7.7666672e+1
-0.133, 5.6570522e-9, -6.2053149e-9, 7.8000008e+1
-0.134, 5.6789013e-9, -6.1833325e-9, 7.8333344e+1
-0.135, 5.6962626e-9, -6.1608776e-9, 7.8666679e+1
-0.136, 5.7107892e-9, -6.1431500e-9, 7.9000015e+1
-0.137, 5.7315757e-9, -6.1240044e-9, 7.9333351e+1
-0.138, 5.7418506e-9, -6.1043859e-9, 7.9666687e+1
-0.139, 5.7579128e-9, -6.0834675e-9, 8.0000023e+1
-0.140, 5.7798801e-9, -6.0657404e-9, 8.0333359e+1
-0.141, 5.7882654e-9, -6.0463581e-9, 8.0666695e+1
-0.142, 5.8078706e-9, -6.0279213e-9, 8.1000031e+1
-0.143, 5.8241683e-9, -6.0075940e-9, 8.1333366e+1
-0.144, 5.8383414e-9, -5.9864389e-9, 8.1666702e+1
-0.145, 5.8612533e-9, -5.9662293e-9, 8.2000038e+1
-0.146, 5.8702296e-9, -5.9486203e-9, 8.2333374e+1
-0.147, 5.8866458e-9, -5.9282925e-9, 8.2666710e+1
-0.148, 5.9047154e-9, -5.9100924e-9, 8.3000046e+1
-0.149, 5.9131007e-9, -5.8898828e-9, 8.3333382e+1
-0.150, 5.9305805e-9, -5.8712097e-9, 8.3666718e+1
-0.151, 5.9459335e-9, -5.8539551e-9, 8.4000053e+1
-0.152, 5.9629404e-9, -5.8368186e-9, 8.4333389e+1
-0.153, 5.9814824e-9, -5.8224003e-9, 8.4666725e+1
-0.154, 5.9904588e-9, -5.8051453e-9, 8.5000061e+1
-0.155, 6.0056942e-9, -5.7857634e-9, 8.5333397e+1
-0.156, 6.0225824e-9, -5.7679177e-9, 8.5666733e+1
-0.157, 6.0275429e-9, -5.7520806e-9, 8.6000069e+1
-0.158, 6.0469119e-9, -5.7354170e-9, 8.6333405e+1
-0.159, 6.0610845e-9, -5.7193441e-9, 8.6666740e+1
-0.160, 6.0791541e-9, -5.7020890e-9, 8.7000076e+1
-0.161, 6.0992318e-9, -5.6854255e-9, 8.7333412e+1
-0.162, 6.1072631e-9, -5.6688796e-9, 8.7666748e+1
-0.163, 6.1214354e-9, -5.6538707e-9, 8.8000084e+1
-0.164, 6.1411591e-9, -5.6388609e-9, 8.8333420e+1
-0.165, 6.1513155e-9, -5.6213700e-9, 8.8666756e+1
-0.166, 6.1680860e-9, -5.6009242e-9, 8.9000092e+1
-0.167, 6.1833219e-9, -5.5875695e-9, 8.9333427e+1
-0.168, 6.1969034e-9, -5.5709055e-9, 8.9666763e+1
-0.169, 6.2166272e-9, -5.5556595e-9, 9.0000099e+1
-0.170, 6.2226500e-9, -5.5431322e-9, 9.0333435e+1
-0.171, 6.2436727e-9, -5.5270593e-9, 9.0666771e+1
-0.172, 6.2610335e-9, -5.5105138e-9, 9.1000107e+1
-0.173, 6.2702457e-9, -5.4946772e-9, 9.1333443e+1
-0.174, 6.2896146e-9, -5.4787224e-9, 9.1666779e+1
-0.175, 6.3040235e-9, -5.4660769e-9, 9.2000114e+1
-0.176, 6.3164243e-9, -5.4517764e-9, 9.2333450e+1
-0.177, 6.3368568e-9, -5.4381850e-9, 9.2666786e+1
-0.178, 6.3498478e-9, -5.4219940e-9, 9.3000122e+1
-0.179, 6.3648464e-9, -5.4084031e-9, 9.3333458e+1
-0.180, 6.3843335e-9, -5.3922120e-9, 9.3666794e+1
-0.181, 6.3950814e-9, -5.3787388e-9, 9.4000130e+1
-0.182, 6.4152772e-9, -5.3657390e-9, 9.4333466e+1
-0.183, 6.4328747e-9, -5.3513203e-9, 9.4666801e+1
-0.184, 6.4496453e-9, -5.3377294e-9, 9.5000137e+1
-0.185, 6.4717303e-9, -5.3239018e-9, 9.5333473e+1
-0.186, 6.4868475e-9, -5.3098379e-9, 9.5666809e+1
-0.187, 6.5076335e-9, -5.2971925e-9, 9.6000145e+1
-0.188, 6.5281838e-9, -5.2863194e-9, 9.6333481e+1
-0.189, 6.5392851e-9, -5.2736739e-9, 9.6666817e+1
-0.190, 6.5611347e-9, -5.2622098e-9, 9.7000153e+1
-0.191, 6.5839285e-9, -5.2519282e-9, 9.7333488e+1
-0.192, 6.6027077e-9, -5.2385731e-9, 9.7666824e+1
-0.193, 6.6288077e-9, -5.2259277e-9, 9.8000160e+1
-0.194, 6.6432162e-9, -5.2165912e-9, 9.8333496e+1
-0.195, 6.6637664e-9, -5.2051274e-9, 9.8666832e+1
-0.196, 6.6889227e-9, -5.1922453e-9, 9.9000168e+1
-0.197, 6.7062840e-9, -5.1795999e-9, 9.9333504e+1
-0.198, 6.7308492e-9, -5.1668358e-9, 9.9666840e+1
-0.199, 6.7554149e-9, -5.1554898e-9, 1.0000018e+2
-0.200, 6.7746662e-9, -5.1431992e-9, 1.0033351e+2
-0.201, 6.8017116e-9, -5.1305538e-9, 1.0066685e+2
-0.202, 6.8201356e-9, -5.1209805e-9, 1.0100018e+2
-0.203, 6.8496622e-9, -5.1105804e-9, 1.0133352e+2
-0.204, 6.8804868e-9, -5.0982893e-9, 1.0166685e+2
-0.205, 6.9155632e-9, -5.0864708e-9, 1.0200019e+2
-0.206, 6.9570176e-9, -5.0533795e-9, 1.0233353e+2
-0.207, 6.9749690e-9, -5.0427436e-9, 1.0266686e+2
-0.208, 6.9783948e-9, -5.0417976e-9, 1.0300020e+2
-0.209, 7.0255175e-9, -5.0092974e-9, 1.0333353e+2
-0.210, 6.9795760e-9, -5.1051443e-9, 1.0366687e+2
-0.211, 7.0429973e-9, -5.0650799e-9, 1.0400021e+2
-0.212, 7.0831523e-9, -5.0384887e-9, 1.0433354e+2
-0.213, 7.1067729e-9, -5.0201701e-9, 1.0466688e+2
-0.214, 7.1381892e-9, -5.0069331e-9, 1.0500021e+2
-0.215, 7.1631083e-9, -5.0020876e-9, 1.0533355e+2
-0.216, 7.1914532e-9, -4.9974789e-9, 1.0566689e+2
-0.217, 7.2287740e-9, -4.9854241e-9, 1.0600022e+2
-0.218, 7.2540485e-9, -4.9763242e-9, 1.0633356e+2
-0.219, 7.2920776e-9, -4.9626148e-9, 1.0666689e+2
-0.220, 7.3343585e-9, -4.9484328e-9, 1.0700023e+2
-0.221, 7.3403821e-9, -4.9621423e-9, 1.0733356e+2
-0.222, 7.4085280e-9, -4.9263322e-9, 1.0766690e+2
-0.223, 7.4095907e-9, -4.9503237e-9, 1.0800024e+2
-0.224, 7.5032469e-9, -4.8634590e-9, 1.0833357e+2
-0.225, 7.5196631e-9, -4.8619224e-9, 1.0866691e+2
-0.226, 7.5291124e-9, -4.9211319e-9, 1.0900024e+2
-0.227, 7.5568654e-9, -4.9445323e-9, 1.0933358e+2
-0.228, 7.5698559e-9, -4.9960605e-9, 1.0966692e+2
-0.229, 7.6182793e-9, -4.9679327e-9, 1.1000025e+2
-0.230, 7.6761504e-9, -4.9348414e-9, 1.1033359e+2
-0.231, 7.7213835e-9, -4.9194777e-9, 1.1066692e+2
-0.232, 7.7594136e-9, -4.9188866e-9, 1.1100026e+2
-0.233, 7.8081897e-9, -4.9197140e-9, 1.1133360e+2
-0.234, 7.8438571e-9, -4.9198321e-9, 1.1166693e+2
-0.235, 7.8903897e-9, -4.9203051e-9, 1.1200027e+2
-0.236, 7.9402289e-9, -4.9177049e-9, 1.1233360e+2
-0.237, 7.9787315e-9, -4.9168776e-9, 1.1266694e+2
-0.238, 8.0190050e-9, -4.9302327e-9, 1.1300027e+2
-0.239, 8.0681355e-9, -4.9281050e-9, 1.1333361e+2
-0.240, 8.1124245e-9, -4.9312963e-9, 1.1366695e+2
-0.241, 8.1720666e-9, -4.9295230e-9, 1.1400028e+2
-0.242, 8.2151752e-9, -4.9285775e-9, 1.1433362e+2
-0.243, 8.2358431e-9, -4.9731330e-9, 1.1466695e+2
-0.244, 8.3124920e-9, -4.9567057e-9, 1.1500029e+2
-0.245, 8.3544185e-9, -4.9598960e-9, 1.1533363e+2
-0.246, 8.3867793e-9, -4.9877880e-9, 1.1566696e+2
-0.247, 8.4427603e-9, -4.9824691e-9, 1.1600030e+2
-0.248, 8.4914182e-9, -4.9875513e-9, 1.1633363e+2
-0.249, 8.5437390e-9, -4.9965334e-9, 1.1666697e+2
-0.250, 8.5875556e-9, -5.0061062e-9, 1.1700031e+2
-0.251, 8.6372776e-9, -5.0146154e-9, 1.1733364e+2
-0.252, 8.6877074e-9, -5.0225339e-9, 1.1766698e+2
-0.253, 8.7266807e-9, -5.0296247e-9, 1.1800031e+2
-0.254, 8.7798275e-9, -5.0396705e-9, 1.1833365e+2
-0.255, 8.8294314e-9, -5.0491247e-9, 1.1866698e+2
-0.256, 8.8763175e-9, -5.0583435e-9, 1.1900032e+2
-0.257, 8.9241503e-9, -5.0688618e-9, 1.1933366e+2
-0.258, 8.9619432e-9, -5.0789075e-9, 1.1966699e+2
-0.259, 9.0045784e-9, -5.0894258e-9, 1.2000033e+2
-0.260, 9.0544185e-9, -5.0997073e-9, 1.2033366e+2
-0.261, 9.0924477e-9, -5.1096349e-9, 1.2066700e+2
-0.262, 9.1426422e-9, -5.1221622e-9, 1.2100034e+2
-0.263, 9.1855137e-9, -5.1319717e-9, 1.2133367e+2
-0.264, 9.2281480e-9, -5.1439084e-9, 1.2166701e+2
-0.265, 9.2757446e-9, -5.1564357e-9, 1.2200034e+2
-0.266, 9.3069232e-9, -5.1694355e-9, 1.2233368e+2
-0.267, 9.3538111e-9, -5.1839724e-9, 1.2266702e+2
-0.268, 9.3938475e-9, -5.1929545e-9, 1.2300035e+2
-0.269, 9.4245545e-9, -5.2021729e-9, 1.2333369e+2
-0.270, 9.4682528e-9, -5.2115094e-9, 1.2366702e+2
-0.271, 9.5113606e-9, -5.2196638e-9, 1.2400036e+2
-0.272, 9.5423047e-9, -5.2299458e-9, 1.2433369e+2
-0.273, 9.5834043e-9, -5.2384550e-9, 1.2466703e+2
-0.274, 9.6152926e-9, -5.2473190e-9, 1.2500037e+2
-0.275, 9.6498960e-9, -5.2548832e-9, 1.2533370e+2
-0.276, 9.6856816e-9, -5.2625646e-9, 1.2566704e+2
-0.277, 9.7141442e-9, -5.2695373e-9, 1.2600037e+2
-0.278, 9.7499298e-9, -5.2772191e-9, 1.2633371e+2
-0.279, 9.7842978e-9, -5.2832467e-9, 1.2666705e+2
-0.280, 9.8157136e-9, -5.2914011e-9, 1.2700038e+2
-0.281, 9.8479553e-9, -5.2990834e-9, 1.2733372e+2
-0.282, 9.8705133e-9, -5.3023923e-9, 1.2766705e+2
-0.283, 9.9035820e-9, -5.3071196e-9, 1.2800038e+2
-0.284, 9.9379500e-9, -5.3107834e-9, 1.2833371e+2
-0.285, 9.9579101e-9, -5.3159832e-9, 1.2866704e+2
-0.286, 9.9914512e-9, -5.3224838e-9, 1.2900037e+2
-0.287, 1.0021214e-8, -5.3280385e-9, 1.2933369e+2
-0.288, 1.0050268e-8, -5.3312297e-9, 1.2966702e+2
-0.289, 1.0082156e-8, -5.3341838e-9, 1.3000035e+2
-0.290, 1.0104713e-8, -5.3365472e-9, 1.3033368e+2
-0.291, 1.0132349e-8, -5.3411569e-9, 1.3066701e+2
-0.292, 1.0161993e-8, -5.3467111e-9, 1.3100034e+2
-0.293, 1.0181835e-8, -5.3507296e-9, 1.3133366e+2
-0.294, 1.0209235e-8, -5.3547478e-9, 1.3166699e+2
-0.295, 1.0237343e-8, -5.3554570e-9, 1.3200032e+2
-0.296, 1.0264626e-8, -5.3630203e-9, 1.3233365e+2
-0.297, 1.0298639e-8, -5.3729479e-9, 1.3266698e+2
-0.298, 1.0318362e-8, -5.3762572e-9, 1.3300031e+2
-0.299, 1.0348834e-8, -5.3760210e-9, 1.3333363e+2
-0.300, 1.0376469e-8, -5.3750755e-9, 1.3366696e+2
-0.301, 1.0409656e-8, -5.3630203e-9, 1.3400029e+2
-0.302, 1.0415444e-8, -5.3876028e-9, 1.3433362e+2
-0.303, 1.0446151e-8, -5.3883116e-9, 1.3466695e+2
-0.304, 1.0471188e-8, -5.3824025e-9, 1.3500027e+2
-0.305, 1.0504139e-8, -5.3793299e-9, 1.3533360e+2
-0.306, 1.0520555e-8, -5.3820481e-9, 1.3566693e+2
-0.307, 1.0548074e-8, -5.3871299e-9, 1.3600026e+2
-0.308, 1.0570868e-8, -5.3911480e-9, 1.3633359e+2
-0.309, 1.0589056e-8, -5.3925668e-9, 1.3666692e+2
-0.310, 1.0615747e-8, -5.3959939e-9, 1.3700024e+2
-0.311, 1.0638187e-8, -5.3993028e-9, 1.3733357e+2
-0.312, 1.0664760e-8, -5.3988303e-9, 1.3766690e+2
-0.313, 1.0692160e-8, -5.4037939e-9, 1.3800023e+2
-0.314, 1.0712474e-8, -5.4028484e-9, 1.3833356e+2
-0.315, 1.0736095e-8, -5.4035576e-9, 1.3866689e+2
-0.316, 1.0759833e-8, -5.3998939e-9, 1.3900021e+2
-0.317, 1.0777549e-8, -5.3975304e-9, 1.3933354e+2
-0.318, 1.0801760e-8, -5.4009575e-9, 1.3966687e+2
-0.319, 1.0822665e-8, -5.4065126e-9, 1.4000020e+2
-0.320, 1.0852427e-8, -5.3885483e-9, 1.4033353e+2
-0.321, 1.0872858e-8, -5.3981211e-9, 1.4066685e+2
-0.322, 1.0898133e-8, -5.3851212e-9, 1.4100018e+2
-0.323, 1.0878646e-8, -5.4302669e-9, 1.4133351e+2
-0.324, 1.0923998e-8, -5.4175029e-9, 1.4166684e+2
-0.325, 1.0947027e-8, -5.4085216e-9, 1.4200017e+2
-0.326, 1.0970884e-8, -5.4127760e-9, 1.4233350e+2
-0.327, 1.1024385e-8, -5.3792117e-9, 1.4266682e+2
-0.328, 1.1014346e-8, -5.4086393e-9, 1.4300015e+2
-0.329, 1.1045998e-8, -5.4138396e-9, 1.4333348e+2
-0.330, 1.1057927e-8, -5.4105302e-9, 1.4366681e+2
-0.331, 1.1098672e-8, -5.4047393e-9, 1.4400014e+2
-0.332, 1.1113908e-8, -5.4093490e-9, 1.4433347e+2
-0.333, 1.1109302e-8, -5.4392491e-9, 1.4466679e+2
-0.334, 1.1146740e-8, -5.4232943e-9, 1.4500012e+2
-0.335, 1.1166464e-8, -5.4238853e-9, 1.4533345e+2
-0.336, 1.1185124e-8, -5.4215215e-9, 1.4566678e+2
-0.337, 1.1212997e-8, -5.4212852e-9, 1.4600011e+2
-0.338, 1.1232247e-8, -5.4206941e-9, 1.4633344e+2
-0.339, 1.1252325e-8, -5.4236486e-9, 1.4666676e+2
-0.340, 1.1272993e-8, -5.4219940e-9, 1.4700009e+2
-0.341, 1.1286929e-8, -5.4199849e-9, 1.4733342e+2
-0.342, 1.1305826e-8, -5.4182125e-9, 1.4766675e+2
-0.343, 1.1326494e-8, -5.4166760e-9, 1.4800008e+2
-0.344, 1.1344564e-8, -5.4150213e-9, 1.4833340e+2
-0.345, 1.1369838e-8, -5.4158487e-9, 1.4866673e+2
-0.346, 1.1381530e-8, -5.4153757e-9, 1.4900006e+2
-0.347, 1.1399127e-8, -5.4131304e-9, 1.4933339e+2
-0.348, 1.1420505e-8, -5.4105302e-9, 1.4966672e+2
-0.349, 1.1428890e-8, -5.4081668e-9, 1.5000005e+2
-0.350, 1.1449911e-8, -5.4073395e-9, 1.5033337e+2
-0.351, 1.1468691e-8, -5.4073395e-9, 1.5066670e+2
-0.352, 1.1484871e-8, -5.4073395e-9, 1.5100003e+2
-0.353, 1.1506956e-8, -5.4009575e-9, 1.5133336e+2
-0.354, 1.1519475e-8, -5.4024940e-9, 1.5166669e+2
-0.355, 1.1536717e-8, -5.4016671e-9, 1.5200002e+2
-0.356, 1.1558567e-8, -5.4010756e-9, 1.5233334e+2
-0.357, 1.1570733e-8, -5.4028484e-9, 1.5266667e+2
-0.358, 1.1587857e-8, -5.4008393e-9, 1.5300000e+2
-0.359, 1.1604037e-8, -5.4011937e-9, 1.5333333e+2
-0.360, 1.1615257e-8, -5.4016671e-9, 1.5366666e+2
-0.361, 1.1634389e-8, -5.3987121e-9, 1.5399998e+2
-0.362, 1.1641594e-8, -5.3968212e-9, 1.5433331e+2
-0.363, 1.1660845e-8, -5.3932756e-9, 1.5466664e+2
-0.364, 1.1678915e-8, -5.3916214e-9, 1.5499997e+2
-0.365, 1.1687182e-8, -5.3893756e-9, 1.5533330e+2
-0.366, 1.1706550e-8, -5.3872480e-9, 1.5566663e+2
-0.367, 1.1721196e-8, -5.3873666e-9, 1.5599995e+2
-0.368, 1.1732062e-8, -5.3878391e-9, 1.5633328e+2
-0.369, 1.1754856e-8, -5.3867755e-9, 1.5666661e+2
-0.370, 1.1765839e-8, -5.3891394e-9, 1.5699994e+2
-0.371, 1.1781429e-8, -5.3903206e-9, 1.5733327e+2
-0.372, 1.1800443e-8, -5.3896119e-9, 1.5766660e+2
-0.373, 1.1811899e-8, -5.3917391e-9, 1.5799992e+2
-0.374, 1.1830561e-8, -5.3936304e-9, 1.5833325e+2
-0.375, 1.1846149e-8, -5.3944573e-9, 1.5866658e+2
-0.376, 1.1859495e-8, -5.3929212e-9, 1.5899991e+2
-0.377, 1.1879691e-8, -5.3938667e-9, 1.5933324e+2
-0.378, 1.1891147e-8, -5.3965845e-9, 1.5966656e+2
-0.379, 1.1905438e-8, -5.3964668e-9, 1.5999989e+2
-0.380, 1.1923389e-8, -5.3964668e-9, 1.6033322e+2
-0.381, 1.1932247e-8, -5.3972937e-9, 1.6066655e+2
-0.382, 1.1951852e-8, -5.3968212e-9, 1.6099988e+2
-0.383, 1.1970159e-8, -5.3988303e-9, 1.6133321e+2
-0.384, 1.1979489e-8, -5.4011937e-9, 1.6166653e+2
-0.385, 1.1999448e-8, -5.3981211e-9, 1.6199986e+2
-0.386, 1.2007124e-8, -5.4001301e-9, 1.6233319e+2
-0.387, 1.2018463e-8, -5.3980025e-9, 1.6266652e+2
-0.388, 1.2035824e-8, -5.3971756e-9, 1.6299985e+2
-0.389, 1.2042793e-8, -5.3997757e-9, 1.6333318e+2
-0.390, 1.2059680e-8, -5.4008393e-9, 1.6366650e+2
-0.391, 1.2071609e-8, -5.3995395e-9, 1.6399983e+2
-0.392, 1.2081648e-8, -5.3937481e-9, 1.6433316e+2
-0.393, 1.2095584e-8, -5.3948122e-9, 1.6466649e+2
-0.394, 1.2099127e-8, -5.3899667e-9, 1.6499982e+2
-0.395, 1.2111292e-8, -5.3913847e-9, 1.6533315e+2
-0.396, 1.2124047e-8, -5.3899667e-9, 1.6566647e+2
-0.397, 1.2129834e-8, -5.3902030e-9, 1.6599980e+2
-0.398, 1.2143416e-8, -5.3913847e-9, 1.6633313e+2
-0.399, 1.2155935e-8, -5.3886664e-9, 1.6666646e+2
-0.400, 1.2162903e-8, -5.3867755e-9, 1.6699979e+2
-0.401, 1.2180265e-8, -5.3842939e-9, 1.6733311e+2
-0.402, 1.2186288e-8, -5.3816938e-9, 1.6766644e+2
-0.403, 1.2197271e-8, -5.3822844e-9, 1.6799977e+2
-0.404, 1.2211443e-8, -5.3844116e-9, 1.6833310e+2
-0.405, 1.2218885e-8, -5.3844116e-9, 1.6866643e+2
-0.406, 1.2236009e-8, -5.3841753e-9, 1.6899976e+2
-0.407, 1.2251953e-8, -5.3841753e-9, 1.6933308e+2
-0.408, 1.2270023e-8, -5.3828759e-9, 1.6966641e+2
-0.409, 1.2282777e-8, -5.3850027e-9, 1.6999974e+2
-0.410, 1.2302737e-8, -5.3819300e-9, 1.7033307e+2
-0.411, 1.2306399e-8, -5.3786207e-9, 1.7066640e+2
-0.412, 1.2318918e-8, -5.3774389e-9, 1.7099973e+2
-0.413, 1.2323642e-8, -5.3779119e-9, 1.7133305e+2
-0.414, 1.2342657e-8, -5.3760210e-9, 1.7166638e+2
-0.415, 1.2356002e-8, -5.3764935e-9, 1.7199971e+2
-0.416, 1.2367813e-8, -5.3750755e-9, 1.7233304e+2
-0.417, 1.2383048e-8, -5.3743663e-9, 1.7266637e+2
-0.418, 1.2388599e-8, -5.3689297e-9, 1.7299969e+2
-0.419, 1.2402063e-8, -5.3647931e-9, 1.7333302e+2
-0.420, 1.2418715e-8, -5.3698752e-9, 1.7366635e+2
-0.421, 1.2425802e-8, -5.3686930e-9, 1.7399968e+2
-0.422, 1.2443045e-8, -5.3678662e-9, 1.7433301e+2
-0.423, 1.2457453e-8, -5.3644387e-9, 1.7466634e+2
-0.424, 1.2470444e-8, -5.3637295e-9, 1.7499966e+2
-0.425, 1.2488397e-8, -5.3632569e-9, 1.7533299e+2
-0.426, 1.2495955e-8, -5.3636118e-9, 1.7566632e+2
-0.427, 1.2514615e-8, -5.3678662e-9, 1.7599965e+2
-0.428, 1.2534929e-8, -5.3684572e-9, 1.7633298e+2
-0.429, 1.2546622e-8, -5.3679843e-9, 1.7666631e+2
-0.430, 1.2563038e-8, -5.3684572e-9, 1.7699963e+2
-0.431, 1.2578745e-8, -5.3699938e-9, 1.7733296e+2
-0.432, 1.2589020e-8, -5.3684572e-9, 1.7766629e+2
-0.433, 1.2611933e-8, -5.3669202e-9, 1.7799962e+2
-0.434, 1.2623270e-8, -5.3675118e-9, 1.7833295e+2
-0.435, 1.2638152e-8, -5.3731846e-9, 1.7866628e+2
-0.436, 1.2659410e-8, -5.3737752e-9, 1.7899960e+2
-0.437, 1.2668386e-8, -5.3743663e-9, 1.7933293e+2
-0.438, 1.2686574e-8, -5.3750755e-9, 1.7966626e+2
-0.439, 1.2704171e-8, -5.3753118e-9, 1.7999959e+2
-0.440, 1.2718226e-8, -5.3751936e-9, 1.8033292e+2
-0.441, 1.2743972e-8, -5.3736571e-9, 1.8066624e+2
-0.442, 1.2757318e-8, -5.3746025e-9, 1.8099957e+2
-0.443, 1.2775978e-8, -5.3744844e-9, 1.8133290e+2
-0.444, 1.2797236e-8, -5.3737752e-9, 1.8166623e+2
-0.445, 1.2805740e-8, -5.3757843e-9, 1.8199956e+2
-0.446, 1.2830779e-8, -5.3789755e-9, 1.8233289e+2
-0.447, 1.2852865e-8, -5.3805116e-9, 1.8266621e+2
-0.448, 1.2870343e-8, -5.3827574e-9, 1.8299954e+2
-0.449, 1.2899280e-8, -5.3837028e-9, 1.8333287e+2
-0.450, 1.2914868e-8, -5.3861844e-9, 1.8366620e+2
-0.451, 1.2936245e-8, -5.3881934e-9, 1.8399953e+2
-0.452, 1.2961284e-8, -5.3903206e-9, 1.8433286e+2
-0.453, 1.2980062e-8, -5.3912665e-9, 1.8466618e+2
-0.454, 1.3004981e-8, -5.3936304e-9, 1.8499951e+2
-0.455, 1.3030137e-8, -5.3987121e-9, 1.8533284e+2
-0.456, 1.3048918e-8, -5.4010756e-9, 1.8566617e+2
-0.457, 1.3077024e-8, -5.4021392e-9, 1.8599950e+2
-0.458, 1.3091669e-8, -5.4043849e-9, 1.8633282e+2
-0.459, 1.3117889e-8, -5.4046212e-9, 1.8666615e+2
-0.460, 1.3146824e-8, -5.4059215e-9, 1.8699948e+2
-0.461, 1.3167492e-8, -5.4079305e-9, 1.8733281e+2
-0.462, 1.3195364e-8, -5.4088756e-9, 1.8766614e+2
-0.463, 1.3222529e-8, -5.4126574e-9, 1.8799947e+2
-0.464, 1.3242607e-8, -5.4144307e-9, 1.8833279e+2
-0.465, 1.3271659e-8, -5.4151394e-9, 1.8866612e+2
-0.466, 1.3294807e-8, -5.4153757e-9, 1.8899945e+2
-0.467, 1.3322915e-8, -5.4206941e-9, 1.8933278e+2
-0.468, 1.3354096e-8, -5.4222307e-9, 1.8966611e+2
-0.469, 1.3376063e-8, -5.4235305e-9, 1.8999944e+2
-0.470, 1.3406180e-8, -5.4247127e-9, 1.9033276e+2
-0.471, 1.3435113e-8, -5.4271942e-9, 1.9066609e+2
-0.472, 1.3464168e-8, -5.4288489e-9, 1.9099942e+2
-0.473, 1.3498771e-8, -5.4340488e-9, 1.9133275e+2
-0.474, 1.3520267e-8, -5.4352305e-9, 1.9166608e+2
-0.475, 1.3551563e-8, -5.4401941e-9, 1.9199940e+2
-0.476, 1.3586051e-8, -5.4431490e-9, 1.9233273e+2
-0.477, 1.3608845e-8, -5.4440945e-9, 1.9266606e+2
-0.478, 1.3655849e-8, -5.4462217e-9, 1.9299939e+2
-0.479, 1.3678408e-8, -5.4596945e-9, 1.9333272e+2
-0.480, 1.3719154e-8, -5.4600493e-9, 1.9366605e+2
-0.481, 1.3760726e-8, -5.4665494e-9, 1.9399937e+2
-0.482, 1.3789779e-8, -5.4728133e-9, 1.9433270e+2
-0.483, 1.3839147e-8, -5.4621765e-9, 1.9466603e+2
-0.484, 1.3854383e-8, -5.4911315e-9, 1.9499936e+2
-0.485, 1.3910009e-8, -5.4803766e-9, 1.9533269e+2
-0.486, 1.3933393e-8, -5.5021228e-9, 1.9566602e+2
-0.487, 1.3976146e-8, -5.5067320e-9, 1.9599934e+2
-0.488, 1.4004492e-8, -5.5329683e-9, 1.9633267e+2
-0.489, 1.4054566e-8, -5.5304867e-9, 1.9666600e+2
-0.490, 1.4095787e-8, -5.5239866e-9, 1.9699933e+2
-0.491, 1.4138302e-8, -5.5281228e-9, 1.9733266e+2
-0.492, 1.4180939e-8, -5.5356866e-9, 1.9766599e+2
-0.493, 1.4218849e-8, -5.5401781e-9, 1.9799931e+2
-0.494, 1.4258769e-8, -5.5478599e-9, 1.9833264e+2
-0.495, 1.4302467e-8, -5.5472689e-9, 1.9866597e+2
-0.496, 1.4342977e-8, -5.5563687e-9, 1.9899930e+2
-0.497, 1.4392816e-8, -5.5679510e-9, 1.9933263e+2
-0.498, 1.4433679e-8, -5.5761058e-9, 1.9966595e+2
-0.499, 1.4481158e-8, -5.5844969e-9, 1.9999928e+2
-0.500, 1.3770883e-8, -5.5908784e-9, 2.0033261e+2
-0.499, 1.2287266e-8, -5.5809513e-9, 2.0066594e+2
-0.498, 1.1519948e-8, -5.5652327e-9, 2.0099927e+2
-0.497, 1.0904156e-8, -5.5447864e-9, 2.0133260e+2
-0.496, 1.0399263e-8, -5.5241047e-9, 2.0166592e+2
-0.495, 9.9499973e-9, -5.5046043e-9, 2.0199925e+2
-0.494, 9.5502166e-9, -5.4884133e-9, 2.0233258e+2
-0.493, 9.1837418e-9, -5.4731677e-9, 2.0266591e+2
-0.492, 8.8402965e-9, -5.4582765e-9, 2.0299924e+2
-0.491, 8.5341725e-9, -5.4393672e-9, 2.0333257e+2
-0.490, 8.2436378e-9, -5.4244760e-9, 2.0366589e+2
-0.489, 7.9642053e-9, -5.4085216e-9, 2.0399922e+2
-0.488, 7.7083921e-9, -5.3922120e-9, 2.0433255e+2
-0.487, 7.4562418e-9, -5.3805116e-9, 2.0466588e+2
-0.486, 7.2215691e-9, -5.3691664e-9, 2.0499921e+2
-0.485, 6.9989450e-9, -5.3483662e-9, 2.0533253e+2
-0.484, 6.7809256e-9, -5.3365472e-9, 2.0566586e+2
-0.483, 6.5763697e-9, -5.3242566e-9, 2.0599919e+2
-0.482, 6.3751222e-9, -5.3100742e-9, 2.0633252e+2
-0.481, 6.1873369e-9, -5.2930562e-9, 2.0666585e+2
-0.480, 6.0020326e-9, -5.2820650e-9, 2.0699918e+2
-0.479, 5.8200351e-9, -5.2722560e-9, 2.0733250e+2
-0.478, 5.6493756e-9, -5.2578373e-9, 2.0766583e+2
-0.477, 5.4886362e-9, -5.2447189e-9, 2.0799916e+2
-0.476, 5.3197486e-9, -5.2428279e-9, 2.0833249e+2
-0.475, 5.1696389e-9, -5.2319549e-9, 2.0866582e+2
-0.474, 5.0203561e-9, -5.2170637e-9, 2.0899915e+2
-0.473, 4.8689475e-9, -5.2079638e-9, 2.0933247e+2
-0.472, 4.7295856e-9, -5.2007545e-9, 2.0966580e+2
-0.471, 4.5922310e-9, -5.1894089e-9, 2.0999913e+2
-0.470, 4.4604276e-9, -5.1818452e-9, 2.1033246e+2
-0.469, 4.3282697e-9, -5.1735727e-9, 2.1066579e+2
-0.468, 4.1957571e-9, -5.1661266e-9, 2.1099911e+2
-0.467, 4.0739927e-9, -5.1563176e-9, 2.1133244e+2
-0.466, 3.9524641e-9, -5.1469811e-9, 2.1166577e+2
-0.465, 3.8258570e-9, -5.1431992e-9, 2.1199910e+2
-0.464, 3.7232251e-9, -5.1348081e-9, 2.1233243e+2
-0.463, 3.6022871e-9, -5.1249991e-9, 2.1266576e+2
-0.462, 3.4946950e-9, -5.1154259e-9, 2.1299908e+2
-0.461, 3.3904095e-9, -5.1076259e-9, 2.1333241e+2
-0.460, 3.2805729e-9, -5.1036073e-9, 2.1366574e+2
-0.459, 3.1836100e-9, -5.0878892e-9, 2.1399907e+2
-0.458, 3.0797971e-9, -5.0838711e-9, 2.1433240e+2
-0.457, 2.9829523e-9, -5.0711071e-9, 2.1466573e+2
-0.456, 2.8855169e-9, -5.0655524e-9, 2.1499905e+2
-0.455, 2.7879634e-9, -5.0583435e-9, 2.1533238e+2
-0.454, 2.6954885e-9, -5.0511342e-9, 2.1566571e+2
-0.453, 2.6040763e-9, -5.0458162e-9, 2.1599904e+2
-0.452, 2.5141993e-9, -5.0377795e-9, 2.1633237e+2
-0.451, 2.4367235e-9, -5.0345883e-9, 2.1666570e+2
-0.450, 2.3534603e-9, -5.0293885e-9, 2.1699902e+2
-0.449, 2.2703157e-9, -5.0212337e-9, 2.1733235e+2
-0.448, 2.2014612e-9, -5.0113065e-9, 2.1766568e+2
-0.447, 2.1193793e-9, -5.0018518e-9, 2.1799901e+2
-0.446, 2.0375335e-9, -4.9978333e-9, 2.1833234e+2
-0.445, 1.9589947e-9, -4.9960605e-9, 2.1866566e+2
-0.444, 1.8775033e-9, -4.9895603e-9, 2.1899899e+2
-0.443, 1.8134912e-9, -4.9858970e-9, 2.1933232e+2
-0.442, 1.7345982e-9, -4.9798694e-9, 2.1966565e+2
-0.441, 1.6592481e-9, -4.9740789e-9, 2.1999898e+2
-0.440, 1.5980703e-9, -4.9650963e-9, 2.2033231e+2
-0.439, 1.5256729e-9, -4.9600146e-9, 2.2066563e+2
-0.438, 1.4634324e-9, -4.9538693e-9, 2.2099896e+2
-0.437, 1.3976487e-9, -4.9455964e-9, 2.2133229e+2
-0.436, 1.3244245e-9, -4.9448872e-9, 2.2166562e+2
-0.435, 1.2687976e-9, -4.9431144e-9, 2.2199895e+2
-0.434, 1.2050219e-9, -4.9329505e-9, 2.2233228e+2
-0.433, 1.1328605e-9, -4.9330691e-9, 2.2266560e+2
-0.432, 1.0778243e-9, -4.9264508e-9, 2.2299893e+2
-0.431, 1.0110959e-9, -4.9195963e-9, 2.2333226e+2
-0.430, 9.5216224e-10, -4.9145141e-9, 2.2366559e+2
-0.429, 8.9098456e-10, -4.9099049e-9, 2.2399892e+2
-0.428, 8.2862583e-10, -4.9002136e-9, 2.2433224e+2
-0.427, 7.7358969e-10, -4.8941868e-9, 2.2466557e+2
-0.426, 7.1666373e-10, -4.8878044e-9, 2.2499890e+2
-0.425, 6.6280853e-10, -4.8805955e-9, 2.2533223e+2
-0.424, 6.1344130e-10, -4.8711408e-9, 2.2566556e+2
-0.423, 5.5120070e-10, -4.8655862e-9, 2.2599889e+2
-0.422, 5.0017995e-10, -4.8576676e-9, 2.2633221e+2
-0.421, 4.4691531e-10, -4.8497495e-9, 2.2666554e+2
-0.420, 3.8892647e-10, -4.8478581e-9, 2.2699887e+2
-0.419, 3.4262990e-10, -4.8406492e-9, 2.2733220e+2
-0.418, 2.8546779e-10, -4.8365130e-9, 2.2766553e+2
-0.417, 2.3007724e-10, -4.8302491e-9, 2.2799886e+2
-0.416, 1.8460738e-10, -4.8235127e-9, 2.2833218e+2
-0.415, 1.2968925e-10, -4.8164215e-9, 2.2866551e+2
-0.414, 7.9022823e-11, -4.8112212e-9, 2.2899884e+2
-0.413, 3.9576249e-11, -4.8041309e-9, 2.2933217e+2
-0.412, -1.4751372e-11, -4.7975122e-9, 2.2966550e+2
-0.411, -5.7268638e-11, -4.7894759e-9, 2.2999883e+2
-0.410, -1.0486436e-10, -4.7747029e-9, 2.3033215e+2
-0.409, -1.7820666e-10, -4.7879394e-9, 2.3066548e+2
-0.408, -1.9521355e-10, -4.7683208e-9, 2.3099881e+2
-0.407, -2.6359548e-10, -4.7717488e-9, 2.3133214e+2
-0.406, -2.9406622e-10, -4.7583932e-9, 2.3166547e+2
-0.405, -3.4591366e-10, -4.7531938e-9, 2.3199879e+2
-0.404, -4.0331194e-10, -4.7640665e-9, 2.3233212e+2
-0.403, -4.1571283e-10, -4.7307385e-9, 2.3266545e+2
-0.402, -4.8444904e-10, -4.7440936e-9, 2.3299878e+2
-0.401, -5.3110000e-10, -4.7418474e-9, 2.3333211e+2
-0.400, -5.6653104e-10, -4.7323931e-9, 2.3366544e+2
-0.399, -6.1129229e-10, -4.7257749e-9, 2.3399876e+2
-0.398, -6.5062078e-10, -4.7217568e-9, 2.3433209e+2
-0.397, -6.9113026e-10, -4.7170290e-9, 2.3466542e+2
-0.396, -7.3778117e-10, -4.7102930e-9, 2.3499875e+2
-0.395, -7.7167689e-10, -4.7048561e-9, 2.3533208e+2
-0.394, -8.1159585e-10, -4.6963473e-9, 2.3566541e+2
-0.393, -8.5470359e-10, -4.6963473e-9, 2.3599873e+2
-0.392, -8.9119767e-10, -4.6929198e-9, 2.3633206e+2
-0.391, -9.3406927e-10, -4.6853561e-9, 2.3666539e+2
-0.390, -9.7339770e-10, -4.6818105e-9, 2.3699872e+2
-0.389, -1.0113088e-9, -4.6766102e-9, 2.3733205e+2
-0.388, -1.0548891e-9, -4.6673923e-9, 2.3766537e+2
-0.387, -1.0876038e-9, -4.6585287e-9, 2.3799870e+2
-0.386, -1.1297667e-9, -4.6558100e-9, 2.3833203e+2
-0.385, -1.1699219e-9, -4.6536828e-9, 2.3866536e+2
-0.384, -1.1983848e-9, -4.6470645e-9, 2.3899869e+2
-0.383, -1.2387763e-9, -4.6379647e-9, 2.3933202e+2
-0.382, -1.2772781e-9, -4.6354827e-9, 2.3966534e+2
-0.381, -1.3107013e-9, -4.6302824e-9, 2.3999867e+2
-0.380, -1.3508565e-9, -4.6259099e-9, 2.4033200e+2
-0.379, -1.3796738e-9, -4.6171644e-9, 2.4066533e+2
-0.378, -1.4172308e-9, -4.6114916e-9, 2.4099866e+2
-0.377, -1.4579765e-9, -4.6109006e-9, 2.4133199e+2
-0.376, -1.4872662e-9, -4.6046371e-9, 2.4166531e+2
-0.375, -1.5239964e-9, -4.5980184e-9, 2.4199864e+2
-0.374, -1.5525774e-9, -4.5961275e-9, 2.4233197e+2
-0.373, -1.5841110e-9, -4.5914001e-9, 2.4266530e+2
-0.372, -1.6185973e-9, -4.5870276e-9, 2.4299863e+2
-0.371, -1.6446980e-9, -4.5804089e-9, 2.4333195e+2
-0.370, -1.6817827e-9, -4.5737907e-9, 2.4366528e+2
-0.369, -1.7170955e-9, -4.5652815e-9, 2.4399861e+2
-0.368, -1.7402438e-9, -4.5625632e-9, 2.4433194e+2
-0.367, -1.7798085e-9, -4.5560631e-9, 2.4466527e+2
-0.366, -1.8141767e-9, -4.5468451e-9, 2.4499860e+2
-0.365, -1.8460646e-9, -4.5402269e-9, 2.4533192e+2
-0.364, -1.8871646e-9, -4.5345541e-9, 2.4566525e+2
-0.363, -1.9142103e-9, -4.5295900e-9, 2.4599858e+2
-0.362, -1.9477520e-9, -4.5224993e-9, 2.4633191e+2
-0.361, -1.9831830e-9, -4.5169442e-9, 2.4666524e+2
-0.360, -2.0092839e-9, -4.5124535e-9, 2.4699857e+2
-0.359, -2.0458959e-9, -4.5080806e-9, 2.4733189e+2
-0.358, -2.0779019e-9, -4.5019353e-9, 2.4766522e+2
-0.357, -2.1101441e-9, -4.4959076e-9, 2.4799855e+2
-0.356, -2.1471105e-9, -4.4899986e-9, 2.4833188e+2
-0.355, -2.1689597e-9, -4.4837347e-9, 2.4866521e+2
-0.354, -2.2040363e-9, -4.4785349e-9, 2.4899854e+2
-0.353, -2.2410027e-9, -4.4745168e-9, 2.4933186e+2
-0.352, -2.2680486e-9, -4.4691983e-9, 2.4966519e+2
-0.351, -2.2991098e-9, -4.4631707e-9, 2.4999852e+2
-0.350, -2.3312339e-9, -4.4584438e-9, 2.5033185e+2
-0.349, -2.3581614e-9, -4.4543071e-9, 2.5066518e+2
-0.348, -2.3943012e-9, -4.4446158e-9, 2.5099850e+2
-0.347, -2.4174496e-9, -4.4375255e-9, 2.5133183e+2
-0.346, -2.4492193e-9, -4.4345705e-9, 2.5166516e+2
-0.345, -2.4808711e-9, -4.4294888e-9, 2.5199849e+2
-0.344, -2.5064997e-9, -4.4212154e-9, 2.5233182e+2
-0.343, -2.5388598e-9, -4.4119979e-9, 2.5266515e+2
-0.342, -2.5675591e-9, -4.4059703e-9, 2.5299847e+2
-0.341, -2.5967306e-9, -4.3984065e-9, 2.5333180e+2
-0.340, -2.6295632e-9, -4.3926156e-9, 2.5366513e+2
-0.339, -2.6536566e-9, -4.3888333e-9, 2.5399846e+2
-0.338, -2.6817653e-9, -4.3837516e-9, 2.5433179e+2
-0.337, -2.7158971e-9, -4.3804422e-9, 2.5466512e+2
-0.336, -2.7368015e-9, -4.3773696e-9, 2.5499844e+2
-0.335, -2.7706972e-9, -4.3703969e-9, 2.5533177e+2
-0.334, -2.7980971e-9, -4.3655515e-9, 2.5566510e+2
-0.333, -2.8200644e-9, -4.3608241e-9, 2.5599843e+2
-0.332, -2.8525429e-9, -4.3537329e-9, 2.5633176e+2
-0.331, -2.8733291e-9, -4.3436876e-9, 2.5666510e+2
-0.330, -2.8996661e-9, -4.3374238e-9, 2.5699844e+2
-0.329, -2.9316722e-9, -4.3335238e-9, 2.5733179e+2
-0.328, -2.9521041e-9, -4.3256057e-9, 2.5766513e+2
-0.327, -2.9835197e-9, -4.3165054e-9, 2.5799847e+2
-0.326, -3.0124552e-9, -4.3104778e-9, 2.5833182e+2
-0.325, -3.0411544e-9, -4.3037409e-9, 2.5866516e+2
-0.324, -3.0769396e-9, -4.2958228e-9, 2.5899850e+2
-0.323, -3.0959544e-9, -4.2897956e-9, 2.5933185e+2
-0.322, -3.1233542e-9, -4.2817594e-9, 2.5966519e+2
-0.321, -3.1550060e-9, -4.2766772e-9, 2.5999854e+2
-0.320, -3.1730760e-9, -4.2700594e-9, 2.6033188e+2
-0.319, -3.2057903e-9, -4.2622590e-9, 2.6066522e+2
-0.318, -3.2318912e-9, -4.2546953e-9, 2.6099857e+2
-0.317, -3.2548038e-9, -4.2515045e-9, 2.6133191e+2
-0.316, -3.2868095e-9, -4.2447676e-9, 2.6166525e+2
-0.315, -3.3085406e-9, -4.2390949e-9, 2.6199860e+2
-0.314, -3.3380660e-9, -4.2296402e-9, 2.6233194e+2
-0.313, -3.3661753e-9, -4.2237311e-9, 2.6266528e+2
-0.312, -3.3892054e-9, -4.2212496e-9, 2.6299863e+2
-0.311, -3.4213294e-9, -4.2149857e-9, 2.6333197e+2
-0.310, -3.4431786e-9, -4.2097854e-9, 2.6366531e+2
-0.309, -3.4714052e-9, -4.2045851e-9, 2.6399866e+2
-0.308, -3.5051830e-9, -4.2003307e-9, 2.6433200e+2
-0.307, -3.5382521e-9, -4.1970218e-9, 2.6466534e+2
-0.306, -3.5638805e-9, -4.1914667e-9, 2.6499869e+2
-0.305, -3.5919889e-9, -4.1857939e-9, 2.6533203e+2
-0.304, -3.6098224e-9, -4.1817758e-9, 2.6566537e+2
-0.303, -3.6387582e-9, -4.1756305e-9, 2.6599872e+2
-0.302, -3.6600165e-9, -4.1706665e-9, 2.6633206e+2
-0.301, -3.6791492e-9, -4.1616848e-9, 2.6666541e+2
-0.300, -3.7083212e-9, -4.1517576e-9, 2.6699875e+2
-0.299, -3.7312331e-9, -4.1444297e-9, 2.6733209e+2
-0.298, -3.7600505e-9, -4.1346206e-9, 2.6766544e+2
-0.297, -3.7917021e-9, -4.1271750e-9, 2.6799878e+2
-0.296, -3.8181573e-9, -4.1203205e-9, 2.6833212e+2
-0.295, -3.8511079e-9, -4.1099204e-9, 2.6866547e+2
-0.294, -3.8808703e-9, -4.0990473e-9, 2.6899881e+2
-0.293, -3.9100416e-9, -4.0923109e-9, 2.6933215e+2
-0.292, -3.9461816e-9, -4.0826200e-9, 2.6966550e+2
-0.291, -3.9695660e-9, -4.0722199e-9, 2.6999884e+2
-0.290, -4.0049972e-9, -4.0608739e-9, 2.7033218e+2
-0.289, -4.0440895e-9, -4.0504737e-9, 2.7066553e+2
-0.288, -4.0756230e-9, -4.0423198e-9, 2.7099887e+2
-0.287, -4.1132981e-9, -4.0316830e-9, 2.7133221e+2
-0.286, -4.1461310e-9, -4.0205737e-9, 2.7166556e+2
-0.285, -4.1787271e-9, -4.0114734e-9, 2.7199890e+2
-0.284, -4.2205355e-9, -3.9990642e-9, 2.7233224e+2
-0.283, -4.2458104e-9, -3.9838186e-9, 2.7266559e+2
-0.282, -4.2834847e-9, -3.9741272e-9, 2.7299893e+2
-0.281, -4.3254120e-9, -3.9599457e-9, 2.7333228e+2
-0.280, -4.3581263e-9, -3.9471812e-9, 2.7366562e+2
-0.279, -4.3969823e-9, -3.9298085e-9, 2.7399896e+2
-0.278, -4.4338311e-9, -3.9136174e-9, 2.7433231e+2
-0.277, -4.4709152e-9, -3.8968353e-9, 2.7466565e+2
-0.276, -4.5153228e-9, -3.8809986e-9, 2.7499899e+2
-0.275, -4.5502810e-9, -3.8611438e-9, 2.7533234e+2
-0.274, -4.5940975e-9, -3.8432981e-9, 2.7566568e+2
-0.273, -4.6386228e-9, -3.8269889e-9, 2.7599902e+2
-0.272, -4.6740531e-9, -3.8109156e-9, 2.7633237e+2
-0.271, -4.7255466e-9, -3.7931884e-9, 2.7666571e+2
-0.270, -4.7698352e-9, -3.7751064e-9, 2.7699905e+2
-0.269, -4.8112900e-9, -3.7578514e-9, 2.7733240e+2
-0.268, -4.8645545e-9, -3.7389420e-9, 2.7766574e+2
-0.267, -4.9081348e-9, -3.7183780e-9, 2.7799908e+2
-0.266, -4.9569113e-9, -3.6979326e-9, 2.7833243e+2
-0.265, -5.0108846e-9, -3.6787868e-9, 2.7866577e+2
-0.264, -5.0544648e-9, -3.6571592e-9, 2.7899911e+2
-0.263, -5.1082019e-9, -3.6373042e-9, 2.7933246e+2
-0.262, -5.1575695e-9, -3.6129586e-9, 2.7966580e+2
-0.261, -5.2137867e-9, -3.5915673e-9, 2.7999915e+2
-0.260, -5.2690590e-9, -3.5676941e-9, 2.8033249e+2
-0.259, -5.3223235e-9, -3.5493759e-9, 2.8066583e+2
-0.258, -5.3669669e-9, -3.5193570e-9, 2.8099918e+2
-0.257, -5.4319242e-9, -3.4985568e-9, 2.8133252e+2
-0.256, -5.4781024e-9, -3.4756291e-9, 2.8166586e+2
-0.255, -5.5271152e-9, -3.4369831e-9, 2.8199921e+2
-0.254, -5.6014025e-9, -3.4320196e-9, 2.8233255e+2
-0.253, -5.6141576e-9, -3.3560272e-9, 2.8266589e+2
-0.252, -5.7171436e-9, -3.3751730e-9, 2.8299924e+2
-0.251, -5.7701723e-9, -3.3593368e-9, 2.8333258e+2
-0.250, -5.8172955e-9, -3.3250633e-9, 2.8366592e+2
-0.249, -5.8710325e-9, -3.2906720e-9, 2.8399927e+2
-0.248, -5.9276046e-9, -3.2729444e-9, 2.8433261e+2
-0.247, -5.9829945e-9, -3.2361895e-9, 2.8466595e+2
-0.246, -6.0338974e-9, -3.2094796e-9, 2.8499930e+2
-0.245, -6.0886975e-9, -3.1859615e-9, 2.8533264e+2
-0.244, -6.1462138e-9, -3.1607881e-9, 2.8566599e+2
-0.243, -6.1919203e-9, -3.1351421e-9, 2.8599933e+2
-0.242, -6.2453029e-9, -3.1072511e-9, 2.8633267e+2
-0.241, -6.2998660e-9, -3.0824325e-9, 2.8666602e+2
-0.240, -6.3413212e-9, -3.0547775e-9, 2.8699936e+2
-0.239, -6.3918688e-9, -3.0277134e-9, 2.8733270e+2
-0.238, -6.4412373e-9, -3.0089222e-9, 2.8766605e+2
-0.237, -6.4878876e-9, -2.9838674e-9, 2.8799939e+2
-0.236, -6.5379626e-9, -2.9605853e-9, 2.8833273e+2
-0.235, -6.5751666e-9, -2.9363576e-9, 2.8866608e+2
-0.234, -6.6191004e-9, -2.9170937e-9, 2.8899942e+2
-0.233, -6.6576020e-9, -2.8877842e-9, 2.8933276e+2
-0.232, -6.6952772e-9, -2.8679292e-9, 2.8966611e+2
-0.231, -6.7375585e-9, -2.8507925e-9, 2.8999945e+2
-0.230, -6.7716903e-9, -2.8283378e-9, 2.9033279e+2
-0.229, -6.8072392e-9, -2.8062375e-9, 2.9066614e+2
-0.228, -6.8462134e-9, -2.7839009e-9, 2.9099948e+2
-0.227, -6.8750308e-9, -2.7674734e-9, 2.9133282e+2
-0.226, -6.9153043e-9, -2.7516367e-9, 2.9166617e+2
-0.225, -6.9515615e-9, -2.7355638e-9, 2.9199951e+2
-0.224, -6.9767179e-9, -2.7211453e-9, 2.9233286e+2
-0.223, -7.0101418e-9, -2.7060179e-9, 2.9266620e+2
-0.222, -7.0383686e-9, -2.6895901e-9, 2.9299954e+2
-0.221, -7.0642332e-9, -2.6710356e-9, 2.9333289e+2
-0.220, -7.0961206e-9, -2.6567353e-9, 2.9366623e+2
-0.219, -7.1169066e-9, -2.6427898e-9, 2.9399957e+2
-0.218, -7.1425359e-9, -2.6306168e-9, 2.9433292e+2
-0.217, -7.1645023e-9, -2.6126528e-9, 2.9466626e+2
-0.216, -7.1909576e-9, -2.6057980e-9, 2.9499960e+2
-0.215, -7.2078468e-9, -2.5857070e-9, 2.9533295e+2
-0.214, -7.2402067e-9, -2.5853524e-9, 2.9566629e+2
-0.213, -7.2563870e-9, -2.5737703e-9, 2.9599963e+2
-0.212, -7.2792994e-9, -2.5598248e-9, 2.9633298e+2
-0.211, -7.2934716e-9, -2.5487155e-9, 2.9666632e+2
-0.210, -7.3150845e-9, -2.5338243e-9, 2.9699966e+2
-0.209, -7.3337452e-9, -2.5280333e-9, 2.9733301e+2
-0.208, -7.3437834e-9, -2.5207059e-9, 2.9766635e+2
-0.207, -7.3691755e-9, -2.5121967e-9, 2.9799969e+2
-0.206, -7.3852378e-9, -2.5017965e-9, 2.9833304e+2
-0.205, -7.4090951e-9, -2.4924602e-9, 2.9866638e+2
-0.204, -7.4279911e-9, -2.4799325e-9, 2.9899973e+2
-0.203, -7.4387394e-9, -2.4700051e-9, 2.9933307e+2
-0.202, -7.4523205e-9, -2.4599598e-9, 2.9966641e+2
-0.201, -7.4677926e-9, -2.4542868e-9, 2.9999976e+2
-0.200, -7.4773592e-9, -2.4484959e-9, 3.0033310e+2
-0.199, -7.4964923e-9, -2.4404594e-9, 3.0066644e+2
-0.198, -7.5094828e-9, -2.4330138e-9, 3.0099979e+2
-0.197, -7.5224742e-9, -2.4271045e-9, 3.0133313e+2
-0.196, -7.5411348e-9, -2.4207227e-9, 3.0166647e+2
-0.195, -7.5367650e-9, -2.4039406e-9, 3.0199982e+2
-0.194, -7.5609767e-9, -2.4021678e-9, 3.0233316e+2
-0.193, -7.5743225e-9, -2.3977951e-9, 3.0266650e+2
-0.192, -7.5759754e-9, -2.3855040e-9, 3.0299985e+2
-0.191, -7.6025488e-9, -2.3817224e-9, 3.0333319e+2
-0.190, -7.6109341e-9, -2.3799493e-9, 3.0366653e+2
-0.189, -7.6196729e-9, -2.3773494e-9, 3.0399988e+2
-0.188, -7.6353812e-9, -2.3722675e-9, 3.0433322e+2
-0.187, -7.6408142e-9, -2.3669491e-9, 3.0466656e+2
-0.186, -7.6503799e-9, -2.3603308e-9, 3.0499991e+2
-0.185, -7.6662063e-9, -2.3540672e-9, 3.0533325e+2
-0.184, -7.6699864e-9, -2.3501669e-9, 3.0566660e+2
-0.183, -7.6856939e-9, -2.3491034e-9, 3.0599994e+2
-0.182, -7.6932523e-9, -2.3436670e-9, 3.0633328e+2
-0.181, -7.7004563e-9, -2.3388216e-9, 3.0666663e+2
-0.180, -7.7109670e-9, -2.3322031e-9, 3.0699997e+2
-0.179, -7.7130933e-9, -2.3260578e-9, 3.0733331e+2
-0.178, -7.7269116e-9, -2.3208577e-9, 3.0766666e+2
-0.177, -7.7376594e-9, -2.3180213e-9, 3.0800000e+2
-0.176, -7.7316358e-9, -2.3085664e-9, 3.0833334e+2
-0.175, -7.7603346e-9, -2.3182576e-9, 3.0866669e+2
-0.174, -7.7504136e-9, -2.2954481e-9, 3.0900003e+2
-0.173, -7.7719085e-9, -2.3106939e-9, 3.0933337e+2
-0.172, -7.7749798e-9, -2.2920208e-9, 3.0966672e+2
-0.171, -7.7805300e-9, -2.2929660e-9, 3.1000006e+2
-0.170, -7.7912778e-9, -2.2906026e-9, 3.1033340e+2
-0.169, -7.8002547e-9, -2.2858753e-9, 3.1066675e+2
-0.168, -7.8052143e-9, -2.2811479e-9, 3.1100009e+2
-0.167, -7.8187963e-9, -2.2755933e-9, 3.1133344e+2
-0.166, -7.8224573e-9, -2.2721660e-9, 3.1166678e+2
-0.165, -7.8329681e-9, -2.2694475e-9, 3.1200012e+2
-0.164, -7.8458422e-9, -2.2660203e-9, 3.1233347e+2
-0.163, -7.8437159e-9, -2.2623567e-9, 3.1266681e+2
-0.162, -7.8551716e-9, -2.2577473e-9, 3.1300015e+2
-0.161, -7.8643847e-9, -2.2573929e-9, 3.1333350e+2
-0.160, -7.8701712e-9, -2.2503019e-9, 3.1366684e+2
-0.159, -7.8769036e-9, -2.2435656e-9, 3.1400018e+2
-0.158, -7.8845801e-9, -2.2455746e-9, 3.1433353e+2
-0.157, -7.8858786e-9, -2.2426201e-9, 3.1466687e+2
-0.156, -7.8992253e-9, -2.2406110e-9, 3.1500021e+2
-0.155, -7.9011144e-9, -2.2345836e-9, 3.1533356e+2
-0.154, -7.9115070e-9, -2.2336382e-9, 3.1566690e+2
-0.153, -7.9234352e-9, -2.2276108e-9, 3.1600024e+2
-0.152, -7.9312299e-9, -2.2295017e-9, 3.1633359e+2
-0.151, -7.9463485e-9, -2.2290290e-9, 3.1666693e+2
-0.150, -7.9515452e-9, -2.2213471e-9, 3.1700027e+2
-0.149, -7.9624103e-9, -2.2168560e-9, 3.1733362e+2
-0.148, -7.9789446e-9, -2.2136650e-9, 3.1766696e+2
-0.147, -7.9781186e-9, -2.2135471e-9, 3.1800031e+2
-0.146, -7.9879205e-9, -2.2110651e-9, 3.1833365e+2
-0.145, -7.9976052e-9, -2.2056286e-9, 3.1866699e+2
-0.144, -8.0009119e-9, -2.2065743e-9, 3.1900034e+2
-0.143, -8.0162650e-9, -2.2037376e-9, 3.1933368e+2
-0.142, -8.0270128e-9, -2.2019648e-9, 3.1966702e+2
-0.141, -8.0312637e-9, -2.1973559e-9, 3.2000037e+2
-0.140, -8.0454363e-9, -2.1955830e-9, 3.2033371e+2
-0.139, -8.0490974e-9, -2.1910922e-9, 3.2066705e+2
-0.138, -8.0586640e-9, -2.1890829e-9, 3.2100040e+2
-0.137, -8.0695299e-9, -2.1861284e-9, 3.2133374e+2
-0.136, -8.0750810e-9, -2.1849464e-9, 3.2166708e+2
-0.135, -8.0881906e-9, -2.1821100e-9, 3.2200043e+2
-0.134, -8.0976390e-9, -2.1802191e-9, 3.2233377e+2
-0.133, -8.1035436e-9, -2.1810465e-9, 3.2266711e+2
-0.132, -8.1239753e-9, -2.1779736e-9, 3.2300046e+2
-0.131, -8.1244478e-9, -2.1718281e-9, 3.2333380e+2
-0.130, -8.1372029e-9, -2.1702917e-9, 3.2366714e+2
-0.129, -8.1505496e-9, -2.1739555e-9, 3.2400049e+2
-0.128, -8.1526750e-9, -2.1694646e-9, 3.2433383e+2
-0.127, -8.1701543e-9, -2.1676916e-9, 3.2466718e+2
-0.126, -8.1831457e-9, -2.1672188e-9, 3.2500052e+2
-0.125, -8.1686196e-9, -2.1440549e-9, 3.2533386e+2
-0.124, -8.1938927e-9, -2.1450006e-9, 3.2566721e+2
-0.123, -8.2279072e-9, -2.1673372e-9, 3.2600055e+2
-0.122, -8.2286151e-9, -2.1563462e-9, 3.2633389e+2
-0.121, -8.2447951e-9, -2.1506732e-9, 3.2666724e+2
-0.120, -8.2809350e-9, -2.1608371e-9, 3.2700058e+2
-0.119, -8.2462126e-9, -2.1360185e-9, 3.2733392e+2
-0.118, -8.2694793e-9, -2.1412188e-9, 3.2766727e+2
-0.117, -8.2933358e-9, -2.1480733e-9, 3.2800061e+2
-0.116, -8.3075085e-9, -2.1435822e-9, 3.2833395e+2
-0.115, -8.3143590e-9, -2.1414548e-9, 3.2866730e+2
-0.114, -8.3301845e-9, -2.1399185e-9, 3.2900064e+2
-0.113, -8.3445926e-9, -2.1346003e-9, 3.2933398e+2
-0.112, -8.3509706e-9, -2.1304640e-9, 3.2966733e+2
-0.111, -8.3717575e-9, -2.1269184e-9, 3.3000067e+2
-0.110, -8.3860474e-9, -2.1195912e-9, 3.3033401e+2
-0.109, -8.3983300e-9, -2.1145090e-9, 3.3066736e+2
-0.108, -8.4195895e-9, -2.1160456e-9, 3.3100070e+2
-0.107, -8.4306908e-9, -2.1158091e-9, 3.3133405e+2
-0.106, -8.4474614e-9, -2.1125000e-9, 3.3166739e+2
-0.105, -8.4656495e-9, -2.1093089e-9, 3.3200073e+2
-0.104, -8.4799394e-9, -2.1074180e-9, 3.3233408e+2
-0.103, -8.5054497e-9, -2.1061179e-9, 3.3266742e+2
-0.102, -8.5301339e-9, -2.1032815e-9, 3.3300076e+2
-0.101, -8.5447791e-9, -2.1024544e-9, 3.3333411e+2
-0.100, -8.5689900e-9, -2.1021000e-9, 3.3366745e+2
-0.099, -8.5816261e-9, -2.1015090e-9, 3.3400079e+2
-0.098, -8.6060741e-9, -2.0983177e-9, 3.3433414e+2
-0.097, -8.6295771e-9, -2.0961908e-9, 3.3466748e+2
-0.096, -8.6469383e-9, -2.0944178e-9, 3.3500082e+2
-0.095, -8.6720933e-9, -2.0915814e-9, 3.3533417e+2
-0.094, -8.6933527e-9, -2.0913451e-9, 3.3566751e+2
-0.093, -8.7120133e-9, -2.0881541e-9, 3.3600085e+2
-0.092, -8.7395309e-9, -2.0861448e-9, 3.3633420e+2
-0.091, -8.7590184e-9, -2.0805904e-9, 3.3666754e+2
-0.090, -8.7800407e-9, -2.0745632e-9, 3.3700089e+2
-0.089, -8.8100389e-9, -2.0752722e-9, 3.3733423e+2
-0.088, -8.8316527e-9, -2.0730269e-9, 3.3766757e+2
-0.087, -8.8591703e-9, -2.0714901e-9, 3.3800092e+2
-0.086, -8.8816101e-9, -2.0686539e-9, 3.3833426e+2
-0.085, -8.9071204e-9, -2.0641628e-9, 3.3866760e+2
-0.084, -8.9403072e-9, -2.0591993e-9, 3.3900095e+2
-0.083, -8.9614476e-9, -2.0526991e-9, 3.3933429e+2
-0.082, -8.9913277e-9, -2.0541173e-9, 3.3966763e+2
-0.081, -9.0234522e-9, -2.0544719e-9, 3.4000098e+2
-0.080, -9.0481356e-9, -2.0526991e-9, 3.4033432e+2
-0.079, -9.0799057e-9, -2.0492719e-9, 3.4066766e+2
-0.078, -9.1102574e-9, -2.0451352e-9, 3.4100101e+2
-0.077, -9.1388390e-9, -2.0430080e-9, 3.4133435e+2
-0.076, -9.1750971e-9, -2.0362714e-9, 3.4166769e+2
-0.075, -9.1994261e-9, -2.0348532e-9, 3.4200104e+2
-0.074, -9.2282439e-9, -2.0323716e-9, 3.4233438e+2
-0.073, -9.2660359e-9, -2.0329625e-9, 3.4266772e+2
-0.072, -9.2957988e-9, -2.0297715e-9, 3.4300107e+2
-0.071, -9.3307575e-9, -2.0266988e-9, 3.4333441e+2
-0.070, -9.3658343e-9, -2.0245714e-9, 3.4366776e+2
-0.069, -9.3979580e-9, -2.0213806e-9, 3.4400110e+2
-0.068, -9.4379944e-9, -2.0173623e-9, 3.4433444e+2
-0.067, -9.4651593e-9, -2.0133439e-9, 3.4466779e+2
-0.066, -9.5055510e-9, -2.0112167e-9, 3.4500113e+2
-0.065, -9.5459418e-9, -2.0113347e-9, 3.4533447e+2
-0.064, -9.5740509e-9, -2.0080257e-9, 3.4566782e+2
-0.063, -9.6186934e-9, -2.0053075e-9, 3.4600116e+2
-0.062, -9.6588497e-9, -2.0049529e-9, 3.4633450e+2
-0.061, -9.6917994e-9, -2.0015254e-9, 3.4666785e+2
-0.060, -9.7353796e-9, -2.0019983e-9, 3.4700119e+2
-0.059, -9.7695123e-9, -2.0010529e-9, 3.4733453e+2
-0.058, -9.8083675e-9, -1.9959709e-9, 3.4766788e+2
-0.057, -9.8505311e-9, -1.9919526e-9, 3.4800122e+2
-0.056, -9.8856079e-9, -1.9897073e-9, 3.4833456e+2
-0.055, -9.9303694e-9, -1.9885253e-9, 3.4866791e+2
-0.054, -9.9666266e-9, -1.9845072e-9, 3.4900125e+2
-0.053, -1.0003357e-8, -1.9807254e-9, 3.4933459e+2
-0.052, -1.0044221e-8, -1.9771798e-9, 3.4966794e+2
-0.051, -1.0083431e-8, -1.9752888e-9, 3.5000128e+2
-0.050, -1.0121933e-8, -1.9680797e-9, 3.5033463e+2
-0.049, -1.0173544e-8, -1.9718616e-9, 3.5066797e+2
-0.048, -1.0203660e-8, -1.9700890e-9, 3.5100131e+2
-0.047, -1.0253028e-8, -1.9704434e-9, 3.5133466e+2
-0.046, -1.0296135e-8, -1.9664252e-9, 3.5166800e+2
-0.045, -1.0340661e-8, -1.9650068e-9, 3.5200134e+2
-0.044, -1.0382706e-8, -1.9614612e-9, 3.5233469e+2
-0.043, -1.0420617e-8, -1.9556703e-9, 3.5266803e+2
-0.042, -1.0468566e-8, -1.9563795e-9, 3.5300137e+2
-0.041, -1.0515453e-8, -1.9564976e-9, 3.5333472e+2
-0.040, -1.0553602e-8, -1.9554340e-9, 3.5366806e+2
-0.039, -1.0599425e-8, -1.9549613e-9, 3.5400140e+2
-0.038, -1.0642297e-8, -1.9554340e-9, 3.5433475e+2
-0.037, -1.0688594e-8, -1.9551976e-9, 3.5466809e+2
-0.036, -1.0735953e-8, -1.9515340e-9, 3.5500143e+2
-0.035, -1.0772212e-8, -1.9505886e-9, 3.5533478e+2
-0.034, -1.0818625e-8, -1.9497610e-9, 3.5566812e+2
-0.033, -1.0860907e-8, -1.9470432e-9, 3.5600146e+2
-0.032, -1.0902125e-8, -1.9438520e-9, 3.5633481e+2
-0.031, -1.0947949e-8, -1.9413700e-9, 3.5666815e+2
-0.030, -1.0992119e-8, -1.9423156e-9, 3.5700150e+2
-0.029, -1.1025779e-8, -1.9391246e-9, 3.5733484e+2
-0.028, -1.1070777e-8, -1.9375883e-9, 3.5766818e+2
-0.027, -1.1103728e-8, -1.9345154e-9, 3.5800153e+2
-0.026, -1.1142466e-8, -1.9352246e-9, 3.5833487e+2
-0.025, -1.1184156e-8, -1.9315609e-9, 3.5866821e+2
-0.024, -1.1212737e-8, -1.9261246e-9, 3.5900156e+2
-0.023, -1.1256553e-8, -1.9278974e-9, 3.5933490e+2
-0.022, -1.1286080e-8, -1.9252973e-9, 3.5966824e+2
-0.021, -1.1321747e-8, -1.9260062e-9, 3.6000159e+2
-0.020, -1.1358477e-8, -1.9189152e-9, 3.6033493e+2
-0.019, -1.1385523e-8, -1.9165516e-9, 3.6066827e+2
-0.018, -1.1419891e-8, -1.9144242e-9, 3.6100162e+2
-0.017, -1.1454023e-8, -1.9140698e-9, 3.6133496e+2
-0.016, -1.1475872e-8, -1.9134787e-9, 3.6166830e+2
-0.015, -1.1512248e-8, -1.9134787e-9, 3.6200165e+2
-0.014, -1.1539766e-8, -1.9117059e-9, 3.6233499e+2
-0.013, -1.1566456e-8, -1.9099335e-9, 3.6266833e+2
-0.012, -1.1600707e-8, -1.9095787e-9, 3.6300168e+2
-0.011, -1.1624328e-8, -1.9087514e-9, 3.6333502e+2
-0.010, -1.1652201e-8, -1.9067423e-9, 3.6366837e+2
-0.009, -1.1675349e-8, -1.9054422e-9, 3.6400171e+2
-0.008, -1.1698615e-8, -1.9055606e-9, 3.6433505e+2
-0.007, -1.1724362e-8, -1.9034332e-9, 3.6466840e+2
-0.006, -1.1745384e-8, -1.9018969e-9, 3.6500174e+2
-0.005, -1.1762154e-8, -1.9000062e-9, 3.6533508e+2
-0.004, -1.1785303e-8, -1.8972877e-9, 3.6566843e+2
-0.003, -1.1798177e-8, -1.8979969e-9, 3.6600177e+2
-0.002, -1.1815538e-8, -1.8949240e-9, 3.6633511e+2
-0.001, -1.1835615e-8, -1.8912605e-9, 3.6666846e+2
-0.000, -1.1873172e-8, -1.8983513e-9, 3.6700180e+2
0.001, -1.1879195e-8, -1.8959878e-9, 3.6733514e+2
0.002, -1.1889588e-8, -1.8926787e-9, 3.6766849e+2
0.003, -1.1897265e-8, -1.8893695e-9, 3.6800183e+2
0.004, -1.1914508e-8, -1.8867692e-9, 3.6833517e+2
0.005, -1.1920886e-8, -1.8873603e-9, 3.6866852e+2
0.006, -1.1933523e-8, -1.8851147e-9, 3.6900186e+2
0.007, -1.1951711e-8, -1.8818056e-9, 3.6933521e+2
0.008, -1.1957616e-8, -1.8813331e-9, 3.6966855e+2
0.009, -1.1975332e-8, -1.8810966e-9, 3.7000189e+2
0.010, -1.1987969e-8, -1.8809785e-9, 3.7033524e+2
0.011, -1.2004149e-8, -1.8836965e-9, 3.7066858e+2
0.012, -1.2025525e-8, -1.8821602e-9, 3.7100192e+2
0.013, -1.2035210e-8, -1.8805055e-9, 3.7133527e+2
0.014, -1.2053162e-8, -1.8762512e-9, 3.7166861e+2
0.015, -1.2071822e-8, -1.8723509e-9, 3.7200195e+2
0.016, -1.2082806e-8, -1.8699873e-9, 3.7233530e+2
0.017, -1.2105836e-8, -1.8651416e-9, 3.7266864e+2
0.018, -1.2126386e-8, -1.8639599e-9, 3.7300198e+2
0.019, -1.2144219e-8, -1.8643145e-9, 3.7333533e+2
0.020, -1.2165124e-8, -1.8651416e-9, 3.7366867e+2
0.021, -1.2179768e-8, -1.8623054e-9, 3.7400201e+2
0.022, -1.2199256e-8, -1.8588779e-9, 3.7433536e+2
0.023, -1.2226183e-8, -1.8575780e-9, 3.7466870e+2
0.024, -1.2243899e-8, -1.8567509e-9, 3.7500204e+2
0.025, -1.2271536e-8, -1.8520234e-9, 3.7533539e+2
0.026, -1.2291022e-8, -1.8478868e-9, 3.7566873e+2
0.027, -1.2317831e-8, -1.8452868e-9, 3.7600208e+2
0.028, -1.2348066e-8, -1.8394959e-9, 3.7633542e+2
0.029, -1.2367200e-8, -1.8367777e-9, 3.7666876e+2
0.030, -1.2401095e-8, -1.8407960e-9, 3.7700211e+2
0.031, -1.2432510e-8, -1.8367777e-9, 3.7733545e+2
0.032, -1.2460618e-8, -1.8350050e-9, 3.7766879e+2
0.033, -1.2496168e-8, -1.8318141e-9, 3.7800214e+2
0.034, -1.2526284e-8, -1.8298049e-9, 3.7833548e+2
0.035, -1.2555339e-8, -1.8294504e-9, 3.7866882e+2
0.036, -1.2591713e-8, -1.8209411e-9, 3.7900217e+2
0.037, -1.2624074e-8, -1.8220049e-9, 3.7933551e+2
0.038, -1.2664820e-8, -1.8241322e-9, 3.7966885e+2
0.039, -1.2709109e-8, -1.8249594e-9, 3.8000220e+2
0.040, -1.2735801e-8, -1.8184593e-9, 3.8033554e+2
0.041, -1.2778316e-8, -1.8165683e-9, 3.8066888e+2
0.042, -1.2819181e-8, -1.8143229e-9, 3.8100223e+2
0.043, -1.2858745e-8, -1.8127866e-9, 3.8133557e+2
0.044, -1.2905987e-8, -1.8092409e-9, 3.8166891e+2
0.045, -1.2945315e-8, -1.8056954e-9, 3.8200226e+2
0.046, -1.2993029e-8, -1.8052227e-9, 3.8233560e+2
0.047, -1.3042278e-8, -1.8021500e-9, 3.8266895e+2
0.048, -1.3079599e-8, -1.7974227e-9, 3.8300229e+2
0.049, -1.3133809e-8, -1.7969498e-9, 3.8333563e+2
0.050, -1.3182232e-8, -1.7945861e-9, 3.8366898e+2
0.051, -1.3234316e-8, -1.7913953e-9, 3.8400232e+2
0.052, -1.3292421e-8, -1.7899771e-9, 3.8433566e+2
0.053, -1.3338718e-8, -1.7905679e-9, 3.8466901e+2
0.054, -1.3389622e-8, -1.7902134e-9, 3.8500235e+2
0.055, -1.3451390e-8, -1.7924588e-9, 3.8533569e+2
0.056, -1.3498868e-8, -1.7886771e-9, 3.8566904e+2
0.057, -1.3559218e-8, -1.7830041e-9, 3.8600238e+2
0.058, -1.3617444e-8, -1.7812316e-9, 3.8633572e+2
0.059, -1.3674723e-8, -1.7793405e-9, 3.8666907e+2
0.060, -1.3747239e-8, -1.7844225e-9, 3.8700241e+2
0.061, -1.3797079e-8, -1.7807587e-9, 3.8733575e+2
0.062, -1.3862744e-8, -1.7804042e-9, 3.8766910e+2
0.063, -1.3933371e-8, -1.7783951e-9, 3.8800244e+2
0.064, -1.3986988e-8, -1.7733131e-9, 3.8833578e+2
0.065, -1.4061512e-8, -1.7710676e-9, 3.8866913e+2
0.066, -1.4124461e-8, -1.7663403e-9, 3.8900247e+2
0.067, -1.4190600e-8, -1.7653948e-9, 3.8933582e+2
0.068, -1.4265713e-8, -1.7662222e-9, 3.8966916e+2
0.069, -1.4329371e-8, -1.7645676e-9, 3.9000250e+2
0.070, -1.4407437e-8, -1.7620856e-9, 3.9033585e+2
0.071, -1.4485859e-8, -1.7581858e-9, 3.9066919e+2
0.072, -1.4552940e-8, -1.7566492e-9, 3.9100253e+2
0.073, -1.4635024e-8, -1.7545220e-9, 3.9133588e+2
0.074, -1.4709428e-8, -1.7551128e-9, 3.9166922e+2
0.075, -1.4785722e-8, -1.7529854e-9, 3.9200256e+2
0.076, -1.4872174e-8, -1.7519221e-9, 3.9233591e+2
0.077, -1.4940202e-8, -1.7475491e-9, 3.9266925e+2
0.078, -1.5023348e-8, -1.7435309e-9, 3.9300259e+2
0.079, -1.5106256e-8, -1.7425854e-9, 3.9333594e+2
0.080, -1.5179364e-8, -1.7412854e-9, 3.9366928e+2
0.081, -1.5267823e-8, -1.7392762e-9, 3.9400262e+2
0.082, -1.5348604e-8, -1.7391582e-9, 3.9433597e+2
0.083, -1.5429388e-8, -1.7388037e-9, 3.9466931e+2
0.084, -1.5517847e-8, -1.7367945e-9, 3.9500266e+2
0.085, -1.5593788e-8, -1.7333671e-9, 3.9533600e+2
0.086, -1.5679296e-8, -1.7280487e-9, 3.9566934e+2
0.087, -1.5765982e-8, -1.7263944e-9, 3.9600269e+2
0.088, -1.5844403e-8, -1.7237943e-9, 3.9633603e+2
0.089, -1.5934045e-8, -1.7226124e-9, 3.9666937e+2
0.090, -1.6018605e-8, -1.7203671e-9, 3.9700272e+2
0.091, -1.6101868e-8, -1.7168215e-9, 3.9733606e+2
0.092, -1.6194109e-8, -1.7163487e-9, 3.9766940e+2
0.093, -1.6273001e-8, -1.7162305e-9, 3.9800275e+2
0.094, -1.6362760e-8, -1.7155214e-9, 3.9833609e+2
0.095, -1.6453226e-8, -1.7123305e-9, 3.9866943e+2
0.096, -1.6535662e-8, -1.7091396e-9, 3.9900278e+2
0.097, -1.6625421e-8, -1.7057122e-9, 3.9933612e+2
0.098, -1.6711756e-8, -1.7034667e-9, 3.9966946e+2
0.099, -1.6791947e-8, -1.7011030e-9, 4.0000281e+2
