Dec. 15, 2005   04:16:34
Cyclic Voltammetry
File: d:\ida_biofilms\12_04_18_psoralenbiofilm\psoralen\psoralen_100um_pyo_transfer_gc.txt
Data Source:  Experiment
Instrument Model:  CHI760B
Header: 
Note: 

Init E (V) = 0.1
High E (V) = 0.1
Low E (V) = -0.5
Init P/N = N
Scan Rate (V/s) = 0.003
Segment = 2
Sample Interval (V) = 0.001
Quiet Time (sec) = 2
Sensitivity (A/V) = 1e-8
2nd E (V) = 0.1
Sens 2 (A/V) = 1e-8

Potential/V, i1/A, i2/A, Time/s

0.100, -1.0037344e-7, -1.0019017e-7, 3.3333334e-1
0.099, -1.0037344e-7, -1.0019017e-7, 6.6666669e-1
0.098, -1.0037344e-7, -1.0019017e-7, 1.0000000e+0
0.097, -1.0037344e-7, -1.0019017e-7, 1.3333334e+0
0.096, -1.0037344e-7, -9.9977242e-8, 1.6666667e+0
0.095, -1.0006809e-7, -8.5183636e-8, 2.0000000e+0
0.094, -8.6505814e-8, -7.7127368e-8, 2.3333333e+0
0.093, -7.9291880e-8, -7.0705639e-8, 2.6666665e+0
0.092, -7.3299397e-8, -6.5301549e-8, 2.9999998e+0
0.091, -6.8108285e-8, -6.0647679e-8, 3.3333330e+0
0.090, -6.3484293e-8, -5.6626380e-8, 3.6666663e+0
0.089, -5.9284204e-8, -5.3106358e-8, 3.9999995e+0
0.088, -5.5545446e-8, -4.9997546e-8, 4.3333330e+0
0.087, -5.2145523e-8, -4.7268109e-8, 4.6666665e+0
0.086, -4.9069360e-8, -4.4811049e-8, 5.0000000e+0
0.085, -4.6264425e-8, -4.2640853e-8, 5.3333335e+0
0.084, -4.3728853e-8, -4.0676888e-8, 5.6666670e+0
0.083, -4.1416033e-8, -3.8899525e-8, 6.0000005e+0
0.082, -3.9256030e-8, -3.7278127e-8, 6.3333340e+0
0.081, -3.7286334e-8, -3.5813201e-8, 6.6666675e+0
0.080, -3.5483335e-8, -3.4468744e-8, 7.0000010e+0
0.079, -3.3774107e-8, -3.3223646e-8, 7.3333344e+0
0.078, -3.2229636e-8, -3.2087581e-8, 7.6666679e+0
0.077, -3.0791877e-8, -3.1039978e-8, 8.0000010e+0
0.076, -2.9412064e-8, -3.0065436e-8, 8.3333340e+0
0.075, -2.8127239e-8, -2.9163727e-8, 8.6666670e+0
0.074, -2.6951131e-8, -2.8314217e-8, 9.0000000e+0
0.073, -2.5816508e-8, -2.7509069e-8, 9.3333330e+0
0.072, -2.4748223e-8, -2.6779459e-8, 9.6666660e+0
0.071, -2.3746409e-8, -2.6080295e-8, 9.9999990e+0
0.070, -2.2814232e-8, -2.5425765e-8, 1.0333332e+1
0.069, -2.1897590e-8, -2.4803610e-8, 1.0666665e+1
0.068, -2.1043148e-8, -2.4204869e-8, 1.0999998e+1
0.067, -2.0244645e-8, -2.3651724e-8, 1.1333331e+1
0.066, -1.9446473e-8, -2.3123741e-8, 1.1666664e+1
0.065, -1.8732766e-8, -2.2617165e-8, 1.1999997e+1
0.064, -1.8037033e-8, -2.2152991e-8, 1.2333330e+1
0.063, -1.7352754e-8, -2.1689329e-8, 1.2666663e+1
0.062, -1.6710628e-8, -2.1233879e-8, 1.2999996e+1
0.061, -1.6119770e-8, -2.0829209e-8, 1.3333329e+1
0.060, -1.5455511e-8, -2.0421174e-8, 1.3666662e+1
0.059, -1.4944478e-8, -2.0060110e-8, 1.3999995e+1
0.058, -1.4343157e-8, -1.9573115e-8, 1.4333328e+1
0.057, -1.3961189e-8, -1.9347363e-8, 1.4666661e+1
0.056, -1.3347405e-8, -1.8991740e-8, 1.4999994e+1
0.055, -1.2939819e-8, -1.8679962e-8, 1.5333327e+1
0.054, -1.2405325e-8, -1.8376294e-8, 1.5666660e+1
0.053, -1.2005288e-8, -1.8069501e-8, 1.5999993e+1
0.052, -1.1538335e-8, -1.7779247e-8, 1.6333326e+1
0.051, -1.1117320e-8, -1.7495204e-8, 1.6666660e+1
0.050, -1.0690994e-8, -1.7228409e-8, 1.6999994e+1
0.049, -1.0320688e-8, -1.6965808e-8, 1.7333328e+1
0.048, -9.9531636e-9, -1.6714157e-8, 1.7666662e+1
0.047, -9.5538288e-9, -1.6472500e-8, 1.7999996e+1
0.046, -9.2087342e-9, -1.6233241e-8, 1.8333330e+1
0.045, -8.8612824e-9, -1.6004222e-8, 1.8666664e+1
0.044, -8.5049239e-9, -1.5782701e-8, 1.8999998e+1
0.043, -8.2029414e-9, -1.5571393e-8, 1.9333332e+1
0.042, -7.8955100e-9, -1.5354068e-8, 1.9666666e+1
0.041, -7.5810735e-9, -1.5143941e-8, 2.0000000e+1
0.040, -7.3008346e-9, -1.4949885e-8, 2.0333334e+1
0.039, -7.0220572e-9, -1.4758217e-8, 2.0666668e+1
0.038, -6.7347723e-9, -1.4571735e-8, 2.1000002e+1
0.037, -6.4651089e-9, -1.4390341e-8, 2.1333336e+1
0.036, -6.2118537e-9, -1.4218404e-8, 2.1666670e+1
0.035, -5.9595888e-9, -1.4049120e-8, 2.2000004e+1
0.034, -5.6896621e-9, -1.3883303e-8, 2.2333338e+1
0.033, -5.4680234e-9, -1.3722469e-8, 2.2666672e+1
0.032, -5.2262705e-9, -1.3561484e-8, 2.3000006e+1
0.031, -4.9932734e-9, -1.3411947e-8, 2.3333340e+1
0.030, -4.7722737e-9, -1.3260915e-8, 2.3666674e+1
0.029, -4.5669473e-9, -1.3117281e-8, 2.4000008e+1
0.028, -4.3470343e-9, -1.2969501e-8, 2.4333342e+1
0.027, -4.1502468e-9, -1.2829532e-8, 2.4666676e+1
0.026, -3.9443209e-9, -1.2694295e-8, 2.5000010e+1
0.025, -3.7436587e-9, -1.2568696e-8, 2.5333344e+1
0.024, -3.5617855e-9, -1.2438954e-8, 2.5666677e+1
0.023, -3.3547813e-9, -1.2315553e-8, 2.6000011e+1
0.022, -3.1840270e-9, -1.2181473e-8, 2.6333345e+1
0.021, -2.9964182e-9, -1.2056794e-8, 2.6666679e+1
0.020, -2.8072273e-9, -1.1940007e-8, 2.7000013e+1
0.019, -2.6681861e-9, -1.1826824e-8, 2.7333347e+1
0.018, -2.4727644e-9, -1.1706538e-8, 2.7666681e+1
0.017, -2.3214695e-9, -1.1602725e-8, 2.8000015e+1
0.016, -2.1765330e-9, -1.1492249e-8, 2.8333349e+1
0.015, -2.0064339e-9, -1.1388452e-8, 2.8666683e+1
0.014, -1.8615772e-9, -1.1278095e-8, 2.9000017e+1
0.013, -1.7275364e-9, -1.1180688e-8, 2.9333351e+1
0.012, -1.5596502e-9, -1.1078784e-8, 2.9666685e+1
0.011, -1.4234446e-9, -1.0978788e-8, 3.0000019e+1
0.010, -1.2857054e-9, -1.0883737e-8, 3.0333353e+1
0.009, -1.1229634e-9, -1.0788456e-8, 3.0666687e+1
0.008, -1.0114012e-9, -1.0695075e-8, 3.1000021e+1
0.007, -8.7082619e-10, -1.0611543e-8, 3.1333355e+1
0.006, -7.4020440e-10, -1.0514543e-8, 3.1666689e+1
0.005, -6.2270705e-10, -1.0434853e-8, 3.2000023e+1
0.004, -4.8589449e-10, -1.0349364e-8, 3.2333355e+1
0.003, -3.7493944e-10, -1.0265233e-8, 3.2666687e+1
0.002, -2.3242334e-10, -1.0185983e-8, 3.3000019e+1
0.001, -1.2401651e-10, -1.0098146e-8, 3.3333351e+1
-0.000, -1.4123890e-11, -1.0023944e-8, 3.3666683e+1
-0.001, 1.2566828e-10, -9.9389270e-9, 3.4000015e+1
-0.002, 2.3299671e-10, -9.8714592e-9, 3.4333347e+1
-0.003, 3.3391070e-10, -9.7852348e-9, 3.4666679e+1
-0.004, 4.6486798e-10, -9.7155226e-9, 3.5000011e+1
-0.005, 5.6544641e-10, -9.6429185e-9, 3.5333344e+1
-0.006, 6.7218375e-10, -9.5754906e-9, 3.5666676e+1
-0.007, 7.8908996e-10, -9.4950421e-9, 3.6000008e+1
-0.008, 8.8191193e-10, -9.4319121e-9, 3.6333340e+1
-0.009, 9.7764963e-10, -9.3539718e-9, 3.6666672e+1
-0.010, 1.0919278e-9, -9.2975920e-9, 3.7000004e+1
-0.011, 1.1948227e-9, -9.2269286e-9, 3.7333336e+1
-0.012, 1.2921101e-9, -9.1619858e-9, 3.7666668e+1
-0.013, 1.3856510e-9, -9.0834620e-9, 3.8000000e+1
-0.014, 1.4942655e-9, -9.0179677e-9, 3.8333332e+1
-0.015, 1.5749057e-9, -8.9514263e-9, 3.8666664e+1
-0.016, 1.6622318e-9, -8.8995673e-9, 3.8999996e+1
-0.017, 1.7812629e-9, -8.8279224e-9, 3.9333328e+1
-0.018, 1.8665041e-9, -8.7739940e-9, 3.9666660e+1
-0.019, 1.9604285e-9, -8.7116554e-9, 3.9999992e+1
-0.020, 2.0675492e-9, -8.6573362e-9, 4.0333324e+1
-0.021, 2.1436122e-9, -8.5958520e-9, 4.0666656e+1
-0.022, 2.2319129e-9, -8.5503515e-9, 4.0999989e+1
-0.023, 2.3327389e-9, -8.4818295e-9, 4.1333321e+1
-0.024, 2.4056626e-9, -8.4362890e-9, 4.1666653e+1
-0.025, 2.5000262e-9, -8.3770564e-9, 4.1999985e+1
-0.026, 2.5814253e-9, -8.3235516e-9, 4.2333317e+1
-0.027, 2.6657319e-9, -8.2699279e-9, 4.2666649e+1
-0.028, 2.7370577e-9, -8.2236289e-9, 4.2999981e+1
-0.029, 2.8215721e-9, -8.1636857e-9, 4.3333313e+1
-0.030, 2.9274627e-9, -8.1219484e-9, 4.3666645e+1
-0.031, 3.0003944e-9, -8.0657196e-9, 4.3999977e+1
-0.032, 3.0676703e-9, -8.0181737e-9, 4.4333309e+1
-0.033, 3.1601968e-9, -7.9775226e-9, 4.4666641e+1
-0.034, 3.2220726e-9, -7.9326297e-9, 4.4999973e+1
-0.035, 3.2978880e-9, -7.8806748e-9, 4.5333305e+1
-0.036, 3.3882097e-9, -7.8348865e-9, 4.5666637e+1
-0.037, 3.4382395e-9, -7.7878930e-9, 4.5999969e+1
-0.038, 3.5010579e-9, -7.7410736e-9, 4.6333302e+1
-0.039, 3.5923942e-9, -7.6947035e-9, 4.6666634e+1
-0.040, 3.6439975e-9, -7.6517352e-9, 4.6999966e+1
-0.041, 3.7224728e-9, -7.6125453e-9, 4.7333298e+1
-0.042, 3.7828549e-9, -7.5695850e-9, 4.7666630e+1
-0.043, 3.8438763e-9, -7.5288691e-9, 4.7999962e+1
-0.044, 3.9112642e-9, -7.4833615e-9, 4.8333294e+1
-0.045, 3.9768628e-9, -7.4405371e-9, 4.8666626e+1
-0.046, 4.0446100e-9, -7.4006445e-9, 4.8999958e+1
-0.047, 4.1075401e-9, -7.3598092e-9, 4.9333290e+1
-0.048, 4.1661492e-9, -7.3234867e-9, 4.9666622e+1
-0.049, 4.2359574e-9, -7.2844570e-9, 4.9999954e+1
-0.050, 4.2756820e-9, -7.2415931e-9, 5.0333286e+1
-0.051, 4.3317030e-9, -7.1998469e-9, 5.0666618e+1
-0.052, 4.3958877e-9, -7.1696276e-9, 5.0999950e+1
-0.053, 4.4398543e-9, -7.1303505e-9, 5.1333282e+1
-0.054, 4.4837489e-9, -7.0896506e-9, 5.1666615e+1
-0.055, 4.5566324e-9, -7.0531692e-9, 5.1999947e+1
-0.056, 4.6039941e-9, -7.0197146e-9, 5.2333279e+1
-0.057, 4.6617963e-9, -6.9844712e-9, 5.2666611e+1
-0.058, 4.6965605e-9, -6.9481092e-9, 5.2999943e+1
-0.059, 4.7671755e-9, -6.9086794e-9, 5.3333275e+1
-0.060, 4.7905009e-9, -6.8750818e-9, 5.3666607e+1
-0.061, 4.8408419e-9, -6.8425221e-9, 5.3999939e+1
-0.062, 4.9049547e-9, -6.8046182e-9, 5.4333271e+1
-0.063, 4.9336162e-9, -6.7711960e-9, 5.4666603e+1
-0.064, 4.9702575e-9, -6.7401147e-9, 5.4999935e+1
-0.065, 5.0262785e-9, -6.7101347e-9, 5.5333267e+1
-0.066, 5.0665943e-9, -6.6695076e-9, 5.5666599e+1
-0.067, 5.1086437e-9, -6.6427552e-9, 5.5999931e+1
-0.068, 5.1669091e-9, -6.6080630e-9, 5.6333263e+1
-0.069, 5.1839719e-9, -6.5767334e-9, 5.6666595e+1
-0.070, 5.2287690e-9, -6.5489907e-9, 5.6999928e+1
-0.071, 5.2741096e-9, -6.5139703e-9, 5.7333260e+1
-0.072, 5.3106715e-9, -6.4819781e-9, 5.7666592e+1
-0.073, 5.3385816e-9, -6.4530532e-9, 5.7999924e+1
-0.074, 5.3685056e-9, -6.4209891e-9, 5.8333256e+1
-0.075, 5.4066889e-9, -6.3895551e-9, 5.8666588e+1
-0.076, 5.4568541e-9, -6.3663901e-9, 5.8999920e+1
-0.077, 5.4753149e-9, -6.3337828e-9, 5.9333252e+1
-0.078, 5.5165974e-9, -6.3063430e-9, 5.9666584e+1
-0.079, 5.5412888e-9, -6.2780656e-9, 5.9999916e+1
-0.080, 5.5665232e-9, -6.2499712e-9, 6.0333248e+1
-0.081, 5.6200595e-9, -6.2226597e-9, 6.0666580e+1
-0.082, 5.6465805e-9, -6.1927841e-9, 6.0999912e+1
-0.083, 5.6745226e-9, -6.1681567e-9, 6.1333244e+1
-0.084, 5.7215090e-9, -6.1387042e-9, 6.1666576e+1
-0.085, 5.7451857e-9, -6.1116969e-9, 6.1999908e+1
-0.086, 5.7574074e-9, -6.0884511e-9, 6.2333241e+1
-0.087, 5.7931380e-9, -6.0582162e-9, 6.2666573e+1
-0.088, 5.8051364e-9, -6.0324545e-9, 6.2999905e+1
-0.089, 5.8428484e-9, -6.0054948e-9, 6.3333237e+1
-0.090, 5.8623075e-9, -5.9816898e-9, 6.3666569e+1
-0.091, 5.8980465e-9, -5.9578777e-9, 6.3999901e+1
-0.092, 5.9197420e-9, -5.9352070e-9, 6.4333237e+1
-0.093, 5.9430754e-9, -5.9094774e-9, 6.4666573e+1
-0.094, 5.9879928e-9, -5.8811032e-9, 6.4999908e+1
-0.095, 6.0000707e-9, -5.8585532e-9, 6.5333244e+1
-0.096, 6.0084582e-9, -5.8320087e-9, 6.5666580e+1
-0.097, 6.0479675e-9, -5.8082037e-9, 6.5999916e+1
-0.098, 6.0728902e-9, -5.7823621e-9, 6.6333252e+1
-0.099, 6.0901209e-9, -5.7639338e-9, 6.6666588e+1
-0.100, 6.1292065e-9, -5.7369176e-9, 6.6999924e+1
-0.101, 6.1415966e-9, -5.7203584e-9, 6.7333260e+1
-0.102, 6.1727738e-9, -5.6955392e-9, 6.7666595e+1
-0.103, 6.1909864e-9, -5.6718625e-9, 6.7999931e+1
-0.104, 6.2089445e-9, -5.6518523e-9, 6.8333267e+1
-0.105, 6.2188494e-9, -5.6267058e-9, 6.8666603e+1
-0.106, 6.2387477e-9, -5.6073826e-9, 6.8999939e+1
-0.107, 6.2607626e-9, -5.5826592e-9, 6.9333275e+1
-0.108, 6.2820114e-9, -5.5629044e-9, 6.9666611e+1
-0.109, 6.2952714e-9, -5.5398028e-9, 6.9999947e+1
-0.110, 6.3381762e-9, -5.5236589e-9, 7.0333282e+1
-0.111, 6.3449259e-9, -5.5052540e-9, 7.0666618e+1
-0.112, 6.3488561e-9, -5.4761533e-9, 7.0999954e+1
-0.113, 6.3879657e-9, -5.4630851e-9, 7.1333290e+1
-0.114, 6.3922316e-9, -5.4348628e-9, 7.1666626e+1
-0.115, 6.4083441e-9, -5.4195737e-9, 7.1999962e+1
-0.116, 6.4384906e-9, -5.3976703e-9, 7.2333298e+1
-0.117, 6.4377956e-9, -5.3836828e-9, 7.2666634e+1
-0.118, 6.4767778e-9, -5.3697837e-9, 7.2999969e+1
-0.119, 6.4873937e-9, -5.3362492e-9, 7.3333305e+1
-0.120, 6.4937686e-9, -5.3251701e-9, 7.3666641e+1
-0.121, 6.5319918e-9, -5.2985216e-9, 7.3999977e+1
-0.122, 6.5361374e-9, -5.2842388e-9, 7.4333313e+1
-0.123, 6.5501249e-9, -5.2678955e-9, 7.4666649e+1
-0.124, 6.5793531e-9, -5.2422773e-9, 7.4999985e+1
-0.125, 6.5815504e-9, -5.2258615e-9, 7.5333321e+1
-0.126, 6.6050112e-9, -5.2085598e-9, 7.5666656e+1
-0.127, 6.6218422e-9, -5.1906981e-9, 7.5999992e+1
-0.128, 6.6323627e-9, -5.1735474e-9, 7.6333328e+1
-0.129, 6.6637318e-9, -5.1497109e-9, 7.6666664e+1
-0.130, 6.6741244e-9, -5.1388471e-9, 7.7000000e+1
-0.131, 6.6725350e-9, -5.1221680e-9, 7.7333336e+1
-0.132, 6.7103665e-9, -5.1015023e-9, 7.7666672e+1
-0.133, 6.7187464e-9, -5.0844400e-9, 7.8000008e+1
-0.134, 6.7272294e-9, -5.0717790e-9, 7.8333344e+1
-0.135, 6.7454904e-9, -5.0514410e-9, 7.8666679e+1
-0.136, 6.7417036e-9, -5.0398419e-9, 7.9000015e+1
-0.137, 6.7769235e-9, -5.0202713e-9, 7.9333351e+1
-0.138, 6.7825154e-9, -4.9971778e-9, 7.9666687e+1
-0.139, 6.8110011e-9, -4.9875197e-9, 8.0000023e+1
-0.140, 6.8221042e-9, -4.9715041e-9, 8.0333359e+1
-0.141, 6.8272250e-9, -4.9486975e-9, 8.0666695e+1
-0.142, 6.8522756e-9, -4.9327533e-9, 8.1000031e+1
-0.143, 6.8646488e-9, -4.9138058e-9, 8.1333366e+1
-0.144, 6.8716948e-9, -4.9019273e-9, 8.1666702e+1
-0.145, 6.9020176e-9, -4.8876525e-9, 8.2000038e+1
-0.146, 6.9108204e-9, -4.8686646e-9, 8.2333374e+1
-0.147, 6.9266526e-9, -4.8519935e-9, 8.2666710e+1
-0.148, 6.9478858e-9, -4.8414095e-9, 8.3000046e+1
-0.149, 6.9518791e-9, -4.8306252e-9, 8.3333382e+1
-0.150, 6.9702040e-9, -4.8118531e-9, 8.3666718e+1
-0.151, 6.9997363e-9, -4.7952775e-9, 8.4000053e+1
-0.152, 6.9933779e-9, -4.7860196e-9, 8.4333389e+1
-0.153, 7.0196027e-9, -4.7655941e-9, 8.4666725e+1
-0.154, 7.0191395e-9, -4.7550417e-9, 8.5000061e+1
-0.155, 7.0354993e-9, -4.7397761e-9, 8.5333397e+1
-0.156, 7.0664132e-9, -4.7229771e-9, 8.5666733e+1
-0.157, 7.0739299e-9, -4.7055395e-9, 8.6000069e+1
-0.158, 7.0956259e-9, -4.6930939e-9, 8.6333405e+1
-0.159, 7.1198540e-9, -4.6842588e-9, 8.6666740e+1
-0.160, 7.1092217e-9, -4.6621396e-9, 8.7000076e+1
-0.161, 7.1570785e-9, -4.6543116e-9, 8.7333412e+1
-0.162, 7.1639645e-9, -4.6424811e-9, 8.7666748e+1
-0.163, 7.1666086e-9, -4.6303947e-9, 8.8000084e+1
-0.164, 7.2053910e-9, -4.6138915e-9, 8.8333420e+1
-0.165, 7.2107427e-9, -4.5971005e-9, 8.8666756e+1
-0.166, 7.2124999e-9, -4.5884336e-9, 8.9000092e+1
-0.167, 7.2497248e-9, -4.5731841e-9, 8.9333427e+1
-0.168, 7.2608124e-9, -4.5578550e-9, 8.9666763e+1
-0.169, 7.2749513e-9, -4.5512407e-9, 9.0000099e+1
-0.170, 7.2873645e-9, -4.5332036e-9, 9.0333435e+1
-0.171, 7.3150117e-9, -4.5228670e-9, 9.0666771e+1
-0.172, 7.3410291e-9, -4.5066351e-9, 9.1000107e+1
-0.173, 7.3355575e-9, -4.4947486e-9, 9.1333443e+1
-0.174, 7.3756254e-9, -4.4861133e-9, 9.1666779e+1
-0.175, 7.3811615e-9, -4.4688910e-9, 9.2000114e+1
-0.176, 7.4051414e-9, -4.4597925e-9, 9.2333450e+1
-0.177, 7.4519200e-9, -4.4447988e-9, 9.2666786e+1
-0.178, 7.4598763e-9, -4.4342867e-9, 9.3000122e+1
-0.179, 7.4700131e-9, -4.4241655e-9, 9.3333458e+1
-0.180, 7.5129334e-9, -4.4087884e-9, 9.3666794e+1
-0.181, 7.5174871e-9, -4.3974291e-9, 9.4000130e+1
-0.182, 7.5422815e-9, -4.3905994e-9, 9.4333466e+1
-0.183, 7.5702085e-9, -4.3762687e-9, 9.4666801e+1
-0.184, 7.5711268e-9, -4.3659880e-9, 9.5000137e+1
-0.185, 7.6112032e-9, -4.3553881e-9, 9.5333473e+1
-0.186, 7.6300868e-9, -4.3409294e-9, 9.5666809e+1
-0.187, 7.6540756e-9, -4.3293307e-9, 9.6000145e+1
-0.188, 7.6639246e-9, -4.3166293e-9, 9.6333481e+1
-0.189, 7.6905575e-9, -4.3021791e-9, 9.6666817e+1
-0.190, 7.7246991e-9, -4.2955808e-9, 9.7000153e+1
-0.191, 7.7515629e-9, -4.2834545e-9, 9.7333488e+1
-0.192, 7.7626741e-9, -4.2721675e-9, 9.7666824e+1
-0.193, 7.8122486e-9, -4.2574535e-9, 9.8000160e+1
-0.194, 7.8129991e-9, -4.2464778e-9, 9.8333496e+1
-0.195, 7.8495050e-9, -4.2417887e-9, 9.8666832e+1
-0.196, 7.8935836e-9, -4.2343355e-9, 9.9000168e+1
-0.197, 7.9053022e-9, -4.2176724e-9, 9.9333504e+1
-0.198, 7.9317264e-9, -4.2142294e-9, 9.9666840e+1
-0.199, 7.9593097e-9, -4.2047317e-9, 1.0000018e+2
-0.200, 7.9874525e-9, -4.1987325e-9, 1.0033351e+2
-0.201, 8.0058484e-9, -4.1863109e-9, 1.0066685e+2
-0.202, 8.0398141e-9, -4.1753037e-9, 1.0100018e+2
-0.203, 8.0636422e-9, -4.1604458e-9, 1.0133352e+2
-0.204, 8.0479134e-9, -4.1540948e-9, 1.0166685e+2
-0.205, 8.0923837e-9, -4.1485273e-9, 1.0200019e+2
-0.206, 8.1505291e-9, -4.1383026e-9, 1.0233353e+2
-0.207, 8.1702760e-9, -4.1353951e-9, 1.0266686e+2
-0.208, 8.1998799e-9, -4.1169903e-9, 1.0300020e+2
-0.209, 8.2457801e-9, -4.1148014e-9, 1.0333353e+2
-0.210, 8.2846494e-9, -4.1048880e-9, 1.0366687e+2
-0.211, 8.2959133e-9, -4.1018846e-9, 1.0400021e+2
-0.212, 8.3558485e-9, -4.0895749e-9, 1.0433354e+2
-0.213, 8.3755634e-9, -4.0850137e-9, 1.0466688e+2
-0.214, 8.4142817e-9, -4.0812913e-9, 1.0500021e+2
-0.215, 8.4605807e-9, -4.0706349e-9, 1.0533355e+2
-0.216, 8.4944745e-9, -4.0603783e-9, 1.0566689e+2
-0.217, 8.5112806e-9, -4.0609298e-9, 1.0600022e+2
-0.218, 8.5654008e-9, -4.0525423e-9, 1.0633356e+2
-0.219, 8.5866647e-9, -4.0554897e-9, 1.0666689e+2
-0.220, 8.6437080e-9, -4.0468224e-9, 1.0700023e+2
-0.221, 8.6812291e-9, -4.0489234e-9, 1.0733356e+2
-0.222, 8.7433838e-9, -4.0352397e-9, 1.0766690e+2
-0.223, 8.7731316e-9, -4.0402801e-9, 1.0800024e+2
-0.224, 8.8040295e-9, -4.0376200e-9, 1.0833357e+2
-0.225, 8.8826893e-9, -4.0321484e-9, 1.0866691e+2
-0.226, 8.9181160e-9, -4.0320525e-9, 1.0900024e+2
-0.227, 8.9519858e-9, -4.0307984e-9, 1.0933358e+2
-0.228, 9.0301890e-9, -4.0308943e-9, 1.0966692e+2
-0.229, 9.0505834e-9, -4.0308943e-9, 1.1000025e+2
-0.230, 9.1110932e-9, -4.0317332e-9, 1.1033359e+2
-0.231, 9.1741112e-9, -4.0357033e-9, 1.1066692e+2
-0.232, 9.2259063e-9, -4.0351438e-9, 1.1100026e+2
-0.233, 9.2709591e-9, -4.0418779e-9, 1.1133360e+2
-0.234, 9.3227310e-9, -4.0430201e-9, 1.1166693e+2
-0.235, 9.3751726e-9, -4.0497783e-9, 1.1200027e+2
-0.236, 9.4419690e-9, -4.0563441e-9, 1.1233360e+2
-0.237, 9.4765502e-9, -4.0606181e-9, 1.1266694e+2
-0.238, 9.5755066e-9, -4.0646602e-9, 1.1300027e+2
-0.239, 9.6177164e-9, -4.0736947e-9, 1.1333361e+2
-0.240, 9.6765254e-9, -4.0829051e-9, 1.1366695e+2
-0.241, 9.7607353e-9, -4.0916999e-9, 1.1400028e+2
-0.242, 9.7946451e-9, -4.1055355e-9, 1.1433362e+2
-0.243, 9.8608188e-9, -4.1156643e-9, 1.1466695e+2
-0.244, 9.9298445e-9, -4.1235486e-9, 1.1500029e+2
-0.245, 1.0000666e-8, -4.1435828e-9, 1.1533363e+2
-0.246, 1.0059667e-8, -4.1537676e-9, 1.1566696e+2
-0.247, 1.0130425e-8, -4.1726516e-9, 1.1600030e+2
-0.248, 1.0208948e-8, -4.1858002e-9, 1.1633363e+2
-0.249, 1.0262294e-8, -4.2014565e-9, 1.1666697e+2
-0.250, 1.0327005e-8, -4.2128958e-9, 1.1700031e+2
-0.251, 1.0398915e-8, -4.2403907e-9, 1.1733364e+2
-0.252, 1.0468156e-8, -4.2557757e-9, 1.1766698e+2
-0.253, 1.0533179e-8, -4.2698987e-9, 1.1800031e+2
-0.254, 1.0607310e-8, -4.2906443e-9, 1.1833365e+2
-0.255, 1.0664832e-8, -4.3102153e-9, 1.1866698e+2
-0.256, 1.0740774e-8, -4.3318309e-9, 1.1900032e+2
-0.257, 1.0802427e-8, -4.3528638e-9, 1.1933366e+2
-0.258, 1.0867170e-8, -4.3717794e-9, 1.1966699e+2
-0.259, 1.0924134e-8, -4.3961350e-9, 1.2000033e+2
-0.260, 1.1002354e-8, -4.4139008e-9, 1.2033366e+2
-0.261, 1.1047645e-8, -4.4383204e-9, 1.2066700e+2
-0.262, 1.1101910e-8, -4.4565573e-9, 1.2100034e+2
-0.263, 1.1176127e-8, -4.4798028e-9, 1.2133367e+2
-0.264, 1.1231069e-8, -4.5002526e-9, 1.2166701e+2
-0.265, 1.1285533e-8, -4.5225712e-9, 1.2200034e+2
-0.266, 1.1340020e-8, -4.5402251e-9, 1.2233368e+2
-0.267, 1.1406440e-8, -4.5679918e-9, 1.2266702e+2
-0.268, 1.1450847e-8, -4.5859490e-9, 1.2300035e+2
-0.269, 1.1500893e-8, -4.6051682e-9, 1.2333369e+2
-0.270, 1.1560860e-8, -4.6274153e-9, 1.2366702e+2
-0.271, 1.1619109e-8, -4.6537121e-9, 1.2400036e+2
-0.272, 1.1638744e-8, -4.6636974e-9, 1.2433369e+2
-0.273, 1.1714774e-8, -4.6869668e-9, 1.2466703e+2
-0.274, 1.1765675e-8, -4.7029269e-9, 1.2500037e+2
-0.275, 1.1778535e-8, -4.7318043e-9, 1.2533370e+2
-0.276, 1.1867180e-8, -4.7408308e-9, 1.2566704e+2
-0.277, 1.1868242e-8, -4.7653863e-9, 1.2600037e+2
-0.278, 1.1917337e-8, -4.7799649e-9, 1.2633371e+2
-0.279, 1.1962869e-8, -4.7988085e-9, 1.2666705e+2
-0.280, 1.2009671e-8, -4.8107269e-9, 1.2700038e+2
-0.281, 1.2040593e-8, -4.8272701e-9, 1.2733372e+2
-0.282, 1.2083170e-8, -4.8417688e-9, 1.2766705e+2
-0.283, 1.2109635e-8, -4.8581041e-9, 1.2800038e+2
-0.284, 1.2132880e-8, -4.8756386e-9, 1.2833371e+2
-0.285, 1.2167406e-8, -4.8883075e-9, 1.2866704e+2
-0.286, 1.2220622e-8, -4.9007451e-9, 1.2900037e+2
-0.287, 1.2244977e-8, -4.9128470e-9, 1.2933369e+2
-0.288, 1.2289193e-8, -4.9297899e-9, 1.2966702e+2
-0.289, 1.2330123e-8, -4.9431859e-9, 1.3000035e+2
-0.290, 1.2355191e-8, -4.9507509e-9, 1.3033368e+2
-0.291, 1.2363505e-8, -4.9648814e-9, 1.3066701e+2
-0.292, 1.2415374e-8, -4.9785251e-9, 1.3100034e+2
-0.293, 1.2426300e-8, -4.9889097e-9, 1.3133366e+2
-0.294, 1.2463700e-8, -4.9936948e-9, 1.3166699e+2
-0.295, 1.2498889e-8, -5.0128102e-9, 1.3200032e+2
-0.296, 1.2511870e-8, -5.0174753e-9, 1.3233365e+2
-0.297, 1.2544549e-8, -5.0292419e-9, 1.3266698e+2
-0.298, 1.2560916e-8, -5.0378453e-9, 1.3300031e+2
-0.299, 1.2579959e-8, -5.0457616e-9, 1.3333363e+2
-0.300, 1.2610244e-8, -5.0520961e-9, 1.3366696e+2
-0.301, 1.2630917e-8, -5.0642059e-9, 1.3400029e+2
-0.302, 1.2661239e-8, -5.0681122e-9, 1.3433362e+2
-0.303, 1.2684189e-8, -5.0769073e-9, 1.3466695e+2
-0.304, 1.2702555e-8, -5.0823314e-9, 1.3500027e+2
-0.305, 1.2717379e-8, -5.0925397e-9, 1.3533360e+2
-0.306, 1.2760907e-8, -5.0907105e-9, 1.3566693e+2
-0.307, 1.2793634e-8, -5.1044022e-9, 1.3600026e+2
-0.308, 1.2819476e-8, -5.1071503e-9, 1.3633359e+2
-0.309, 1.2807853e-8, -5.1155138e-9, 1.3666692e+2
-0.310, 1.2834574e-8, -5.1217444e-9, 1.3700024e+2
-0.311, 1.2864513e-8, -5.1281028e-9, 1.3733357e+2
-0.312, 1.2860160e-8, -5.1303957e-9, 1.3766690e+2
-0.313, 1.2889443e-8, -5.1403726e-9, 1.3800023e+2
-0.314, 1.2917234e-8, -5.1385278e-9, 1.3833356e+2
-0.315, 1.2940097e-8, -5.1464037e-9, 1.3866689e+2
-0.316, 1.2951032e-8, -5.1459561e-9, 1.3900021e+2
-0.317, 1.2963397e-8, -5.1555977e-9, 1.3933354e+2
-0.318, 1.3001933e-8, -5.1601510e-9, 1.3966687e+2
-0.319, 1.3007213e-8, -5.1691140e-9, 1.4000020e+2
-0.320, 1.3023733e-8, -5.1703526e-9, 1.4033353e+2
-0.321, 1.3053217e-8, -5.1788516e-9, 1.4066685e+2
-0.322, 1.3066621e-8, -5.1805134e-9, 1.4100018e+2
-0.323, 1.3089474e-8, -5.1870952e-9, 1.4133351e+2
-0.324, 1.3126699e-8, -5.1877582e-9, 1.4166684e+2
-0.325, 1.3140791e-8, -5.1954832e-9, 1.4200017e+2
-0.326, 1.3150096e-8, -5.1994609e-9, 1.4233350e+2
-0.327, 1.3183231e-8, -5.2030797e-9, 1.4266682e+2
-0.328, 1.3182625e-8, -5.2047731e-9, 1.4300015e+2
-0.329, 1.3196564e-8, -5.2151816e-9, 1.4333348e+2
-0.330, 1.3216262e-8, -5.2120663e-9, 1.4366681e+2
-0.331, 1.3243175e-8, -5.2188640e-9, 1.4400014e+2
-0.332, 1.3254390e-8, -5.2195830e-9, 1.4433347e+2
-0.333, 1.3263967e-8, -5.2274514e-9, 1.4466679e+2
-0.334, 1.3294625e-8, -5.2276832e-9, 1.4500012e+2
-0.335, 1.3303365e-8, -5.2353273e-9, 1.4533345e+2
-0.336, 1.3326114e-8, -5.2293765e-9, 1.4566678e+2
-0.337, 1.3340141e-8, -5.2377005e-9, 1.4600011e+2
-0.338, 1.3357348e-8, -5.2377005e-9, 1.4633344e+2
-0.339, 1.3371599e-8, -5.2425331e-9, 1.4666676e+2
-0.340, 1.3411539e-8, -5.2413829e-9, 1.4700009e+2
-0.341, 1.3424417e-8, -5.2456239e-9, 1.4733342e+2
-0.342, 1.3431638e-8, -5.2451372e-9, 1.4766675e+2
-0.343, 1.3453957e-8, -5.2519504e-9, 1.4800008e+2
-0.344, 1.3474982e-8, -5.2446336e-9, 1.4833340e+2
-0.345, 1.3473711e-8, -5.2588285e-9, 1.4866673e+2
-0.346, 1.3482139e-8, -5.2477889e-9, 1.4900006e+2
-0.347, 1.3502924e-8, -5.2576064e-9, 1.4933339e+2
-0.348, 1.3531314e-8, -5.2539555e-9, 1.4966672e+2
-0.349, 1.3532112e-8, -5.2642606e-9, 1.5000005e+2
-0.350, 1.3555685e-8, -5.2598352e-9, 1.5033337e+2
-0.351, 1.3569210e-8, -5.2648912e-9, 1.5066670e+2
-0.352, 1.3587278e-8, -5.2662896e-9, 1.5100003e+2
-0.353, 1.3598534e-8, -5.2669287e-9, 1.5133336e+2
-0.354, 1.3623256e-8, -5.2644680e-9, 1.5166669e+2
-0.355, 1.3610189e-8, -5.2697486e-9, 1.5200002e+2
-0.356, 1.3643699e-8, -5.2689897e-9, 1.5233334e+2
-0.357, 1.3639322e-8, -5.2694529e-9, 1.5266667e+2
-0.358, 1.3667064e-8, -5.2682863e-9, 1.5300000e+2
-0.359, 1.3676074e-8, -5.2739901e-9, 1.5333333e+2
-0.360, 1.3682937e-8, -5.2735345e-9, 1.5366666e+2
-0.361, 1.3701165e-8, -5.2774887e-9, 1.5399998e+2
-0.362, 1.3716310e-8, -5.2796461e-9, 1.5433331e+2
-0.363, 1.3716310e-8, -5.2783595e-9, 1.5466664e+2
-0.364, 1.3757050e-8, -5.2761386e-9, 1.5499997e+2
-0.365, 1.3749525e-8, -5.2813953e-9, 1.5533330e+2
-0.366, 1.3788787e-8, -5.2799334e-9, 1.5566663e+2
-0.367, 1.3797933e-8, -5.2876179e-9, 1.5599995e+2
-0.368, 1.3814101e-8, -5.2844547e-9, 1.5633328e+2
-0.369, 1.3832482e-8, -5.2893676e-9, 1.5666661e+2
-0.370, 1.3837865e-8, -5.2902220e-9, 1.5699994e+2
-0.371, 1.3857357e-8, -5.2920193e-9, 1.5733327e+2
-0.372, 1.3891921e-8, -5.2943037e-9, 1.5766660e+2
-0.373, 1.3879779e-8, -5.2889595e-9, 1.5799992e+2
-0.374, 1.3915974e-8, -5.2948712e-9, 1.5833325e+2
-0.375, 1.3925296e-8, -5.2959175e-9, 1.5866658e+2
-0.376, 1.3932070e-8, -5.3034102e-9, 1.5899991e+2
-0.377, 1.3951721e-8, -5.3013651e-9, 1.5933324e+2
-0.378, 1.3964653e-8, -5.3013576e-9, 1.5966656e+2
-0.379, 1.3989425e-8, -5.3056470e-9, 1.5999989e+2
-0.380, 1.4004370e-8, -5.3062776e-9, 1.6033322e+2
-0.381, 1.4010817e-8, -5.3125966e-9, 1.6066655e+2
-0.382, 1.4050654e-8, -5.3142899e-9, 1.6099988e+2
-0.383, 1.4037210e-8, -5.3160876e-9, 1.6133321e+2
-0.384, 1.4063594e-8, -5.3142259e-9, 1.6166653e+2
-0.385, 1.4091673e-8, -5.3191549e-9, 1.6199986e+2
-0.386, 1.4103471e-8, -5.3168701e-9, 1.6233319e+2
-0.387, 1.4111986e-8, -5.3228373e-9, 1.6266652e+2
-0.388, 1.4150553e-8, -5.3200577e-9, 1.6299985e+2
-0.389, 1.4141422e-8, -5.3251616e-9, 1.6333318e+2
-0.390, 1.4170603e-8, -5.3232769e-9, 1.6366650e+2
-0.391, 1.4191436e-8, -5.3269433e-9, 1.6399983e+2
-0.392, 1.4194560e-8, -5.3264242e-9, 1.6433316e+2
-0.393, 1.4221696e-8, -5.3299631e-9, 1.6466649e+2
-0.394, 1.4226257e-8, -5.3246589e-9, 1.6499982e+2
-0.395, 1.4249438e-8, -5.3329186e-9, 1.6533315e+2
-0.396, 1.4263202e-8, -5.3307141e-9, 1.6566647e+2
-0.397, 1.4272212e-8, -5.3348597e-9, 1.6599980e+2
-0.398, 1.4311434e-8, -5.3316005e-9, 1.6633313e+2
-0.399, 1.4319502e-8, -5.3408349e-9, 1.6666646e+2
-0.400, 1.4326236e-8, -5.3361457e-9, 1.6699979e+2
-0.401, 1.4369875e-8, -5.3398841e-9, 1.6733311e+2
-0.402, 1.4382360e-8, -5.3426001e-9, 1.6766644e+2
-0.403, 1.4385092e-8, -5.3413780e-9, 1.6799977e+2
-0.404, 1.4422237e-8, -5.3378315e-9, 1.6833310e+2
-0.405, 1.4419346e-8, -5.3466982e-9, 1.6866643e+2
-0.406, 1.4453559e-8, -5.3414815e-9, 1.6899976e+2
-0.407, 1.4464910e-8, -5.3469140e-9, 1.6933308e+2
-0.408, 1.4478458e-8, -5.3488067e-9, 1.6966641e+2
-0.409, 1.4522376e-8, -5.3524731e-9, 1.6999974e+2
-0.410, 1.4541747e-8, -5.3549414e-9, 1.7033307e+2
-0.411, 1.4553218e-8, -5.3585762e-9, 1.7066640e+2
-0.412, 1.4567813e-8, -5.3594551e-9, 1.7099973e+2
-0.413, 1.4573069e-8, -5.3652940e-9, 1.7133305e+2
-0.414, 1.4621740e-8, -5.3615081e-9, 1.7166638e+2
-0.415, 1.4618945e-8, -5.3648472e-9, 1.7199971e+2
-0.416, 1.4643508e-8, -5.3630256e-9, 1.7233304e+2
-0.417, 1.4668375e-8, -5.3665326e-9, 1.7266637e+2
-0.418, 1.4702125e-8, -5.3700155e-9, 1.7299969e+2
-0.419, 1.4713277e-8, -5.3711013e-9, 1.7333302e+2
-0.420, 1.4758418e-8, -5.3707581e-9, 1.7366635e+2
-0.421, 1.4759199e-8, -5.3749041e-9, 1.7399968e+2
-0.422, 1.4771854e-8, -5.3716369e-9, 1.7433301e+2
-0.423, 1.4807241e-8, -5.3749361e-9, 1.7466634e+2
-0.424, 1.4814111e-8, -5.3779479e-9, 1.7499966e+2
-0.425, 1.4851471e-8, -5.3825007e-9, 1.7533299e+2
-0.426, 1.4870634e-8, -5.3814224e-9, 1.7566632e+2
-0.427, 1.4898872e-8, -5.3878768e-9, 1.7599965e+2
-0.428, 1.4912619e-8, -5.3881646e-9, 1.7633298e+2
-0.429, 1.4947704e-8, -5.3886677e-9, 1.7666631e+2
-0.430, 1.4983698e-8, -5.3938836e-9, 1.7699963e+2
-0.431, 1.4990176e-8, -5.3951621e-9, 1.7733296e+2
-0.432, 1.5014708e-8, -5.4011453e-9, 1.7766629e+2
-0.433, 1.5063820e-8, -5.4054428e-9, 1.7799962e+2
-0.434, 1.5070203e-8, -5.4054747e-9, 1.7833295e+2
-0.435, 1.5102307e-8, -5.4105551e-9, 1.7866628e+2
-0.436, 1.5148061e-8, -5.4123843e-9, 1.7899960e+2
-0.437, 1.5155212e-8, -5.4178879e-9, 1.7933293e+2
-0.438, 1.5194864e-8, -5.4174811e-9, 1.7966626e+2
-0.439, 1.5217271e-8, -5.4222338e-9, 1.7999959e+2
-0.440, 1.5246325e-8, -5.4217146e-9, 1.8033292e+2
-0.441, 1.5284019e-8, -5.4278653e-9, 1.8066624e+2
-0.442, 1.5311164e-8, -5.4289595e-9, 1.8099957e+2
-0.443, 1.5353860e-8, -5.4348792e-9, 1.8133290e+2
-0.444, 1.5395438e-8, -5.4363167e-9, 1.8166623e+2
-0.445, 1.5406741e-8, -5.4386251e-9, 1.8199956e+2
-0.446, 1.5453679e-8, -5.4483551e-9, 1.8233289e+2
-0.447, 1.5481278e-8, -5.4468932e-9, 1.8266621e+2
-0.448, 1.5507311e-8, -5.4537392e-9, 1.8299954e+2
-0.449, 1.5553322e-8, -5.4579967e-9, 1.8333287e+2
-0.450, 1.5591267e-8, -5.4578049e-9, 1.8366620e+2
-0.451, 1.5604183e-8, -5.4682774e-9, 1.8399953e+2
-0.452, 1.5682140e-8, -5.4679656e-9, 1.8433286e+2
-0.453, 1.5691271e-8, -5.4713207e-9, 1.8466618e+2
-0.454, 1.5735150e-8, -5.4726068e-9, 1.8499951e+2
-0.455, 1.5786370e-8, -5.4788458e-9, 1.8533284e+2
-0.456, 1.5813537e-8, -5.4871614e-9, 1.8566617e+2
-0.457, 1.5838811e-8, -5.4888867e-9, 1.8599950e+2
-0.458, 1.5886172e-8, -5.4906999e-9, 1.8633282e+2
-0.459, 1.5926386e-8, -5.4993672e-9, 1.8666615e+2
-0.460, 1.5971102e-8, -5.5041598e-9, 1.8699948e+2
-0.461, 1.5997310e-8, -5.5158305e-9, 1.8733281e+2
-0.462, 1.6042780e-8, -5.5075713e-9, 1.8766614e+2
-0.463, 1.6085220e-8, -5.5225087e-9, 1.8799947e+2
-0.464, 1.6106508e-8, -5.5199765e-9, 1.8833279e+2
-0.465, 1.6176445e-8, -5.5274612e-9, 1.8866612e+2
-0.466, 1.6196696e-8, -5.5263190e-9, 1.8899945e+2
-0.467, 1.6236235e-8, -5.5377019e-9, 1.8933278e+2
-0.468, 1.6294301e-8, -5.5350102e-9, 1.8966611e+2
-0.469, 1.6325743e-8, -5.5457781e-9, 1.8999944e+2
-0.470, 1.6367297e-8, -5.5472396e-9, 1.9033276e+2
-0.471, 1.6420538e-8, -5.5556670e-9, 1.9066609e+2
-0.472, 1.6454624e-8, -5.5640625e-9, 1.9099942e+2
-0.473, 1.6493837e-8, -5.5634719e-9, 1.9133275e+2
-0.474, 1.6537724e-8, -5.5713403e-9, 1.9166608e+2
-0.475, 1.6580564e-8, -5.5776184e-9, 1.9199940e+2
-0.476, 1.6632997e-8, -5.5792082e-9, 1.9233273e+2
-0.477, 1.6670949e-8, -5.5836735e-9, 1.9266606e+2
-0.478, 1.6744098e-8, -5.5864136e-9, 1.9299939e+2
-0.479, 1.6772383e-8, -5.5982441e-9, 1.9333272e+2
-0.480, 1.6815735e-8, -5.6117515e-9, 1.9366605e+2
-0.481, 1.6905242e-8, -5.6150591e-9, 1.9399937e+2
-0.482, 1.6933527e-8, -5.6161213e-9, 1.9433270e+2
-0.483, 1.6977365e-8, -5.6171756e-9, 1.9466603e+2
-0.484, 1.7030960e-8, -5.6233587e-9, 1.9499936e+2
-0.485, 1.7077737e-8, -5.6315304e-9, 1.9533269e+2
-0.486, 1.7130068e-8, -5.6358362e-9, 1.9566602e+2
-0.487, 1.7205236e-8, -5.6467240e-9, 1.9599934e+2
-0.488, 1.7234298e-8, -5.6563736e-9, 1.9633267e+2
-0.489, 1.7295980e-8, -5.6612861e-9, 1.9666600e+2
-0.490, 1.7357769e-8, -5.6681402e-9, 1.9699933e+2
-0.491, 1.7402478e-8, -5.6749778e-9, 1.9733266e+2
-0.492, 1.7475060e-8, -5.6851546e-9, 1.9766599e+2
-0.493, 1.7519408e-8, -5.6914011e-9, 1.9799931e+2
-0.494, 1.7575493e-8, -5.7048535e-9, 1.9833264e+2
-0.495, 1.7643336e-8, -5.7139440e-9, 1.9866597e+2
-0.496, 1.7699197e-8, -5.7213407e-9, 1.9899930e+2
-0.497, 1.7783201e-8, -5.7286824e-9, 1.9933263e+2
-0.498, 1.7814267e-8, -5.7463598e-9, 1.9966595e+2
-0.499, 1.7743723e-8, -5.7518399e-9, 1.9999928e+2
-0.500, 1.5849267e-8, -5.7344014e-9, 2.0033261e+2
-0.499, 1.4913873e-8, -5.7205258e-9, 2.0066594e+2
-0.498, 1.4137836e-8, -5.7107643e-9, 2.0099927e+2
-0.497, 1.3516384e-8, -5.6900511e-9, 2.0133260e+2
-0.496, 1.2958102e-8, -5.6790679e-9, 2.0166592e+2
-0.495, 1.2421165e-8, -5.6650089e-9, 2.0199925e+2
-0.494, 1.1956767e-8, -5.6519482e-9, 2.0233258e+2
-0.493, 1.1529218e-8, -5.6389515e-9, 2.0266591e+2
-0.492, 1.1122670e-8, -5.6233507e-9, 2.0299924e+2
-0.491, 1.0742780e-8, -5.6184541e-9, 2.0333257e+2
-0.490, 1.0387875e-8, -5.6041234e-9, 2.0366589e+2
-0.489, 1.0037748e-8, -5.5950484e-9, 2.0399922e+2
-0.488, 9.7321857e-9, -5.5788325e-9, 2.0433255e+2
-0.487, 9.4206172e-9, -5.5735287e-9, 2.0466588e+2
-0.486, 9.1300167e-9, -5.5627050e-9, 2.0499921e+2
-0.485, 8.8351353e-9, -5.5568976e-9, 2.0533253e+2
-0.484, 8.5729095e-9, -5.5446838e-9, 2.0566586e+2
-0.483, 8.3042844e-9, -5.5369114e-9, 2.0599919e+2
-0.482, 8.0560456e-9, -5.5267981e-9, 2.0633252e+2
-0.481, 7.8276816e-9, -5.5193055e-9, 2.0666585e+2
-0.480, 7.5877340e-9, -5.5046230e-9, 2.0699918e+2
-0.479, 7.3533468e-9, -5.4962439e-9, 2.0733250e+2
-0.478, 7.1447928e-9, -5.4849565e-9, 2.0766583e+2
-0.477, 6.9466233e-9, -5.4770006e-9, 2.0799916e+2
-0.476, 6.7181949e-9, -5.4737574e-9, 2.0833249e+2
-0.475, 6.5511156e-9, -5.4699707e-9, 2.0866582e+2
-0.474, 6.3518275e-9, -5.4650258e-9, 2.0899915e+2
-0.473, 6.1636833e-9, -5.4546017e-9, 2.0933247e+2
-0.472, 5.9987606e-9, -5.4488103e-9, 2.0966580e+2
-0.471, 5.8170788e-9, -5.4398392e-9, 2.0999913e+2
-0.470, 5.6531144e-9, -5.4299902e-9, 2.1033246e+2
-0.469, 5.4748273e-9, -5.4303895e-9, 2.1066579e+2
-0.468, 5.3299067e-9, -5.4240950e-9, 2.1099911e+2
-0.467, 5.1694018e-9, -5.4206519e-9, 2.1133244e+2
-0.466, 5.0057012e-9, -5.4077511e-9, 2.1166577e+2
-0.465, 4.8766848e-9, -5.4010254e-9, 2.1199910e+2
-0.464, 4.7279061e-9, -5.3955929e-9, 2.1233243e+2
-0.463, 4.5771782e-9, -5.3970712e-9, 2.1266576e+2
-0.462, 4.4525073e-9, -5.3862954e-9, 2.1299908e+2
-0.461, 4.3158783e-9, -5.3794653e-9, 2.1333241e+2
-0.460, 4.1573145e-9, -5.3749840e-9, 2.1366574e+2
-0.459, 4.0553458e-9, -5.3695919e-9, 2.1399907e+2
-0.458, 3.9215529e-9, -5.3621232e-9, 2.1433240e+2
-0.457, 3.8143040e-9, -5.3595590e-9, 2.1466573e+2
-0.456, 3.6850805e-9, -5.3551972e-9, 2.1499905e+2
-0.455, 3.5678867e-9, -5.3430558e-9, 2.1533238e+2
-0.454, 3.4566519e-9, -5.3393490e-9, 2.1566571e+2
-0.453, 3.3359993e-9, -5.3419607e-9, 2.1599904e+2
-0.452, 3.2382808e-9, -5.3307216e-9, 2.1633237e+2
-0.451, 3.1389884e-9, -5.3332299e-9, 2.1666570e+2
-0.450, 3.0072642e-9, -5.3275664e-9, 2.1699902e+2
-0.449, 2.9201614e-9, -5.3241394e-9, 2.1733235e+2
-0.448, 2.8169551e-9, -5.3160156e-9, 2.1766568e+2
-0.447, 2.6981399e-9, -5.3118461e-9, 2.1799901e+2
-0.446, 2.6182505e-9, -5.3079559e-9, 2.1833234e+2
-0.445, 2.5150919e-9, -5.3058784e-9, 2.1866566e+2
-0.444, 2.4104954e-9, -5.2966045e-9, 2.1899899e+2
-0.443, 2.3456397e-9, -5.2929301e-9, 2.1933232e+2
-0.442, 2.2377922e-9, -5.2848379e-9, 2.1966565e+2
-0.441, 2.1639499e-9, -5.2841909e-9, 2.1999898e+2
-0.440, 2.0710880e-9, -5.2758677e-9, 2.2033231e+2
-0.439, 1.9969741e-9, -5.2749645e-9, 2.2066563e+2
-0.438, 1.9133783e-9, -5.2700440e-9, 2.2099896e+2
-0.437, 1.8240233e-9, -5.2667128e-9, 2.2133229e+2
-0.436, 1.7304824e-9, -5.2636135e-9, 2.2166562e+2
-0.435, 1.6708509e-9, -5.2534848e-9, 2.2199895e+2
-0.434, 1.5799621e-9, -5.2508087e-9, 2.2233228e+2
-0.433, 1.5062238e-9, -5.2494107e-9, 2.2266560e+2
-0.432, 1.4418076e-9, -5.2455364e-9, 2.2299893e+2
-0.431, 1.3499281e-9, -5.2401048e-9, 2.2333226e+2
-0.430, 1.2992434e-9, -5.2354872e-9, 2.2366559e+2
-0.429, 1.2277338e-9, -5.2354232e-9, 2.2399892e+2
-0.428, 1.1496738e-9, -5.2336420e-9, 2.2433224e+2
-0.427, 1.0886126e-9, -5.2245199e-9, 2.2466557e+2
-0.426, 1.0214405e-9, -5.2243756e-9, 2.2499890e+2
-0.425, 9.5406871e-10, -5.2205897e-9, 2.2533223e+2
-0.424, 8.9702545e-10, -5.2133440e-9, 2.2566556e+2
-0.423, 8.4043761e-10, -5.2105404e-9, 2.2599889e+2
-0.422, 7.6826490e-10, -5.2094222e-9, 2.2633221e+2
-0.421, 6.9769784e-10, -5.2053157e-9, 2.2666554e+2
-0.420, 6.4292327e-10, -5.1985740e-9, 2.2699887e+2
-0.419, 5.9647232e-10, -5.1937574e-9, 2.2733220e+2
-0.418, 5.0856303e-10, -5.1920317e-9, 2.2766553e+2
-0.417, 4.6215201e-10, -5.1881575e-9, 2.2799886e+2
-0.416, 4.0800052e-10, -5.1852260e-9, 2.2833218e+2
-0.415, 3.1940423e-10, -5.1852500e-9, 2.2866551e+2
-0.414, 2.8424851e-10, -5.1739786e-9, 2.2899884e+2
-0.413, 2.3731828e-10, -5.1749933e-9, 2.2933217e+2
-0.412, 1.8057864e-10, -5.1714708e-9, 2.2966550e+2
-0.411, 1.3821762e-10, -5.1710711e-9, 2.2999883e+2
-0.410, 6.3504695e-11, -5.1645048e-9, 2.3033215e+2
-0.409, 1.6989852e-11, -5.1634026e-9, 2.3066548e+2
-0.408, -2.8190976e-11, -5.1568683e-9, 2.3099881e+2
-0.407, -7.5736285e-11, -5.1555902e-9, 2.3133214e+2
-0.406, -1.1931950e-10, -5.1449178e-9, 2.3166547e+2
-0.405, -1.7972568e-10, -5.1419620e-9, 2.3199879e+2
-0.404, -2.3107335e-10, -5.1421778e-9, 2.3233212e+2
-0.403, -2.6693203e-10, -5.1384554e-9, 2.3266545e+2
-0.402, -3.3071718e-10, -5.1407723e-9, 2.3299878e+2
-0.401, -3.6628831e-10, -5.1356595e-9, 2.3333211e+2
-0.400, -4.0469519e-10, -5.1339986e-9, 2.3366544e+2
-0.399, -4.7528625e-10, -5.1295888e-9, 2.3399876e+2
-0.398, -5.0291715e-10, -5.1313780e-9, 2.3433209e+2
-0.397, -5.3287263e-10, -5.1260578e-9, 2.3466542e+2
-0.396, -5.8449989e-10, -5.1259219e-9, 2.3499875e+2
-0.395, -6.3738131e-10, -5.1178621e-9, 2.3533208e+2
-0.394, -6.7641126e-10, -5.1215046e-9, 2.3566541e+2
-0.393, -7.1700690e-10, -5.1144111e-9, 2.3599873e+2
-0.392, -7.6523116e-10, -5.1090354e-9, 2.3633206e+2
-0.391, -7.9571388e-10, -5.1067186e-9, 2.3666539e+2
-0.390, -8.2785012e-10, -5.1048814e-9, 2.3699872e+2
-0.389, -8.7974095e-10, -5.0989781e-9, 2.3733205e+2
-0.388, -9.1695762e-10, -5.0926756e-9, 2.3766537e+2
-0.387, -9.5534858e-10, -5.0919247e-9, 2.3799870e+2
-0.386, -1.0134781e-9, -5.0938178e-9, 2.3833203e+2
-0.385, -1.0304210e-9, -5.0901514e-9, 2.3866536e+2
-0.384, -1.0663516e-9, -5.0880749e-9, 2.3899869e+2
-0.383, -1.1211899e-9, -5.0815481e-9, 2.3933202e+2
-0.382, -1.1505943e-9, -5.0809414e-9, 2.3966534e+2
-0.381, -1.1709160e-9, -5.0764681e-9, 2.3999867e+2
-0.380, -1.2342459e-9, -5.0778337e-9, 2.4033200e+2
-0.379, -1.2480174e-9, -5.0676889e-9, 2.4066533e+2
-0.378, -1.3019691e-9, -5.0714908e-9, 2.4099866e+2
-0.377, -1.3208531e-9, -5.0676090e-9, 2.4133199e+2
-0.376, -1.3523982e-9, -5.0622888e-9, 2.4166531e+2
-0.375, -1.3927781e-9, -5.0583742e-9, 2.4199864e+2
-0.374, -1.4183321e-9, -5.0557150e-9, 2.4233197e+2
-0.373, -1.4574900e-9, -5.0477182e-9, 2.4266530e+2
-0.372, -1.4932687e-9, -5.0481734e-9, 2.4299863e+2
-0.371, -1.5159471e-9, -5.0453219e-9, 2.4333195e+2
-0.370, -1.5607046e-9, -5.0418074e-9, 2.4366528e+2
-0.369, -1.5871292e-9, -5.0336117e-9, 2.4399861e+2
-0.368, -1.6222610e-9, -5.0372062e-9, 2.4433194e+2
-0.367, -1.6532948e-9, -5.0310636e-9, 2.4466527e+2
-0.366, -1.6805823e-9, -5.0316942e-9, 2.4499860e+2
-0.365, -1.7026375e-9, -5.0228275e-9, 2.4533192e+2
-0.364, -1.7693624e-9, -5.0214375e-9, 2.4566525e+2
-0.363, -1.7867765e-9, -5.0185460e-9, 2.4599858e+2
-0.362, -1.8026090e-9, -5.0115561e-9, 2.4633191e+2
-0.361, -1.8394102e-9, -5.0059485e-9, 2.4666524e+2
-0.360, -1.8746538e-9, -5.0031210e-9, 2.4699857e+2
-0.359, -1.8967330e-9, -5.0041593e-9, 2.4733189e+2
-0.358, -1.9157846e-9, -4.9941264e-9, 2.4766522e+2
-0.357, -1.9804485e-9, -4.9916338e-9, 2.4799855e+2
-0.356, -1.9859603e-9, -4.9907873e-9, 2.4833188e+2
-0.355, -2.0140145e-9, -4.9850355e-9, 2.4866521e+2
-0.354, -2.0547219e-9, -4.9822879e-9, 2.4899854e+2
-0.353, -2.0715689e-9, -4.9768798e-9, 2.4933186e+2
-0.352, -2.0972348e-9, -4.9791402e-9, 2.4966519e+2
-0.351, -2.1476001e-9, -4.9718794e-9, 2.4999852e+2
-0.350, -2.1601334e-9, -4.9690434e-9, 2.5033185e+2
-0.349, -2.1886271e-9, -4.9694027e-9, 2.5066518e+2
-0.348, -2.2230398e-9, -4.9656803e-9, 2.5099850e+2
-0.347, -2.2406696e-9, -4.9541615e-9, 2.5133183e+2
-0.346, -2.2802589e-9, -4.9555835e-9, 2.5166516e+2
-0.345, -2.3047981e-9, -4.9480025e-9, 2.5199849e+2
-0.344, -2.3420230e-9, -4.9443041e-9, 2.5233182e+2
-0.343, -2.3643418e-9, -4.9418518e-9, 2.5266515e+2
-0.342, -2.3850311e-9, -4.9378817e-9, 2.5299847e+2
-0.341, -2.4258822e-9, -4.9339675e-9, 2.5333180e+2
-0.340, -2.4556299e-9, -4.9276330e-9, 2.5366513e+2
-0.339, -2.4621325e-9, -4.9244298e-9, 2.5399846e+2
-0.338, -2.5123137e-9, -4.9225126e-9, 2.5433179e+2
-0.337, -2.5287694e-9, -4.9145163e-9, 2.5466512e+2
-0.336, -2.5421574e-9, -4.9058655e-9, 2.5499844e+2
-0.335, -2.5897986e-9, -4.9018074e-9, 2.5533177e+2
-0.334, -2.6095852e-9, -4.8980850e-9, 2.5566510e+2
-0.333, -2.6395883e-9, -4.8913669e-9, 2.5599843e+2
-0.332, -2.6748161e-9, -4.8911035e-9, 2.5633176e+2
-0.331, -2.6840026e-9, -4.8858473e-9, 2.5666510e+2
-0.330, -2.7132949e-9, -4.8796083e-9, 2.5699844e+2
-0.329, -2.7332494e-9, -4.8781468e-9, 2.5733179e+2
-0.328, -2.7718721e-9, -4.8680335e-9, 2.5766513e+2
-0.327, -2.7931841e-9, -4.8717479e-9, 2.5799847e+2
-0.326, -2.8201281e-9, -4.8596780e-9, 2.5833182e+2
-0.325, -2.8421434e-9, -4.8499564e-9, 2.5866516e+2
-0.324, -2.8679690e-9, -4.8544697e-9, 2.5899850e+2
-0.323, -2.8878993e-9, -4.8462181e-9, 2.5933185e+2
-0.322, -2.9277440e-9, -4.8426552e-9, 2.5966519e+2
-0.321, -2.9292619e-9, -4.8364406e-9, 2.5999854e+2
-0.320, -2.9724376e-9, -4.8357855e-9, 2.6033188e+2
-0.319, -3.0106131e-9, -4.8263438e-9, 2.6066522e+2
-0.318, -3.0178740e-9, -4.8218141e-9, 2.6099857e+2
-0.317, -3.0520073e-9, -4.8155759e-9, 2.6133191e+2
-0.316, -3.0816432e-9, -4.8087938e-9, 2.6166525e+2
-0.315, -3.1031551e-9, -4.8030664e-9, 2.6199860e+2
-0.314, -3.1239165e-9, -4.8020037e-9, 2.6233194e+2
-0.313, -3.1631859e-9, -4.7907642e-9, 2.6266528e+2
-0.312, -3.1882608e-9, -4.7917310e-9, 2.6299863e+2
-0.311, -3.2099248e-9, -4.7823132e-9, 2.6333197e+2
-0.310, -3.2240635e-9, -4.7732707e-9, 2.6366531e+2
-0.309, -3.2677907e-9, -4.7597468e-9, 2.6399866e+2
-0.308, -3.3146488e-9, -4.7541389e-9, 2.6433200e+2
-0.307, -3.3367440e-9, -4.7447051e-9, 2.6466534e+2
-0.306, -3.3836742e-9, -4.7418212e-9, 2.6499869e+2
-0.305, -3.3982765e-9, -4.7323794e-9, 2.6533203e+2
-0.304, -3.4166971e-9, -4.7226498e-9, 2.6566537e+2
-0.303, -3.4665191e-9, -4.7075042e-9, 2.6599872e+2
-0.302, -3.4924885e-9, -4.7050919e-9, 2.6633206e+2
-0.301, -3.5079055e-9, -4.6931894e-9, 2.6666541e+2
-0.300, -3.5747021e-9, -4.6846820e-9, 2.6699875e+2
-0.299, -3.5896721e-9, -4.6772852e-9, 2.6733209e+2
-0.298, -3.6137164e-9, -4.6632262e-9, 2.6766544e+2
-0.297, -3.6632666e-9, -4.6505253e-9, 2.6799878e+2
-0.296, -3.6945722e-9, -4.6430721e-9, 2.6833212e+2
-0.295, -3.7175858e-9, -4.6309543e-9, 2.6866547e+2
-0.294, -3.7540437e-9, -4.6114232e-9, 2.6899881e+2
-0.293, -3.7934091e-9, -4.6005355e-9, 2.6933215e+2
-0.292, -3.8329024e-9, -4.5901589e-9, 2.6966550e+2
-0.291, -3.8585042e-9, -4.5772022e-9, 2.6999884e+2
-0.290, -3.9305093e-9, -4.5612816e-9, 2.7033218e+2
-0.289, -3.9584038e-9, -4.5434763e-9, 2.7066553e+2
-0.288, -3.9991592e-9, -4.5317177e-9, 2.7099887e+2
-0.287, -4.0526396e-9, -4.5106847e-9, 2.7133221e+2
-0.286, -4.0880592e-9, -4.5040069e-9, 2.7166556e+2
-0.285, -4.1358841e-9, -4.4821356e-9, 2.7199890e+2
-0.284, -4.1863211e-9, -4.4640585e-9, 2.7233224e+2
-0.283, -4.2221560e-9, -4.4436885e-9, 2.7266559e+2
-0.282, -4.2696611e-9, -4.4221844e-9, 2.7299893e+2
-0.281, -4.3281183e-9, -4.4027653e-9, 2.7333228e+2
-0.280, -4.3760391e-9, -4.3840971e-9, 2.7366562e+2
-0.279, -4.4327466e-9, -4.3552841e-9, 2.7399896e+2
-0.278, -4.4757225e-9, -4.3388124e-9, 2.7433231e+2
-0.277, -4.5418003e-9, -4.3068682e-9, 2.7466565e+2
-0.276, -4.5981725e-9, -4.2789976e-9, 2.7499899e+2
-0.275, -4.6505586e-9, -4.2532040e-9, 2.7533234e+2
-0.274, -4.7358397e-9, -4.2301580e-9, 2.7566568e+2
-0.273, -4.7773860e-9, -4.2013446e-9, 2.7599902e+2
-0.272, -4.8361866e-9, -4.1741774e-9, 2.7633237e+2
-0.271, -4.9288809e-9, -4.1389177e-9, 2.7666571e+2
-0.270, -4.9778239e-9, -4.1085708e-9, 2.7699905e+2
-0.269, -5.0480242e-9, -4.0760031e-9, 2.7733240e+2
-0.268, -5.1281770e-9, -4.0444901e-9, 2.7766574e+2
-0.267, -5.1989835e-9, -4.0079362e-9, 2.7799908e+2
-0.266, -5.2735047e-9, -3.9768948e-9, 2.7833243e+2
-0.265, -5.3461564e-9, -3.9390229e-9, 2.7866577e+2
-0.264, -5.4180820e-9, -3.9006878e-9, 2.7899911e+2
-0.263, -5.4924190e-9, -3.8601637e-9, 2.7933246e+2
-0.262, -5.5712461e-9, -3.8211980e-9, 2.7966580e+2
-0.261, -5.6513665e-9, -3.7865697e-9, 2.7999915e+2
-0.260, -5.7374470e-9, -3.7441925e-9, 2.8033249e+2
-0.259, -5.7981406e-9, -3.7023429e-9, 2.8066583e+2
-0.258, -5.9112848e-9, -3.6641756e-9, 2.8099918e+2
-0.257, -5.9616179e-9, -3.6183876e-9, 2.8133252e+2
-0.256, -6.0476180e-9, -3.5771770e-9, 2.8166586e+2
-0.255, -6.1456720e-9, -3.5298631e-9, 2.8199921e+2
-0.254, -6.2169661e-9, -3.4927425e-9, 2.8233255e+2
-0.253, -6.2943148e-9, -3.4501577e-9, 2.8266589e+2
-0.252, -6.3829191e-9, -3.4079326e-9, 2.8299924e+2
-0.251, -6.4383965e-9, -3.3662104e-9, 2.8333258e+2
-0.250, -6.5179586e-9, -3.3220919e-9, 2.8366592e+2
-0.249, -6.5871832e-9, -3.2797471e-9, 2.8399927e+2
-0.248, -6.6637416e-9, -3.2373220e-9, 2.8433261e+2
-0.247, -6.7445254e-9, -3.1997860e-9, 2.8466595e+2
-0.246, -6.8129835e-9, -3.1593101e-9, 2.8499930e+2
-0.245, -6.8865544e-9, -3.1183949e-9, 2.8533264e+2
-0.244, -6.9500516e-9, -3.0804672e-9, 2.8566599e+2
-0.243, -7.0068156e-9, -3.0396399e-9, 2.8599933e+2
-0.242, -7.0941018e-9, -3.0038532e-9, 2.8633267e+2
-0.241, -7.1313346e-9, -2.9677469e-9, 2.8666602e+2
-0.240, -7.1922917e-9, -2.9338294e-9, 2.8699936e+2
-0.239, -7.2636417e-9, -2.8937850e-9, 2.8733270e+2
-0.238, -7.3073210e-9, -2.8573430e-9, 2.8766605e+2
-0.237, -7.3661450e-9, -2.8207254e-9, 2.8799939e+2
-0.236, -7.4314324e-9, -2.7866323e-9, 2.8833273e+2
-0.235, -7.4664923e-9, -2.7459806e-9, 2.8866608e+2
-0.234, -7.5189188e-9, -2.7184615e-9, 2.8899942e+2
-0.233, -7.5585156e-9, -2.6865088e-9, 2.8933276e+2
-0.232, -7.6067801e-9, -2.6615461e-9, 2.8966611e+2
-0.231, -7.6372384e-9, -2.6334837e-9, 2.8999945e+2
-0.230, -7.6769231e-9, -2.6163653e-9, 2.9033279e+2
-0.229, -7.7361717e-9, -2.5863218e-9, 2.9066614e+2
-0.228, -7.7663822e-9, -2.5619102e-9, 2.9099948e+2
-0.227, -7.7781168e-9, -2.5410452e-9, 2.9133282e+2
-0.226, -7.8448013e-9, -2.5187743e-9, 2.9166617e+2
-0.225, -7.8597076e-9, -2.4966871e-9, 2.9199951e+2
-0.224, -7.8923472e-9, -2.4750393e-9, 2.9233286e+2
-0.223, -7.9444531e-9, -2.4551650e-9, 2.9266620e+2
-0.222, -7.9658617e-9, -2.4387095e-9, 2.9299954e+2
-0.221, -7.9755429e-9, -2.4256968e-9, 2.9333289e+2
-0.220, -8.0225933e-9, -2.4022118e-9, 2.9366623e+2
-0.219, -8.0314200e-9, -2.3901336e-9, 2.9399957e+2
-0.218, -8.0630613e-9, -2.3747724e-9, 2.9433292e+2
-0.217, -8.0863947e-9, -2.3556728e-9, 2.9466626e+2
-0.216, -8.1124121e-9, -2.3433073e-9, 2.9499960e+2
-0.215, -8.1344274e-9, -2.3289766e-9, 2.9533295e+2
-0.214, -8.1536067e-9, -2.3148694e-9, 2.9566629e+2
-0.213, -8.1663716e-9, -2.3068654e-9, 2.9599963e+2
-0.212, -8.2047631e-9, -2.2918396e-9, 2.9633298e+2
-0.211, -8.2083256e-9, -2.2866156e-9, 2.9666632e+2
-0.210, -8.2598008e-9, -2.2748730e-9, 2.9699966e+2
-0.209, -8.2524361e-9, -2.2591284e-9, 2.9733301e+2
-0.208, -8.2669498e-9, -2.2496864e-9, 2.9766635e+2
-0.207, -8.3046858e-9, -2.2411391e-9, 2.9799969e+2
-0.206, -8.3091356e-9, -2.2304272e-9, 2.9833304e+2
-0.205, -8.2920728e-9, -2.2239486e-9, 2.9866638e+2
-0.204, -8.3234264e-9, -2.2125337e-9, 2.9899973e+2
-0.203, -8.3189127e-9, -2.2012066e-9, 2.9933307e+2
-0.202, -8.3583105e-9, -2.1928588e-9, 2.9966641e+2
-0.201, -8.3750535e-9, -2.1859012e-9, 2.9999976e+2
-0.200, -8.3758280e-9, -2.1816915e-9, 3.0033310e+2
-0.199, -8.4033793e-9, -2.1676565e-9, 3.0066644e+2
-0.198, -8.4140916e-9, -2.1617292e-9, 3.0099979e+2
-0.197, -8.4475218e-9, -2.1529982e-9, 3.0133313e+2
-0.196, -8.4552942e-9, -2.1482693e-9, 3.0166647e+2
-0.195, -8.4529610e-9, -2.1421742e-9, 3.0199982e+2
-0.194, -8.4936529e-9, -2.1359197e-9, 3.0233316e+2
-0.193, -8.4973113e-9, -2.1280273e-9, 3.0266650e+2
-0.192, -8.5055953e-9, -2.1308071e-9, 3.0299985e+2
-0.191, -8.5216589e-9, -2.1163089e-9, 3.0333319e+2
-0.190, -8.5233127e-9, -2.1117235e-9, 3.0366653e+2
-0.189, -8.5391614e-9, -2.1022095e-9, 3.0399988e+2
-0.188, -8.5661691e-9, -2.1046540e-9, 3.0433322e+2
-0.187, -8.5607450e-9, -2.0982875e-9, 3.0466656e+2
-0.186, -8.5981782e-9, -2.0925679e-9, 3.0499991e+2
-0.185, -8.5940322e-9, -2.0867286e-9, 3.0533325e+2
-0.184, -8.6057748e-9, -2.0870004e-9, 3.0566660e+2
-0.183, -8.6161025e-9, -2.0743312e-9, 3.0599994e+2
-0.182, -8.6390370e-9, -2.0695623e-9, 3.0633328e+2
-0.181, -8.6511793e-9, -2.0628441e-9, 3.0666663e+2
-0.180, -8.6556042e-9, -2.0601123e-9, 3.0699997e+2
-0.179, -8.6575289e-9, -2.0545525e-9, 3.0733331e+2
-0.178, -8.6859915e-9, -2.0525874e-9, 3.0766666e+2
-0.177, -8.6771879e-9, -2.0473951e-9, 3.0800000e+2
-0.176, -8.6973344e-9, -2.0456778e-9, 3.0833334e+2
-0.175, -8.7013605e-9, -2.0407491e-9, 3.0866669e+2
-0.174, -8.6961522e-9, -2.0337754e-9, 3.0900003e+2
-0.173, -8.7191099e-9, -2.0333522e-9, 3.0933337e+2
-0.172, -8.7420204e-9, -2.0248048e-9, 3.0966672e+2
-0.171, -8.7375547e-9, -2.0219530e-9, 3.1000006e+2
-0.170, -8.7515017e-9, -2.0135336e-9, 3.1033340e+2
-0.169, -8.7552401e-9, -2.0099789e-9, 3.1066675e+2
-0.168, -8.7584509e-9, -2.0079738e-9, 3.1100009e+2
-0.167, -8.7523482e-9, -2.0073587e-9, 3.1133344e+2
-0.166, -8.7575804e-9, -2.0027415e-9, 3.1166678e+2
-0.165, -8.7910035e-9, -1.9991229e-9, 3.1200012e+2
-0.164, -8.7997503e-9, -1.9974693e-9, 3.1233347e+2
-0.163, -8.7909635e-9, -1.9963831e-9, 3.1266681e+2
-0.162, -8.8213339e-9, -1.9941941e-9, 3.1300015e+2
-0.161, -8.8328207e-9, -1.9850479e-9, 3.1333350e+2
-0.160, -8.8385805e-9, -1.9859745e-9, 3.1366684e+2
-0.159, -8.8538057e-9, -1.9791446e-9, 3.1400018e+2
-0.158, -8.8438119e-9, -1.9691675e-9, 3.1433353e+2
-0.157, -8.8476630e-9, -1.9713722e-9, 3.1466687e+2
-0.156, -8.8600682e-9, -1.9623936e-9, 3.1500021e+2
-0.155, -8.8503942e-9, -1.9636557e-9, 3.1533356e+2
-0.154, -8.8631840e-9, -1.9568018e-9, 3.1566690e+2
-0.153, -8.8882341e-9, -1.9489177e-9, 3.1600024e+2
-0.152, -8.8950562e-9, -1.9496604e-9, 3.1633359e+2
-0.151, -8.8843759e-9, -1.9485102e-9, 3.1666693e+2
-0.150, -8.8915977e-9, -1.9469684e-9, 3.1700027e+2
-0.149, -8.8994581e-9, -1.9416164e-9, 3.1733362e+2
-0.148, -8.9052250e-9, -1.9396753e-9, 3.1766696e+2
-0.147, -8.9091152e-9, -1.9369915e-9, 3.1800031e+2
-0.146, -8.9359160e-9, -1.9339876e-9, 3.1833365e+2
-0.145, -8.9369054e-9, -1.9284518e-9, 3.1866699e+2
-0.144, -8.9429850e-9, -1.9260316e-9, 3.1900034e+2
-0.143, -8.9541761e-9, -1.9241944e-9, 3.1933368e+2
-0.142, -8.9464756e-9, -1.9210469e-9, 3.1966702e+2
-0.141, -8.9531218e-9, -1.9129072e-9, 3.2000037e+2
-0.140, -8.9788035e-9, -1.9117568e-9, 3.2033371e+2
-0.139, -8.9672056e-9, -1.9106385e-9, 3.2066705e+2
-0.138, -8.9912726e-9, -1.9107185e-9, 3.2100040e+2
-0.137, -8.9934620e-9, -1.9060054e-9, 3.2133374e+2
-0.136, -9.0046939e-9, -1.9005895e-9, 3.2166708e+2
-0.135, -9.0041024e-9, -1.8998145e-9, 3.2200043e+2
-0.134, -9.0121057e-9, -1.8968669e-9, 3.2233377e+2
-0.133, -9.0408392e-9, -1.8970268e-9, 3.2266711e+2
-0.132, -9.0349443e-9, -1.8936956e-9, 3.2300046e+2
-0.131, -9.0210293e-9, -1.8909956e-9, 3.2333380e+2
-0.130, -9.0536210e-9, -1.8859951e-9, 3.2366714e+2
-0.129, -9.0463512e-9, -1.8873372e-9, 3.2400049e+2
-0.128, -9.0551540e-9, -1.8817294e-9, 3.2433383e+2
-0.127, -9.0864836e-9, -1.8754189e-9, 3.2466718e+2
-0.126, -9.0607379e-9, -1.8728388e-9, 3.2500052e+2
-0.125, -9.0815151e-9, -1.8749235e-9, 3.2533386e+2
-0.124, -9.0924273e-9, -1.8650741e-9, 3.2566721e+2
-0.123, -9.0950385e-9, -1.8618151e-9, 3.2600055e+2
-0.122, -9.1025401e-9, -1.8586678e-9, 3.2633389e+2
-0.121, -9.1115826e-9, -1.8567345e-9, 3.2666724e+2
-0.120, -9.1329584e-9, -1.8573098e-9, 3.2700058e+2
-0.119, -9.1411305e-9, -1.8564791e-9, 3.2733392e+2
-0.118, -9.1431431e-9, -1.8559518e-9, 3.2766727e+2
-0.117, -9.1553414e-9, -1.8483871e-9, 3.2800061e+2
-0.116, -9.1524255e-9, -1.8511829e-9, 3.2833395e+2
-0.115, -9.1554613e-9, -1.8505200e-9, 3.2866730e+2
-0.114, -9.1944274e-9, -1.8457830e-9, 3.2900064e+2
-0.113, -9.1865511e-9, -1.8426836e-9, 3.2933398e+2
-0.112, -9.1931653e-9, -1.8387774e-9, 3.2966733e+2
-0.111, -9.2182795e-9, -1.8352786e-9, 3.3000067e+2
-0.110, -9.2155243e-9, -1.8341363e-9, 3.3033401e+2
-0.109, -9.2284091e-9, -1.8310767e-9, 3.3066736e+2
-0.108, -9.2461505e-9, -1.8218425e-9, 3.3100070e+2
-0.107, -9.2497769e-9, -1.8231526e-9, 3.3133405e+2
-0.106, -9.2523091e-9, -1.8197016e-9, 3.3166739e+2
-0.105, -9.2845331e-9, -1.8132633e-9, 3.3200073e+2
-0.104, -9.2903401e-9, -1.8177206e-9, 3.3233408e+2
-0.103, -9.3384847e-9, -1.8098684e-9, 3.3266742e+2
-0.102, -9.3136574e-9, -1.8129277e-9, 3.3300076e+2
-0.101, -9.3386134e-9, -1.8098284e-9, 3.3333411e+2
-0.100, -9.3415125e-9, -1.8066572e-9, 3.3366745e+2
-0.099, -9.3509147e-9, -1.8000349e-9, 3.3400079e+2
-0.098, -9.3863175e-9, -1.8012730e-9, 3.3433414e+2
-0.097, -9.3941788e-9, -1.7982376e-9, 3.3466748e+2
-0.096, -9.3922052e-9, -1.7971113e-9, 3.3500082e+2
-0.095, -9.4355723e-9, -1.7972152e-9, 3.3533417e+2
-0.094, -9.4351496e-9, -1.7924781e-9, 3.3566751e+2
-0.093, -9.4601997e-9, -1.7830762e-9, 3.3600085e+2
-0.092, -9.4846353e-9, -1.7916474e-9, 3.3633420e+2
-0.091, -9.4870396e-9, -1.7871101e-9, 3.3666754e+2
-0.090, -9.5115640e-9, -1.7806558e-9, 3.3700089e+2
-0.089, -9.5309272e-9, -1.7798011e-9, 3.3733423e+2
-0.088, -9.5431565e-9, -1.7750880e-9, 3.3766757e+2
-0.087, -9.5770583e-9, -1.7686576e-9, 3.3800092e+2
-0.086, -9.5848227e-9, -1.7734105e-9, 3.3833426e+2
-0.085, -9.6225987e-9, -1.7662132e-9, 3.3866760e+2
-0.084, -9.6360262e-9, -1.7629701e-9, 3.3900095e+2
-0.083, -9.6605746e-9, -1.7621553e-9, 3.3933429e+2
-0.082, -9.6851691e-9, -1.7601183e-9, 3.3966763e+2
-0.081, -9.7258610e-9, -1.7602700e-9, 3.4000098e+2
-0.080, -9.7325872e-9, -1.7559325e-9, 3.4033432e+2
-0.079, -9.7794928e-9, -1.7558927e-9, 3.4066766e+2
-0.078, -9.7866106e-9, -1.7550299e-9, 3.4100101e+2
-0.077, -9.8225090e-9, -1.7519465e-9, 3.4133435e+2
-0.076, -9.8494937e-9, -1.7465546e-9, 3.4166769e+2
-0.075, -9.8691926e-9, -1.7472733e-9, 3.4200104e+2
-0.074, -9.8929727e-9, -1.7448689e-9, 3.4233438e+2
-0.073, -9.9271462e-9, -1.7450846e-9, 3.4266772e+2
-0.072, -9.9538502e-9, -1.7424007e-9, 3.4300107e+2
-0.071, -9.9955964e-9, -1.7379752e-9, 3.4333441e+2
-0.070, -1.0015806e-8, -1.7413382e-9, 3.4366776e+2
-0.069, -1.0066747e-8, -1.7303066e-9, 3.4400110e+2
-0.068, -1.0079104e-8, -1.7320959e-9, 3.4433444e+2
-0.067, -1.0120514e-8, -1.7294278e-9, 3.4466779e+2
-0.066, -1.0168818e-8, -1.7253939e-9, 3.4500113e+2
-0.065, -1.0173763e-8, -1.7233969e-9, 3.4533447e+2
-0.064, -1.0214855e-8, -1.7202016e-9, 3.4566782e+2
-0.063, -1.0269892e-8, -1.7146100e-9, 3.4600116e+2
-0.062, -1.0277576e-8, -1.7229496e-9, 3.4633450e+2
-0.061, -1.0323556e-8, -1.7151612e-9, 3.4666785e+2
-0.060, -1.0368393e-8, -1.7121098e-9, 3.4700119e+2
-0.059, -1.0407311e-8, -1.7136355e-9, 3.4733453e+2
-0.058, -1.0453157e-8, -1.7074686e-9, 3.4766788e+2
-0.057, -1.0470466e-8, -1.7086428e-9, 3.4800122e+2
-0.056, -1.0514192e-8, -1.7066217e-9, 3.4833456e+2
-0.055, -1.0557937e-8, -1.7094576e-9, 3.4866791e+2
-0.054, -1.0586837e-8, -1.7036901e-9, 3.4900125e+2
-0.053, -1.0638983e-8, -1.7043373e-9, 3.4933459e+2
-0.052, -1.0670321e-8, -1.7006146e-9, 3.4966794e+2
-0.051, -1.0712139e-8, -1.6978349e-9, 3.5000128e+2
-0.050, -1.0769686e-8, -1.6998399e-9, 3.5033463e+2
-0.049, -1.0806120e-8, -1.6971480e-9, 3.5066797e+2
-0.048, -1.0851651e-8, -1.6945837e-9, 3.5100131e+2
-0.047, -1.0906937e-8, -1.6963572e-9, 3.5133466e+2
-0.046, -1.0944401e-8, -1.6960695e-9, 3.5166800e+2
-0.045, -1.0987154e-8, -1.6911967e-9, 3.5200134e+2
-0.044, -1.1046314e-8, -1.6866356e-9, 3.5233469e+2
-0.043, -1.1072315e-8, -1.6916041e-9, 3.5266803e+2
-0.042, -1.1120292e-8, -1.6895112e-9, 3.5300137e+2
-0.041, -1.1168692e-8, -1.6830489e-9, 3.5333472e+2
-0.040, -1.1211388e-8, -1.6808841e-9, 3.5366806e+2
-0.039, -1.1257416e-8, -1.6778247e-9, 3.5400140e+2
-0.038, -1.1305153e-8, -1.6825217e-9, 3.5433475e+2
-0.037, -1.1353912e-8, -1.6805806e-9, 3.5466809e+2
-0.036, -1.1392688e-8, -1.6690617e-9, 3.5500143e+2
-0.035, -1.1444706e-8, -1.6736229e-9, 3.5533478e+2
-0.034, -1.1505767e-8, -1.6725046e-9, 3.5566812e+2
-0.033, -1.1542417e-8, -1.6675838e-9, 3.5600146e+2
-0.032, -1.1582548e-8, -1.6663457e-9, 3.5633481e+2
-0.031, -1.1647556e-8, -1.6615608e-9, 3.5666815e+2
-0.030, -1.1692777e-8, -1.6660662e-9, 3.5700150e+2
-0.029, -1.1734419e-8, -1.6618563e-9, 3.5733484e+2
-0.028, -1.1792724e-8, -1.6592203e-9, 3.5766818e+2
-0.027, -1.1832737e-8, -1.6609937e-9, 3.5800153e+2
-0.026, -1.1889540e-8, -1.6608019e-9, 3.5833487e+2
-0.025, -1.1929274e-8, -1.6564804e-9, 3.5866821e+2
-0.024, -1.1982034e-8, -1.6529097e-9, 3.5900156e+2
-0.023, -1.2029716e-8, -1.6541238e-9, 3.5933490e+2
-0.022, -1.2077829e-8, -1.6498263e-9, 3.5966824e+2
-0.021, -1.2127882e-8, -1.6528777e-9, 3.6000159e+2
-0.020, -1.2168996e-8, -1.6492192e-9, 3.6033493e+2
-0.019, -1.2196244e-8, -1.6493390e-9, 3.6066827e+2
-0.018, -1.2271380e-8, -1.6510086e-9, 3.6100162e+2
-0.017, -1.2303397e-8, -1.6424613e-9, 3.6133496e+2
-0.016, -1.2333953e-8, -1.6478292e-9, 3.6166830e+2
-0.015, -1.2412771e-8, -1.6409675e-9, 3.6200165e+2
-0.014, -1.2423993e-8, -1.6411831e-9, 3.6233499e+2
-0.013, -1.2466187e-8, -1.6376923e-9, 3.6266833e+2
-0.012, -1.2526066e-8, -1.6403763e-9, 3.6300168e+2
-0.011, -1.2526433e-8, -1.6382754e-9, 3.6333502e+2
-0.010, -1.2588765e-8, -1.6354077e-9, 3.6366837e+2
-0.009, -1.2648276e-8, -1.6274355e-9, 3.6400171e+2
-0.008, -1.2671634e-8, -1.6297761e-9, 3.6433505e+2
-0.007, -1.2716885e-8, -1.6289933e-9, 3.6466840e+2
-0.006, -1.2743678e-8, -1.6255184e-9, 3.6500174e+2
-0.005, -1.2793349e-8, -1.6258539e-9, 3.6533508e+2
-0.004, -1.2814310e-8, -1.6209173e-9, 3.6566843e+2
-0.003, -1.2854378e-8, -1.6223630e-9, 3.6600177e+2
-0.002, -1.2898449e-8, -1.6272439e-9, 3.6633511e+2
-0.001, -1.2909008e-8, -1.6178497e-9, 3.6666846e+2
-0.000, -1.2933357e-8, -1.6166437e-9, 3.6700180e+2
0.001, -1.2982269e-8, -1.6192158e-9, 3.6733514e+2
0.002, -1.3005480e-8, -1.6163800e-9, 3.6766849e+2
0.003, -1.3019037e-8, -1.6125776e-9, 3.6800183e+2
0.004, -1.3063436e-8, -1.6176581e-9, 3.6833517e+2
0.005, -1.3072877e-8, -1.6115391e-9, 3.6866852e+2
0.006, -1.3108680e-8, -1.6092546e-9, 3.6900186e+2
0.007, -1.3126350e-8, -1.6091907e-9, 3.6933521e+2
0.008, -1.3149843e-8, -1.6089350e-9, 3.6966855e+2
0.009, -1.3186245e-8, -1.6072975e-9, 3.7000189e+2
0.010, -1.3197044e-8, -1.6028880e-9, 3.7033524e+2
0.011, -1.3228502e-8, -1.6027443e-9, 3.7066858e+2
0.012, -1.3253193e-8, -1.6009469e-9, 3.7100192e+2
0.013, -1.3258369e-8, -1.6014662e-9, 3.7133527e+2
0.014, -1.3299564e-8, -1.5995490e-9, 3.7166861e+2
0.015, -1.3299923e-8, -1.5983986e-9, 3.7200195e+2
0.016, -1.3323760e-8, -1.5990618e-9, 3.7233530e+2
0.017, -1.3368118e-8, -1.5935420e-9, 3.7266864e+2
0.018, -1.3353396e-8, -1.5958905e-9, 3.7300198e+2
0.019, -1.3396012e-8, -1.5947801e-9, 3.7333533e+2
0.020, -1.3413874e-8, -1.5909378e-9, 3.7366867e+2
0.021, -1.3419074e-8, -1.5888609e-9, 3.7400201e+2
0.022, -1.3446904e-8, -1.5868079e-9, 3.7433536e+2
0.023, -1.3477195e-8, -1.5817514e-9, 3.7466870e+2
0.024, -1.3486111e-8, -1.5831254e-9, 3.7500204e+2
0.025, -1.3508693e-8, -1.5838045e-9, 3.7533539e+2
0.026, -1.3526154e-8, -1.5823666e-9, 3.7566873e+2
0.027, -1.3556718e-8, -1.5813841e-9, 3.7600208e+2
0.028, -1.3571272e-8, -1.5741948e-9, 3.7633542e+2
0.029, -1.3604734e-8, -1.5754488e-9, 3.7666876e+2
0.030, -1.3646193e-8, -1.5735556e-9, 3.7700211e+2
0.031, -1.3651392e-8, -1.5699690e-9, 3.7733545e+2
0.032, -1.3682355e-8, -1.5710154e-9, 3.7766879e+2
0.033, -1.3716824e-8, -1.5670774e-9, 3.7800214e+2
0.034, -1.3739749e-8, -1.5638820e-9, 3.7833548e+2
0.035, -1.3756045e-8, -1.5663584e-9, 3.7866882e+2
0.036, -1.3805932e-8, -1.5637782e-9, 3.7900217e+2
0.037, -1.3822211e-8, -1.5595205e-9, 3.7933551e+2
0.038, -1.3848764e-8, -1.5581945e-9, 3.7966885e+2
0.039, -1.3884247e-8, -1.5563412e-9, 3.8000220e+2
0.040, -1.3910719e-8, -1.5558939e-9, 3.8033554e+2
0.041, -1.3941626e-8, -1.5550472e-9, 3.8066888e+2
0.042, -1.3967418e-8, -1.5542964e-9, 3.8100223e+2
0.043, -1.4033425e-8, -1.5551910e-9, 3.8133557e+2
0.044, -1.4054234e-8, -1.5504060e-9, 3.8166891e+2
0.045, -1.4074995e-8, -1.5503181e-9, 3.8200226e+2
0.046, -1.4144324e-8, -1.5496552e-9, 3.8233560e+2
0.047, -1.4158183e-8, -1.5479616e-9, 3.8266895e+2
0.048, -1.4192620e-8, -1.5467475e-9, 3.8300229e+2
0.049, -1.4251828e-8, -1.5458208e-9, 3.8333563e+2
0.050, -1.4286305e-8, -1.5416671e-9, 3.8366898e+2
0.051, -1.4320670e-8, -1.5417708e-9, 3.8400232e+2
0.052, -1.4381556e-8, -1.5409961e-9, 3.8433566e+2
0.053, -1.4396885e-8, -1.5409561e-9, 3.8466901e+2
0.054, -1.4443160e-8, -1.5391508e-9, 3.8500235e+2
0.055, -1.4498925e-8, -1.5310907e-9, 3.8533569e+2
0.056, -1.4538681e-8, -1.5356441e-9, 3.8566904e+2
0.057, -1.4587090e-8, -1.5313544e-9, 3.8600238e+2
0.058, -1.4628156e-8, -1.5305556e-9, 3.8633572e+2
0.059, -1.4697310e-8, -1.5291737e-9, 3.8666907e+2
0.060, -1.4761974e-8, -1.5228631e-9, 3.8700241e+2
0.061, -1.4784341e-8, -1.5221681e-9, 3.8733575e+2
0.062, -1.4872121e-8, -1.5223998e-9, 3.8766910e+2
0.063, -1.4910233e-8, -1.5190047e-9, 3.8800244e+2
0.064, -1.4946252e-8, -1.5179025e-9, 3.8833578e+2
0.065, -1.5033962e-8, -1.5189489e-9, 3.8866913e+2
0.066, -1.5092427e-8, -1.5150666e-9, 3.8900247e+2
0.067, -1.5144190e-8, -1.5134850e-9, 3.8933582e+2
0.068, -1.5219909e-8, -1.5111205e-9, 3.8966916e+2
0.069, -1.5270793e-8, -1.5138444e-9, 3.9000250e+2
0.070, -1.5347542e-8, -1.5149708e-9, 3.9033585e+2
0.071, -1.5417216e-8, -1.5059761e-9, 3.9066919e+2
0.072, -1.5495884e-8, -1.5054090e-9, 3.9100253e+2
0.073, -1.5557895e-8, -1.5072383e-9, 3.9133588e+2
0.074, -1.5617111e-8, -1.5071264e-9, 3.9166922e+2
0.075, -1.5701584e-8, -1.5043625e-9, 3.9200256e+2
0.076, -1.5760762e-8, -1.4965501e-9, 3.9233591e+2
0.077, -1.5841792e-8, -1.4982117e-9, 3.9266925e+2
0.078, -1.5953482e-8, -1.4962706e-9, 3.9300259e+2
0.079, -1.6006211e-8, -1.4954159e-9, 3.9333594e+2
0.080, -1.6099817e-8, -1.4947767e-9, 3.9366928e+2
0.081, -1.6202049e-8, -1.4883703e-9, 3.9400262e+2
0.082, -1.6274493e-8, -1.4855425e-9, 3.9433597e+2
0.083, -1.6351283e-8, -1.4881307e-9, 3.9466931e+2
0.084, -1.6473134e-8, -1.4855824e-9, 3.9500266e+2
0.085, -1.6535306e-8, -1.4811971e-9, 3.9533600e+2
0.086, -1.6638143e-8, -1.4826189e-9, 3.9566934e+2
0.087, -1.6715486e-8, -1.4745268e-9, 3.9600269e+2
0.088, -1.6814091e-8, -1.4758849e-9, 3.9633603e+2
0.089, -1.6906872e-8, -1.4701733e-9, 3.9666937e+2
0.090, -1.7002156e-8, -1.4712517e-9, 3.9700272e+2
0.091, -1.7121849e-8, -1.4701894e-9, 3.9733606e+2
0.092, -1.7197817e-8, -1.4687355e-9, 3.9766940e+2
0.093, -1.7300369e-8, -1.4651887e-9, 3.9800275e+2
0.094, -1.7417355e-8, -1.4648213e-9, 3.9833609e+2
0.095, -1.7508427e-8, -1.4631838e-9, 3.9866943e+2
0.096, -1.7598420e-8, -1.4607793e-9, 3.9900278e+2
0.097, -1.7735440e-8, -1.4573924e-9, 3.9933612e+2
0.098, -1.7822678e-8, -1.4579116e-9, 3.9966946e+2
0.099, -1.7783018e-8, -1.4593574e-9, 4.0000281e+2
