Dec. 15, 2005   05:52:34
Cyclic Voltammetry
File: d:\ida_biofilms\12_04_18_psoralenbiofilm\psoralen\psoralen_200um_pyo_transfer_gc.txt
Data Source:  Experiment
Instrument Model:  CHI760B
Header: 
Note: 

Init E (V) = 0.1
High E (V) = 0.1
Low E (V) = -0.5
Init P/N = N
Scan Rate (V/s) = 0.003
Segment = 2
Sample Interval (V) = 0.001
Quiet Time (sec) = 2
Sensitivity (A/V) = 1e-7
2nd E (V) = 0.1
Sens 2 (A/V) = 1e-7

Potential/V, i1/A, i2/A, Time/s

0.100, -5.2200537e-8, -4.2770619e-8, 3.3333334e-1
0.099, -4.8106269e-8, -3.9876696e-8, 6.6666669e-1
0.098, -4.4641741e-8, -3.7471025e-8, 1.0000000e+0
0.097, -4.1697049e-8, -3.5422822e-8, 1.3333334e+0
0.096, -3.9127624e-8, -3.3653965e-8, 1.6666667e+0
0.095, -3.6824950e-8, -3.2115977e-8, 2.0000000e+0
0.094, -3.4818555e-8, -3.0739784e-8, 2.3333333e+0
0.093, -3.2970267e-8, -2.9522987e-8, 2.6666665e+0
0.092, -3.1262051e-8, -2.8431758e-8, 2.9999998e+0
0.091, -2.9736480e-8, -2.7455435e-8, 3.3333330e+0
0.090, -2.8348815e-8, -2.6562299e-8, 3.6666663e+0
0.089, -2.7017673e-8, -2.5751968e-8, 3.9999995e+0
0.088, -2.5788543e-8, -2.4994391e-8, 4.3333330e+0
0.087, -2.4674613e-8, -2.4289564e-8, 4.6666665e+0
0.086, -2.3593596e-8, -2.3640261e-8, 5.0000000e+0
0.085, -2.2586903e-8, -2.3051200e-8, 5.3333335e+0
0.084, -2.1644736e-8, -2.2469759e-8, 5.6666670e+0
0.083, -2.0744281e-8, -2.1988155e-8, 6.0000005e+0
0.082, -1.9903675e-8, -2.1466498e-8, 6.3333340e+0
0.081, -1.9062462e-8, -2.0989384e-8, 6.6666675e+0
0.080, -1.8348212e-8, -2.0556955e-8, 7.0000010e+0
0.079, -1.7553953e-8, -2.0132468e-8, 7.3333344e+0
0.078, -1.6880012e-8, -1.9731702e-8, 7.6666679e+0
0.077, -1.6224282e-8, -1.9357028e-8, 8.0000010e+0
0.076, -1.5568489e-8, -1.8994559e-8, 8.3333340e+0
0.075, -1.4975498e-8, -1.8652107e-8, 8.6666670e+0
0.074, -1.4396488e-8, -1.8318699e-8, 9.0000000e+0
0.073, -1.3833819e-8, -1.7973468e-8, 9.3333330e+0
0.072, -1.3298711e-8, -1.7679618e-8, 9.6666660e+0
0.071, -1.2807537e-8, -1.7387109e-8, 9.9999990e+0
0.070, -1.2308775e-8, -1.7109393e-8, 1.0333332e+1
0.069, -1.1821260e-8, -1.6844476e-8, 1.0666665e+1
0.068, -1.1376545e-8, -1.6586506e-8, 1.0999998e+1
0.067, -1.0935441e-8, -1.6345632e-8, 1.1333331e+1
0.066, -1.0499050e-8, -1.6096850e-8, 1.1666664e+1
0.065, -1.0108286e-8, -1.5881138e-8, 1.1999997e+1
0.064, -9.7190247e-9, -1.5652279e-8, 1.2333330e+1
0.063, -9.3205621e-9, -1.5451489e-8, 1.2666663e+1
0.062, -8.9530126e-9, -1.5225506e-8, 1.2999996e+1
0.061, -8.6183567e-9, -1.5041907e-8, 1.3333329e+1
0.060, -8.2364622e-9, -1.4831404e-8, 1.3666662e+1
0.059, -7.9323375e-9, -1.4660459e-8, 1.3999995e+1
0.058, -7.6087066e-9, -1.4464398e-8, 1.4333328e+1
0.057, -7.2841488e-9, -1.4295146e-8, 1.4666661e+1
0.056, -6.9689534e-9, -1.4113543e-8, 1.4999994e+1
0.055, -6.6695107e-9, -1.3956976e-8, 1.5333327e+1
0.054, -6.3790311e-9, -1.3789002e-8, 1.5666660e+1
0.053, -6.1004055e-9, -1.3635390e-8, 1.5999993e+1
0.052, -5.8432197e-9, -1.3459013e-8, 1.6333326e+1
0.051, -5.5939902e-9, -1.3344383e-8, 1.6666660e+1
0.050, -5.3318518e-9, -1.3173979e-8, 1.6999994e+1
0.049, -5.0857532e-9, -1.3044222e-8, 1.7333328e+1
0.048, -4.8815130e-9, -1.2904859e-8, 1.7666662e+1
0.047, -4.6096136e-9, -1.2773615e-8, 1.7999996e+1
0.046, -4.3980242e-9, -1.2633743e-8, 1.8333330e+1
0.045, -4.1803796e-9, -1.2525904e-8, 1.8666664e+1
0.044, -3.9605466e-9, -1.2440334e-8, 1.8999998e+1
0.043, -3.6854195e-9, -1.2291611e-8, 1.9333332e+1
0.042, -3.6392480e-9, -1.2204525e-8, 1.9666666e+1
0.041, -3.3590086e-9, -1.1995524e-8, 2.0000000e+1
0.040, -3.1940859e-9, -1.1964482e-8, 2.0333334e+1
0.039, -2.9117537e-9, -1.1760801e-8, 2.0666668e+1
0.038, -2.8594633e-9, -1.1659927e-8, 2.1000002e+1
0.037, -2.5797833e-9, -1.1691129e-8, 2.1333336e+1
0.036, -2.5859499e-9, -1.1500453e-8, 2.1666670e+1
0.035, -2.3098166e-9, -1.1429822e-8, 2.2000004e+1
0.034, -2.1335986e-9, -1.1302969e-8, 2.2333338e+1
0.033, -1.9897806e-9, -1.1216186e-8, 2.2666672e+1
0.032, -1.8379901e-9, -1.1106366e-8, 2.3000006e+1
0.031, -1.6643763e-9, -1.1019822e-8, 2.3333340e+1
0.030, -1.5390426e-9, -1.0919572e-8, 2.3666674e+1
0.029, -1.3879552e-9, -1.0839690e-8, 2.4000008e+1
0.028, -1.2322826e-9, -1.0742971e-8, 2.4333342e+1
0.027, -1.1045046e-9, -1.0667835e-8, 2.4666676e+1
0.026, -9.5963193e-10, -1.0583447e-8, 2.5000010e+1
0.025, -7.8619383e-10, -1.0502256e-8, 2.5333344e+1
0.024, -6.9276473e-10, -1.0331981e-8, 2.5666677e+1
0.023, -5.1710591e-10, -1.0259881e-8, 2.6000011e+1
0.022, -4.2634482e-10, -1.0347079e-8, 2.6333345e+1
0.021, -4.5056484e-10, -1.0099990e-8, 2.6666679e+1
0.020, -2.9343844e-10, -1.0135793e-8, 2.7000013e+1
0.019, -1.0971159e-10, -1.0054379e-8, 2.7333347e+1
0.018, -8.6618213e-12, -9.9828688e-9, 2.7666681e+1
0.017, 1.3632261e-10, -9.8966924e-9, 2.8000015e+1
0.016, 2.1717839e-10, -9.8180415e-9, 2.8333349e+1
0.015, 3.5792916e-10, -9.7453654e-9, 2.8666683e+1
0.014, 4.5407422e-10, -9.6735677e-9, 2.9000017e+1
0.013, 5.4152816e-10, -9.6205754e-9, 2.9333351e+1
0.012, 6.5981631e-10, -9.5455990e-9, 2.9666685e+1
0.011, 7.6096190e-10, -9.4874135e-9, 3.0000019e+1
0.010, 8.4593965e-10, -9.4251380e-9, 3.0333353e+1
0.009, 9.6635255e-10, -9.3527648e-9, 3.0666687e+1
0.008, 1.0371433e-9, -9.3050598e-9, 3.1000021e+1
0.007, 1.1491048e-9, -9.2360581e-9, 3.1333355e+1
0.006, 1.2366868e-9, -9.1781613e-9, 3.1666689e+1
0.005, 1.3333589e-9, -9.1316217e-9, 3.2000023e+1
0.004, 1.4051562e-9, -9.0657677e-9, 3.2333355e+1
0.003, 1.4958215e-9, -9.0076462e-9, 3.2666687e+1
0.002, 1.5981173e-9, -8.9519530e-9, 3.3000019e+1
0.001, 1.6781103e-9, -8.8992156e-9, 3.3333351e+1
-0.000, 1.7476390e-9, -8.8475645e-9, 3.3666683e+1
-0.001, 1.8480018e-9, -8.7929095e-9, 3.4000015e+1
-0.002, 1.9266049e-9, -8.7397245e-9, 3.4333347e+1
-0.003, 2.0094897e-9, -8.6856611e-9, 3.4666679e+1
-0.004, 2.1123447e-9, -8.6368539e-9, 3.5000011e+1
-0.005, 2.1875610e-9, -8.5744345e-9, 3.5333344e+1
-0.006, 2.2601729e-9, -8.5279437e-9, 3.5666676e+1
-0.007, 2.3434574e-9, -8.4737835e-9, 3.6000008e+1
-0.008, 2.4149669e-9, -8.4380130e-9, 3.6333340e+1
-0.009, 2.4914932e-9, -8.3856424e-9, 3.6666672e+1
-0.010, 2.5740263e-9, -8.3431777e-9, 3.7000004e+1
-0.011, 2.6574705e-9, -8.2996108e-9, 3.7333336e+1
-0.012, 2.7231806e-9, -8.2493337e-9, 3.7666668e+1
-0.013, 2.7930289e-9, -8.1945988e-9, 3.8000000e+1
-0.014, 2.8912508e-9, -8.1564000e-9, 3.8333332e+1
-0.015, 2.9515612e-9, -8.1055314e-9, 3.8666664e+1
-0.016, 3.0240452e-9, -8.0665492e-9, 3.8999996e+1
-0.017, 3.1228427e-9, -8.0214644e-9, 3.9333328e+1
-0.018, 3.1787915e-9, -7.9783771e-9, 3.9666660e+1
-0.019, 3.2550940e-9, -7.9387075e-9, 3.9999992e+1
-0.020, 3.3384580e-9, -7.8971851e-9, 4.0333324e+1
-0.021, 3.3924097e-9, -7.8543687e-9, 4.0666656e+1
-0.022, 3.4668430e-9, -7.8051938e-9, 4.0999989e+1
-0.023, 3.5395029e-9, -7.7756859e-9, 4.1333321e+1
-0.024, 3.6142880e-9, -7.7403781e-9, 4.1666653e+1
-0.025, 3.6858454e-9, -7.6920346e-9, 4.1999985e+1
-0.026, 3.7408356e-9, -7.6626376e-9, 4.2333317e+1
-0.027, 3.8151411e-9, -7.6221385e-9, 4.2666649e+1
-0.028, 3.8710581e-9, -7.5857445e-9, 4.2999981e+1
-0.029, 3.9395003e-9, -7.5448607e-9, 4.3333313e+1
-0.030, 4.0183110e-9, -7.5059106e-9, 4.3666645e+1
-0.031, 4.0771200e-9, -7.4755881e-9, 4.3999977e+1
-0.032, 4.1321258e-9, -7.4341457e-9, 4.4333309e+1
-0.033, 4.2099462e-9, -7.3993491e-9, 4.4666641e+1
-0.034, 4.2546797e-9, -7.3703843e-9, 4.4999973e+1
-0.035, 4.3240167e-9, -7.3269129e-9, 4.5333305e+1
-0.036, 4.3906057e-9, -7.2976922e-9, 4.5666637e+1
-0.037, 4.4402597e-9, -7.2704212e-9, 4.5999969e+1
-0.038, 4.4936845e-9, -7.2322694e-9, 4.6333302e+1
-0.039, 4.5642836e-9, -7.1997897e-9, 4.6666634e+1
-0.040, 4.6084581e-9, -7.1752506e-9, 4.6999966e+1
-0.041, 4.6603326e-9, -7.1378023e-9, 4.7333298e+1
-0.042, 4.7191890e-9, -7.1049868e-9, 4.7666630e+1
-0.043, 4.7858260e-9, -7.0786581e-9, 4.7999962e+1
-0.044, 4.8315023e-9, -7.0432389e-9, 4.8333294e+1
-0.045, 4.8690465e-9, -7.0094011e-9, 4.8666626e+1
-0.046, 4.9456044e-9, -6.9864909e-9, 4.8999958e+1
-0.047, 4.9790749e-9, -6.9523338e-9, 4.9333290e+1
-0.048, 5.0269557e-9, -6.9199979e-9, 4.9666622e+1
-0.049, 5.1029705e-9, -6.8938606e-9, 4.9999954e+1
-0.050, 5.1430225e-9, -6.8670847e-9, 5.0333286e+1
-0.051, 5.1956808e-9, -6.8327357e-9, 5.0666618e+1
-0.052, 5.2669824e-9, -6.8046497e-9, 5.0999950e+1
-0.053, 5.2911711e-9, -6.7858612e-9, 5.1333282e+1
-0.054, 5.3519762e-9, -6.7481731e-9, 5.1666615e+1
-0.055, 5.4006719e-9, -6.7185533e-9, 5.1999947e+1
-0.056, 5.4320015e-9, -6.6949726e-9, 5.2333279e+1
-0.057, 5.4772462e-9, -6.6706405e-9, 5.2666611e+1
-0.058, 5.5139755e-9, -6.6389281e-9, 5.2999943e+1
-0.059, 5.5604503e-9, -6.6118484e-9, 5.3333275e+1
-0.060, 5.6109988e-9, -6.5872610e-9, 5.3666607e+1
-0.061, 5.6387983e-9, -6.5540777e-9, 5.3999939e+1
-0.062, 5.6924616e-9, -6.5308488e-9, 5.4333271e+1
-0.063, 5.7246385e-9, -6.5075554e-9, 5.4666603e+1
-0.064, 5.7468617e-9, -6.4867383e-9, 5.4999935e+1
-0.065, 5.8035137e-9, -6.4602657e-9, 5.5333267e+1
-0.066, 5.8296976e-9, -6.4350067e-9, 5.5666599e+1
-0.067, 5.8548770e-9, -6.4075754e-9, 5.5999931e+1
-0.068, 5.9053780e-9, -6.3934205e-9, 5.6333263e+1
-0.069, 5.9226646e-9, -6.3658456e-9, 5.6666595e+1
-0.070, 5.9584986e-9, -6.3361458e-9, 5.6999928e+1
-0.071, 5.9930718e-9, -6.3126926e-9, 5.7333260e+1
-0.072, 6.0144472e-9, -6.2925469e-9, 5.7666592e+1
-0.073, 6.0568643e-9, -6.2663621e-9, 5.7999924e+1
-0.074, 6.0837362e-9, -6.2408638e-9, 5.8333256e+1
-0.075, 6.1106729e-9, -6.2215642e-9, 5.8666588e+1
-0.076, 6.1456609e-9, -6.2051888e-9, 5.8999920e+1
-0.077, 6.1675154e-9, -6.1779812e-9, 5.9333252e+1
-0.078, 6.1991643e-9, -6.1526588e-9, 5.9666584e+1
-0.079, 6.2254775e-9, -6.1321455e-9, 5.9999916e+1
-0.080, 6.2606573e-9, -6.1123346e-9, 6.0333248e+1
-0.081, 6.2939036e-9, -6.0956240e-9, 6.0666580e+1
-0.082, 6.3142096e-9, -6.0711001e-9, 6.0999912e+1
-0.083, 6.3347554e-9, -6.0507785e-9, 6.1333244e+1
-0.084, 6.3858319e-9, -6.0312710e-9, 6.1666576e+1
-0.085, 6.3908003e-9, -6.0072427e-9, 6.1999908e+1
-0.086, 6.4084054e-9, -5.9898446e-9, 6.2333241e+1
-0.087, 6.4453589e-9, -5.9705298e-9, 6.2666573e+1
-0.088, 6.4555992e-9, -5.9448557e-9, 6.2999905e+1
-0.089, 6.4772152e-9, -5.9292788e-9, 6.3333237e+1
-0.090, 6.4911627e-9, -5.9101875e-9, 6.3666569e+1
-0.091, 6.5140400e-9, -5.8890350e-9, 6.3999901e+1
-0.092, 6.5577197e-9, -5.8751035e-9, 6.4333237e+1
-0.093, 6.5515207e-9, -5.8497971e-9, 6.4666573e+1
-0.094, 6.5945289e-9, -5.8267275e-9, 6.4999908e+1
-0.095, 6.6068147e-9, -5.8155440e-9, 6.5333244e+1
-0.096, 6.6190360e-9, -5.7993441e-9, 6.5666580e+1
-0.097, 6.6683077e-9, -5.7756195e-9, 6.5999916e+1
-0.098, 6.6761841e-9, -5.7554574e-9, 6.6333252e+1
-0.099, 6.6945089e-9, -5.7400560e-9, 6.6666588e+1
-0.100, 6.7350876e-9, -5.7199578e-9, 6.6999924e+1
-0.101, 6.7343531e-9, -5.6965530e-9, 6.7333260e+1
-0.102, 6.7832566e-9, -5.6734830e-9, 6.7666595e+1
-0.103, 6.7954469e-9, -5.6480811e-9, 6.7999931e+1
-0.104, 6.8034183e-9, -5.6319127e-9, 6.8333267e+1
-0.105, 6.8159758e-9, -5.6233338e-9, 6.8666603e+1
-0.106, 6.8370163e-9, -5.5986664e-9, 6.8999939e+1
-0.107, 6.8682979e-9, -5.5696057e-9, 6.9333275e+1
-0.108, 6.8728352e-9, -5.5637264e-9, 6.9666611e+1
-0.109, 6.8821655e-9, -5.5305116e-9, 6.9999947e+1
-0.110, 6.9189263e-9, -5.5278440e-9, 7.0333282e+1
-0.111, 6.9179045e-9, -5.5072027e-9, 7.0666618e+1
-0.112, 6.9340085e-9, -5.4850435e-9, 7.0999954e+1
-0.113, 6.9849886e-9, -5.4594653e-9, 7.1333290e+1
-0.114, 6.9746671e-9, -5.4468123e-9, 7.1666626e+1
-0.115, 6.9958364e-9, -5.4314273e-9, 7.1999962e+1
-0.116, 7.0240342e-9, -5.4195572e-9, 7.2333298e+1
-0.117, 7.0345472e-9, -5.4056257e-9, 7.2666634e+1
-0.118, 7.0456827e-9, -5.3964873e-9, 7.2999969e+1
-0.119, 7.0710851e-9, -5.3685127e-9, 7.3333305e+1
-0.120, 7.0745516e-9, -5.3599334e-9, 7.3666641e+1
-0.121, 7.0936750e-9, -5.3399787e-9, 7.3999977e+1
-0.122, 7.1046662e-9, -5.3299778e-9, 7.4333313e+1
-0.123, 7.1300361e-9, -5.3226930e-9, 7.4666649e+1
-0.124, 7.1530271e-9, -5.3062372e-9, 7.4999985e+1
-0.125, 7.1629644e-9, -5.2873057e-9, 7.5333321e+1
-0.126, 7.1877433e-9, -5.2746043e-9, 7.5666656e+1
-0.127, 7.2020900e-9, -5.2601616e-9, 7.5999992e+1
-0.128, 7.2072504e-9, -5.2428750e-9, 7.6333328e+1
-0.129, 7.2492838e-9, -5.2282094e-9, 7.6666664e+1
-0.130, 7.2475577e-9, -5.2178408e-9, 7.7000000e+1
-0.131, 7.2605144e-9, -5.2082227e-9, 7.7333336e+1
-0.132, 7.2898469e-9, -5.1915277e-9, 7.7666672e+1
-0.133, 7.2867476e-9, -5.1751838e-9, 7.8000008e+1
-0.134, 7.3001361e-9, -5.1570033e-9, 7.8333344e+1
-0.135, 7.3364985e-9, -5.1450848e-9, 7.8666679e+1
-0.136, 7.3318804e-9, -5.1299556e-9, 7.9000015e+1
-0.137, 7.3547590e-9, -5.1181166e-9, 7.9333351e+1
-0.138, 7.3610376e-9, -5.1024283e-9, 7.9666687e+1
-0.139, 7.3903061e-9, -5.0897269e-9, 8.0000023e+1
-0.140, 7.3914883e-9, -5.0851576e-9, 8.0333359e+1
-0.141, 7.4071611e-9, -5.0650595e-9, 8.0666695e+1
-0.142, 7.4452804e-9, -5.0536046e-9, 8.1000031e+1
-0.143, 7.4406468e-9, -5.0474860e-9, 8.1333366e+1
-0.144, 7.4589241e-9, -5.0345452e-9, 8.1666702e+1
-0.145, 7.4935285e-9, -5.0212212e-9, 8.2000038e+1
-0.146, 7.4924422e-9, -5.0066826e-9, 8.2333374e+1
-0.147, 7.5065492e-9, -4.9963140e-9, 8.2666710e+1
-0.148, 7.5378788e-9, -4.9801461e-9, 8.3000046e+1
-0.149, 7.5501800e-9, -4.9650009e-9, 8.3333382e+1
-0.150, 7.5642870e-9, -4.9531463e-9, 8.3666718e+1
-0.151, 7.5902333e-9, -4.9429532e-9, 8.4000053e+1
-0.152, 7.5884596e-9, -4.9343263e-9, 8.4333389e+1
-0.153, 7.6109536e-9, -4.9229509e-9, 8.4666725e+1
-0.154, 7.6231279e-9, -4.9091637e-9, 8.5000061e+1
-0.155, 7.6420594e-9, -4.8990350e-9, 8.5333397e+1
-0.156, 7.6673663e-9, -4.8800866e-9, 8.5666733e+1
-0.157, 7.6616944e-9, -4.8729296e-9, 8.6000069e+1
-0.158, 7.7022895e-9, -4.8556115e-9, 8.6333405e+1
-0.159, 7.7114608e-9, -4.8450826e-9, 8.6666740e+1
-0.160, 7.7334592e-9, -4.8379736e-9, 8.7000076e+1
-0.161, 7.7616740e-9, -4.8289786e-9, 8.7333412e+1
-0.162, 7.7686071e-9, -4.8194249e-9, 8.7666748e+1
-0.163, 7.7757969e-9, -4.8031934e-9, 8.8000084e+1
-0.164, 7.8278157e-9, -4.7937512e-9, 8.8333420e+1
-0.165, 7.8238855e-9, -4.7780149e-9, 8.8666756e+1
-0.166, 7.8401330e-9, -4.7692916e-9, 8.9000092e+1
-0.167, 7.8658546e-9, -4.7577888e-9, 8.9333427e+1
-0.168, 7.8733802e-9, -4.7529798e-9, 8.9666763e+1
-0.169, 7.9024085e-9, -4.7365720e-9, 9.0000099e+1
-0.170, 7.9327309e-9, -4.7321786e-9, 9.0333435e+1
-0.171, 7.9608977e-9, -4.7287596e-9, 9.0666771e+1
-0.172, 7.9713782e-9, -4.7134385e-9, 9.1000107e+1
-0.173, 7.9953590e-9, -4.6976862e-9, 9.1333443e+1
-0.174, 8.0307778e-9, -4.6887232e-9, 9.1666779e+1
-0.175, 8.0410185e-9, -4.6714370e-9, 9.2000114e+1
-0.176, 8.0617877e-9, -4.6633373e-9, 9.2333450e+1
-0.177, 8.1052587e-9, -4.6574740e-9, 9.2666786e+1
-0.178, 8.1205167e-9, -4.6476645e-9, 9.3000122e+1
-0.179, 8.1299900e-9, -4.6371520e-9, 9.3333458e+1
-0.180, 8.1833349e-9, -4.6369122e-9, 9.3666794e+1
-0.181, 8.1815461e-9, -4.6299786e-9, 9.4000130e+1
-0.182, 8.2209262e-9, -4.6142419e-9, 9.4333466e+1
-0.183, 8.2699581e-9, -4.6056789e-9, 9.4666801e+1
-0.184, 8.2657241e-9, -4.5951825e-9, 9.5000137e+1
-0.185, 8.3140845e-9, -4.5878177e-9, 9.5333473e+1
-0.186, 8.3469800e-9, -4.5809316e-9, 9.5666809e+1
-0.187, 8.3698417e-9, -4.5687414e-9, 9.6000145e+1
-0.188, 8.4003080e-9, -4.5595394e-9, 9.6333481e+1
-0.189, 8.4288576e-9, -4.5604343e-9, 9.6666817e+1
-0.190, 8.4760678e-9, -4.5467905e-9, 9.7000153e+1
-0.191, 8.4915968e-9, -4.5402082e-9, 9.7333488e+1
-0.192, 8.5015026e-9, -4.5301429e-9, 9.7666824e+1
-0.193, 8.5611251e-9, -4.5293920e-9, 9.8000160e+1
-0.194, 8.5870067e-9, -4.5172501e-9, 9.8333496e+1
-0.195, 8.6151566e-9, -4.5049005e-9, 9.8666832e+1
-0.196, 8.6526688e-9, -4.5060511e-9, 9.9000168e+1
-0.197, 8.6794296e-9, -4.4981427e-9, 9.9333504e+1
-0.198, 8.7418481e-9, -4.4913526e-9, 9.9666840e+1
-0.199, 8.7743279e-9, -4.4814477e-9, 1.0000018e+2
-0.200, 8.7957526e-9, -4.4762394e-9, 1.0033351e+2
-0.201, 8.8416687e-9, -4.4713189e-9, 1.0066685e+2
-0.202, 8.8745793e-9, -4.4620521e-9, 1.0100018e+2
-0.203, 8.9305283e-9, -4.4605986e-9, 1.0133352e+2
-0.204, 8.9054604e-9, -4.4541917e-9, 1.0166685e+2
-0.205, 8.9720977e-9, -4.4534731e-9, 1.0200019e+2
-0.206, 9.0355243e-9, -4.4484727e-9, 1.0233353e+2
-0.207, 9.0726688e-9, -4.4460280e-9, 1.0266686e+2
-0.208, 9.1148937e-9, -4.4416666e-9, 1.0300020e+2
-0.209, 9.1868033e-9, -4.4387911e-9, 1.0333353e+2
-0.210, 9.2296668e-9, -4.4366981e-9, 1.0366687e+2
-0.211, 9.2714929e-9, -4.4292854e-9, 1.0400021e+2
-0.212, 9.3466941e-9, -4.4328798e-9, 1.0433354e+2
-0.213, 9.3746992e-9, -4.4242845e-9, 1.0466688e+2
-0.214, 9.4291153e-9, -4.4223993e-9, 1.0500021e+2
-0.215, 9.4906385e-9, -4.4267128e-9, 1.0533355e+2
-0.216, 9.5405328e-9, -4.4222235e-9, 1.0566689e+2
-0.217, 9.6010186e-9, -4.4276396e-9, 1.0600022e+2
-0.218, 9.6615853e-9, -4.4218242e-9, 1.0633356e+2
-0.219, 9.7103285e-9, -4.4271924e-9, 1.0666689e+2
-0.220, 9.7763744e-9, -4.4278154e-9, 1.0700023e+2
-0.221, 9.8255333e-9, -4.4315058e-9, 1.0733356e+2
-0.222, 9.9293791e-9, -4.4359951e-9, 1.0766690e+2
-0.223, 9.9805346e-9, -4.4378963e-9, 1.0800024e+2
-0.224, 1.0037074e-8, -4.4448139e-9, 1.0833357e+2
-0.225, 1.0133013e-8, -4.4542081e-9, 1.0866691e+2
-0.226, 1.0198179e-8, -4.4568282e-9, 1.0900024e+2
-0.227, 1.0256397e-8, -4.4661905e-9, 1.0933358e+2
-0.228, 1.0367414e-8, -4.4759836e-9, 1.0966692e+2
-0.229, 1.0430729e-8, -4.4962096e-9, 1.1000025e+2
-0.230, 1.0508230e-8, -4.5058273e-9, 1.1033359e+2
-0.231, 1.0600893e-8, -4.5197583e-9, 1.1066692e+2
-0.232, 1.0690056e-8, -4.5303508e-9, 1.1100026e+2
-0.233, 1.0759345e-8, -4.5445536e-9, 1.1133360e+2
-0.234, 1.0848717e-8, -4.5604343e-9, 1.1166693e+2
-0.235, 1.0969864e-8, -4.5819699e-9, 1.1200027e+2
-0.236, 1.1069475e-8, -4.6043045e-9, 1.1233360e+2
-0.237, 1.1158686e-8, -4.6231086e-9, 1.1266694e+2
-0.238, 1.1248217e-8, -4.6453161e-9, 1.1300027e+2
-0.239, 1.1362688e-8, -4.6698396e-9, 1.1333361e+2
-0.240, 1.1439533e-8, -4.6988524e-9, 1.1366695e+2
-0.241, 1.1571034e-8, -4.7299422e-9, 1.1400028e+2
-0.242, 1.1659958e-8, -4.7563828e-9, 1.1433362e+2
-0.243, 1.1745414e-8, -4.7870250e-9, 1.1466695e+2
-0.244, 1.1908532e-8, -4.8208149e-9, 1.1500029e+2
-0.245, 1.1983429e-8, -4.8470481e-9, 1.1533363e+2
-0.246, 1.2095231e-8, -4.8884425e-9, 1.1566696e+2
-0.247, 1.2200818e-8, -4.9379687e-9, 1.1600030e+2
-0.248, 1.2332397e-8, -4.9428097e-9, 1.1633363e+2
-0.249, 1.2462190e-8, -4.9229194e-9, 1.1666697e+2
-0.250, 1.2547997e-8, -5.0925069e-9, 1.1700031e+2
-0.251, 1.2703159e-8, -5.1027160e-9, 1.1733364e+2
-0.252, 1.2709837e-8, -5.0671045e-9, 1.1766698e+2
-0.253, 1.2845939e-8, -5.2432427e-9, 1.1800031e+2
-0.254, 1.2901072e-8, -5.2568550e-9, 1.1833365e+2
-0.255, 1.3065341e-8, -5.3121165e-9, 1.1866698e+2
-0.256, 1.3163962e-8, -5.3232196e-9, 1.1900032e+2
-0.257, 1.3324044e-8, -5.3930207e-9, 1.1933366e+2
-0.258, 1.3408334e-8, -5.4201164e-9, 1.1966699e+2
-0.259, 1.3507115e-8, -5.4745950e-9, 1.2000033e+2
-0.260, 1.3643377e-8, -5.5348415e-9, 1.2033366e+2
-0.261, 1.3715094e-8, -5.5915410e-9, 1.2066700e+2
-0.262, 1.3825618e-8, -5.6463398e-9, 1.2100034e+2
-0.263, 1.3920437e-8, -5.7116507e-9, 1.2133367e+2
-0.264, 1.4006980e-8, -5.7602501e-9, 1.2166701e+2
-0.265, 1.4096686e-8, -5.8178125e-9, 1.2200034e+2
-0.266, 1.4199110e-8, -5.8694636e-9, 1.2233368e+2
-0.267, 1.4282075e-8, -5.9159708e-9, 1.2266702e+2
-0.268, 1.4359433e-8, -5.9656249e-9, 1.2300035e+2
-0.269, 1.4426885e-8, -6.0231877e-9, 1.2333369e+2
-0.270, 1.4529228e-8, -6.0710521e-9, 1.2366702e+2
-0.271, 1.4600435e-8, -6.1150986e-9, 1.2400036e+2
-0.272, 1.4659706e-8, -6.1611418e-9, 1.2433369e+2
-0.273, 1.4755804e-8, -6.2091825e-9, 1.2466703e+2
-0.274, 1.4828207e-8, -6.2538206e-9, 1.2500037e+2
-0.275, 1.4883884e-8, -6.3003109e-9, 1.2533370e+2
-0.276, 1.4975955e-8, -6.3381749e-9, 1.2566704e+2
-0.277, 1.5022158e-8, -6.3914718e-9, 1.2600037e+2
-0.278, 1.5072915e-8, -6.4286487e-9, 1.2633371e+2
-0.279, 1.5144426e-8, -6.4717049e-9, 1.2666705e+2
-0.280, 1.5189718e-8, -6.5054304e-9, 1.2700038e+2
-0.281, 1.5241577e-8, -6.5486780e-9, 1.2733372e+2
-0.282, 1.5308981e-8, -6.5866219e-9, 1.2766705e+2
-0.283, 1.5361477e-8, -6.6240697e-9, 1.2800038e+2
-0.284, 1.5403415e-8, -6.6676851e-9, 1.2833371e+2
-0.285, 1.5456202e-8, -6.6973529e-9, 1.2866704e+2
-0.286, 1.5516894e-8, -6.7341626e-9, 1.2900037e+2
-0.287, 1.5542922e-8, -6.7730488e-9, 1.2933369e+2
-0.288, 1.5580449e-8, -6.7982269e-9, 1.2966702e+2
-0.289, 1.5633537e-8, -6.8254504e-9, 1.3000035e+2
-0.290, 1.5678655e-8, -6.8619723e-9, 1.3033368e+2
-0.291, 1.5698529e-8, -6.8883330e-9, 1.3066701e+2
-0.292, 1.5721648e-8, -6.9185120e-9, 1.3100034e+2
-0.293, 1.5786206e-8, -6.9456236e-9, 1.3133366e+2
-0.294, 1.5795345e-8, -6.9808834e-9, 1.3166699e+2
-0.295, 1.5847860e-8, -6.9969874e-9, 1.3200032e+2
-0.296, 1.5875850e-8, -7.0303616e-9, 1.3233365e+2
-0.297, 1.5902177e-8, -7.0520736e-9, 1.3266698e+2
-0.298, 1.5908952e-8, -7.0787696e-9, 1.3300031e+2
-0.299, 1.5975925e-8, -7.0922379e-9, 1.3333363e+2
-0.300, 1.5984712e-8, -7.1320190e-9, 1.3366696e+2
-0.301, 1.6018070e-8, -7.1523725e-9, 1.3400029e+2
-0.302, 1.6044496e-8, -7.1782540e-9, 1.3433362e+2
-0.303, 1.6100923e-8, -7.1923929e-9, 1.3466695e+2
-0.304, 1.6089787e-8, -7.2209105e-9, 1.3500027e+2
-0.305, 1.6160307e-8, -7.2367592e-9, 1.3533360e+2
-0.306, 1.6155051e-8, -7.2651489e-9, 1.3566693e+2
-0.307, 1.6209242e-8, -7.2763640e-9, 1.3600026e+2
-0.308, 1.6232695e-8, -7.2980280e-9, 1.3633359e+2
-0.309, 1.6247377e-8, -7.3099304e-9, 1.3666692e+2
-0.310, 1.6267924e-8, -7.3390547e-9, 1.3700024e+2
-0.311, 1.6316521e-8, -7.3475386e-9, 1.3733357e+2
-0.312, 1.6312050e-8, -7.3774618e-9, 1.3766690e+2
-0.313, 1.6354067e-8, -7.3845876e-9, 1.3800023e+2
-0.314, 1.6358459e-8, -7.4001960e-9, 1.3833356e+2
-0.315, 1.6392873e-8, -7.4182815e-9, 1.3866689e+2
-0.316, 1.6397074e-8, -7.4356317e-9, 1.3900021e+2
-0.317, 1.6434363e-8, -7.4504896e-9, 1.3933354e+2
-0.318, 1.6465023e-8, -7.4746778e-9, 1.3966687e+2
-0.319, 1.6484242e-8, -7.4755722e-9, 1.4000020e+2
-0.320, 1.6493539e-8, -7.4953350e-9, 1.4033353e+2
-0.321, 1.6545989e-8, -7.5076523e-9, 1.4066685e+2
-0.322, 1.6528960e-8, -7.5210567e-9, 1.4100018e+2
-0.323, 1.6576008e-8, -7.5358342e-9, 1.4133351e+2
-0.324, 1.6599861e-8, -7.5581852e-9, 1.4166684e+2
-0.325, 1.6607290e-8, -7.5631217e-9, 1.4200017e+2
-0.326, 1.6642199e-8, -7.5831075e-9, 1.4233350e+2
-0.327, 1.6669661e-8, -7.5879489e-9, 1.4266682e+2
-0.328, 1.6677074e-8, -7.6021518e-9, 1.4300015e+2
-0.329, 1.6710450e-8, -7.6157161e-9, 1.4333348e+2
-0.330, 1.6717431e-8, -7.6319315e-9, 1.4366681e+2
-0.331, 1.6771590e-8, -7.6411659e-9, 1.4400014e+2
-0.332, 1.6777918e-8, -7.6629574e-9, 1.4433347e+2
-0.333, 1.6800522e-8, -7.6661690e-9, 1.4466679e+2
-0.334, 1.6836710e-8, -7.6797484e-9, 1.4500012e+2
-0.335, 1.6864972e-8, -7.6866344e-9, 1.4533345e+2
-0.336, 1.6866553e-8, -7.6982332e-9, 1.4566678e+2
-0.337, 1.6899577e-8, -7.7091284e-9, 1.4600011e+2
-0.338, 1.6902579e-8, -7.7283797e-9, 1.4633344e+2
-0.339, 1.6953910e-8, -7.7356015e-9, 1.4666676e+2
-0.340, 1.6976822e-8, -7.7506188e-9, 1.4700009e+2
-0.341, 1.6994044e-8, -7.7580484e-9, 1.4733342e+2
-0.342, 1.6992127e-8, -7.7682252e-9, 1.4766675e+2
-0.343, 1.7040966e-8, -7.7759417e-9, 1.4800008e+2
-0.344, 1.7043234e-8, -7.7917424e-9, 1.4833340e+2
-0.345, 1.7074596e-8, -7.7942506e-9, 1.4866673e+2
-0.346, 1.7074452e-8, -7.8141245e-9, 1.4900006e+2
-0.347, 1.7118738e-8, -7.8118720e-9, 1.4933339e+2
-0.348, 1.7121645e-8, -7.8320816e-9, 1.4966672e+2
-0.349, 1.7160229e-8, -7.8418276e-9, 1.5000005e+2
-0.350, 1.7173759e-8, -7.8546885e-9, 1.5033337e+2
-0.351, 1.7194401e-8, -7.8549283e-9, 1.5066670e+2
-0.352, 1.7185663e-8, -7.8725018e-9, 1.5100003e+2
-0.353, 1.7258499e-8, -7.8726776e-9, 1.5133336e+2
-0.354, 1.7248418e-8, -7.8876470e-9, 1.5166669e+2
-0.355, 1.7266455e-8, -7.8894686e-9, 1.5200002e+2
-0.356, 1.7288981e-8, -7.9046139e-9, 1.5233334e+2
-0.357, 1.7315758e-8, -7.9085121e-9, 1.5266667e+2
-0.358, 1.7323458e-8, -7.9228268e-9, 1.5300000e+2
-0.359, 1.7350745e-8, -7.9292652e-9, 1.5333333e+2
-0.360, 1.7341991e-8, -7.9428295e-9, 1.5366666e+2
-0.361, 1.7371626e-8, -7.9417743e-9, 1.5399998e+2
-0.362, 1.7399394e-8, -7.9550997e-9, 1.5433331e+2
-0.363, 1.7418181e-8, -7.9566647e-9, 1.5466664e+2
-0.364, 1.7430114e-8, -7.9666176e-9, 1.5499997e+2
-0.365, 1.7447178e-8, -7.9745899e-9, 1.5533330e+2
-0.366, 1.7451123e-8, -7.9843838e-9, 1.5566663e+2
-0.367, 1.7477308e-8, -7.9825782e-9, 1.5599995e+2
-0.368, 1.7476861e-8, -7.9963014e-9, 1.5633328e+2
-0.369, 1.7522378e-8, -7.9973885e-9, 1.5666661e+2
-0.370, 1.7518927e-8, -8.0021492e-9, 1.5699994e+2
-0.371, 1.7550688e-8, -8.0111278e-9, 1.5733327e+2
-0.372, 1.7565993e-8, -8.0252027e-9, 1.5766660e+2
-0.373, 1.7584957e-8, -8.0239246e-9, 1.5799992e+2
-0.374, 1.7583584e-8, -8.0355234e-9, 1.5833325e+2
-0.375, 1.7628588e-8, -8.0377598e-9, 1.5866658e+2
-0.376, 1.7642201e-8, -8.0472340e-9, 1.5899991e+2
-0.377, 1.7677683e-8, -8.0462756e-9, 1.5933324e+2
-0.378, 1.7675653e-8, -8.0617726e-9, 1.5966656e+2
-0.379, 1.7715882e-8, -8.0644247e-9, 1.5999989e+2
-0.380, 1.7727880e-8, -8.0740907e-9, 1.6033322e+2
-0.381, 1.7756557e-8, -8.0715017e-9, 1.6066655e+2
-0.382, 1.7766640e-8, -8.0829254e-9, 1.6099988e+2
-0.383, 1.7801067e-8, -8.0785796e-9, 1.6133321e+2
-0.384, 1.7826423e-8, -8.1022247e-9, 1.6166653e+2
-0.385, 1.7869286e-8, -8.1029112e-9, 1.6199986e+2
-0.386, 1.7871523e-8, -8.1064577e-9, 1.6233319e+2
-0.387, 1.7903476e-8, -8.1141271e-9, 1.6266652e+2
-0.388, 1.7942424e-8, -8.1232336e-9, 1.6299985e+2
-0.389, 1.7950205e-8, -8.1262366e-9, 1.6333318e+2
-0.390, 1.7971518e-8, -8.1429636e-9, 1.6366650e+2
-0.391, 1.8030136e-8, -8.1449292e-9, 1.6399983e+2
-0.392, 1.8011841e-8, -8.1547382e-9, 1.6433316e+2
-0.393, 1.8057806e-8, -8.1609217e-9, 1.6466649e+2
-0.394, 1.8064339e-8, -8.1725355e-9, 1.6499982e+2
-0.395, 1.8104329e-8, -8.1731910e-9, 1.6533315e+2
-0.396, 1.8129413e-8, -8.1879374e-9, 1.6566647e+2
-0.397, 1.8161012e-8, -8.1928100e-9, 1.6599980e+2
-0.398, 1.8174976e-8, -8.2012610e-9, 1.6633313e+2
-0.399, 1.8211370e-8, -8.2062135e-9, 1.6666646e+2
-0.400, 1.8214422e-8, -8.2224139e-9, 1.6699979e+2
-0.401, 1.8271153e-8, -8.2285005e-9, 1.6733311e+2
-0.402, 1.8279811e-8, -8.2465217e-9, 1.6766644e+2
-0.403, 1.8311637e-8, -8.2421447e-9, 1.6799977e+2
-0.404, 1.8330839e-8, -8.2546858e-9, 1.6833310e+2
-0.405, 1.8358735e-8, -8.2530720e-9, 1.6866643e+2
-0.406, 1.8364565e-8, -8.2675307e-9, 1.6899976e+2
-0.407, 1.8411759e-8, -8.2704386e-9, 1.6933308e+2
-0.408, 1.8407350e-8, -8.2827718e-9, 1.6966641e+2
-0.409, 1.8468842e-8, -8.2861753e-9, 1.6999974e+2
-0.410, 1.8475648e-8, -8.2929006e-9, 1.7033307e+2
-0.411, 1.8505732e-8, -8.3007770e-9, 1.7066640e+2
-0.412, 1.8527972e-8, -8.3126634e-9, 1.7099973e+2
-0.413, 1.8538611e-8, -8.3144691e-9, 1.7133305e+2
-0.414, 1.8559620e-8, -8.3212592e-9, 1.7166638e+2
-0.415, 1.8591381e-8, -8.3279525e-9, 1.7199971e+2
-0.416, 1.8604322e-8, -8.3419476e-9, 1.7233304e+2
-0.417, 1.8658801e-8, -8.3417246e-9, 1.7266637e+2
-0.418, 1.8646531e-8, -8.3484499e-9, 1.7299969e+2
-0.419, 1.8687988e-8, -8.3549843e-9, 1.7333302e+2
-0.420, 1.8710292e-8, -8.3656406e-9, 1.7366635e+2
-0.421, 1.8722337e-8, -8.3630685e-9, 1.7399968e+2
-0.422, 1.8736461e-8, -8.3737888e-9, 1.7433301e+2
-0.423, 1.8801277e-8, -8.3766647e-9, 1.7466634e+2
-0.424, 1.8790141e-8, -8.3895415e-9, 1.7499966e+2
-0.425, 1.8834028e-8, -8.3891578e-9, 1.7533299e+2
-0.426, 1.8843677e-8, -8.3991267e-9, 1.7566632e+2
-0.427, 1.8889338e-8, -8.3938065e-9, 1.7599965e+2
-0.428, 1.8909020e-8, -8.4112690e-9, 1.7633298e+2
-0.429, 1.8942218e-8, -8.4087768e-9, 1.7666631e+2
-0.430, 1.8963899e-8, -8.4233633e-9, 1.7699963e+2
-0.431, 1.9008935e-8, -8.4228837e-9, 1.7733296e+2
-0.432, 1.9000325e-8, -8.4382688e-9, 1.7766629e+2
-0.433, 1.9050059e-8, -8.4389242e-9, 1.7799962e+2
-0.434, 1.9071802e-8, -8.4482226e-9, 1.7833295e+2
-0.435, 1.9093706e-8, -8.4493719e-9, 1.7866628e+2
-0.436, 1.9128663e-8, -8.4530631e-9, 1.7899960e+2
-0.437, 1.9154783e-8, -8.4653484e-9, 1.7933293e+2
-0.438, 1.9190203e-8, -8.4740082e-9, 1.7966626e+2
-0.439, 1.9235127e-8, -8.4724894e-9, 1.7999959e+2
-0.440, 1.9243435e-8, -8.4798710e-9, 1.8033292e+2
-0.441, 1.9294879e-8, -8.4813250e-9, 1.8066624e+2
-0.442, 1.9317740e-8, -8.4981320e-9, 1.8099957e+2
-0.443, 1.9363959e-8, -8.4991703e-9, 1.8133290e+2
-0.444, 1.9375767e-8, -8.5062482e-9, 1.8166623e+2
-0.445, 1.9421922e-8, -8.5106251e-9, 1.8199956e+2
-0.446, 1.9476833e-8, -8.4990264e-9, 1.8233289e+2
-0.447, 1.9483286e-8, -8.4951441e-9, 1.8266621e+2
-0.448, 1.9508818e-8, -8.4518161e-9, 1.8299954e+2
-0.449, 1.9578584e-8, -8.4921883e-9, 1.8333287e+2
-0.450, 1.9560101e-8, -8.4794554e-9, 1.8366620e+2
-0.451, 1.9730376e-8, -8.5223837e-9, 1.8399953e+2
-0.452, 1.9628926e-8, -8.6896232e-9, 1.8433286e+2
-0.453, 1.9664361e-8, -8.5300842e-9, 1.8466618e+2
-0.454, 1.9665640e-8, -8.6269640e-9, 1.8499951e+2
-0.455, 1.9768734e-8, -8.6553058e-9, 1.8533284e+2
-0.456, 1.9795031e-8, -8.6405922e-9, 1.8566617e+2
-0.457, 1.9827096e-8, -8.6043901e-9, 1.8599950e+2
-0.458, 1.9881590e-8, -8.6225871e-9, 1.8633282e+2
-0.459, 1.9926436e-8, -8.6168193e-9, 1.8666615e+2
-0.460, 1.9943450e-8, -8.6271879e-9, 1.8699948e+2
-0.461, 1.9990308e-8, -8.6236733e-9, 1.8733281e+2
-0.462, 2.0027613e-8, -8.6465191e-9, 1.8766614e+2
-0.463, 2.0087541e-8, -8.6393293e-9, 1.8799947e+2
-0.464, 2.0097094e-8, -8.6463592e-9, 1.8833279e+2
-0.465, 2.0169866e-8, -8.6614094e-9, 1.8866612e+2
-0.466, 2.0186032e-8, -8.6632781e-9, 1.8899945e+2
-0.467, 2.0239842e-8, -8.6635019e-9, 1.8933278e+2
-0.468, 2.0293554e-8, -8.6784073e-9, 1.8966611e+2
-0.469, 2.0312870e-8, -8.6766345e-9, 1.8999944e+2
-0.470, 2.0362444e-8, -8.6988416e-9, 1.9033276e+2
-0.471, 2.0416891e-8, -8.6976106e-9, 1.9066609e+2
-0.472, 2.0457980e-8, -8.7073726e-9, 1.9099942e+2
-0.473, 2.0508242e-8, -8.7133154e-9, 1.9133275e+2
-0.474, 2.0539813e-8, -8.7281098e-9, 1.9166608e+2
-0.475, 2.0602167e-8, -8.7276462e-9, 1.9199940e+2
-0.476, 2.0631962e-8, -8.7437346e-9, 1.9233273e+2
-0.477, 2.0679765e-8, -8.7412904e-9, 1.9266606e+2
-0.478, 2.0748653e-8, -8.7568193e-9, 1.9299939e+2
-0.479, 2.0804984e-8, -8.7627141e-9, 1.9333272e+2
-0.480, 2.0820385e-8, -8.7716927e-9, 1.9366605e+2
-0.481, 2.0911147e-8, -8.7785468e-9, 1.9399937e+2
-0.482, 2.0946855e-8, -8.7911198e-9, 1.9433270e+2
-0.483, 2.0998170e-8, -8.7949541e-9, 1.9466603e+2
-0.484, 2.1064359e-8, -8.8117460e-9, 1.9499936e+2
-0.485, 2.1118614e-8, -8.8151646e-9, 1.9533269e+2
-0.486, 2.1172168e-8, -8.8359178e-9, 1.9566602e+2
-0.487, 2.1246873e-8, -8.8403276e-9, 1.9599934e+2
-0.488, 2.1286686e-8, -8.8600416e-9, 1.9633267e+2
-0.489, 2.1354824e-8, -8.8585876e-9, 1.9666600e+2
-0.490, 2.1412578e-8, -8.8792769e-9, 1.9699933e+2
-0.491, 2.1482107e-8, -8.8828394e-9, 1.9733266e+2
-0.492, 2.1531058e-8, -8.9071559e-9, 1.9766599e+2
-0.493, 2.1590473e-8, -8.9092485e-9, 1.9799931e+2
-0.494, 2.1664412e-8, -8.9292351e-9, 1.9833264e+2
-0.495, 2.1731926e-8, -8.9417602e-9, 1.9866597e+2
-0.496, 2.1776884e-8, -8.9604368e-9, 1.9899930e+2
-0.497, 2.1868541e-8, -8.9598133e-9, 1.9933263e+2
-0.498, 2.1909901e-8, -8.9898009e-9, 1.9966595e+2
-0.499, 2.1832307e-8, -8.9884109e-9, 1.9999928e+2
-0.500, 1.9810528e-8, -8.9813970e-9, 2.0033261e+2
-0.499, 1.8829315e-8, -8.9655812e-9, 2.0066594e+2
-0.498, 1.8021412e-8, -8.9626413e-9, 2.0099927e+2
-0.497, 1.7362201e-8, -8.9450349e-9, 2.0133260e+2
-0.496, 1.6762915e-8, -8.9451149e-9, 2.0166592e+2
-0.495, 1.6232631e-8, -8.9270298e-9, 2.0199925e+2
-0.494, 1.5742543e-8, -8.9173966e-9, 2.0233258e+2
-0.493, 1.5322273e-8, -8.9068202e-9, 2.0266591e+2
-0.492, 1.4891281e-8, -8.8918819e-9, 2.0299924e+2
-0.491, 1.4507932e-8, -8.8862908e-9, 2.0333257e+2
-0.490, 1.4156869e-8, -8.8678540e-9, 2.0366589e+2
-0.489, 1.3789895e-8, -8.8609049e-9, 2.0399922e+2
-0.488, 1.3465945e-8, -8.8556167e-9, 2.0433255e+2
-0.487, 1.3149982e-8, -8.8458387e-9, 2.0466588e+2
-0.486, 1.2833732e-8, -8.8412220e-9, 2.0499921e+2
-0.485, 1.2550043e-8, -8.8324352e-9, 2.0533253e+2
-0.484, 1.2286658e-8, -8.8198302e-9, 2.0566586e+2
-0.483, 1.2039314e-8, -8.8100363e-9, 2.0599919e+2
-0.482, 1.1747524e-8, -8.7961212e-9, 2.0633252e+2
-0.481, 1.1519031e-8, -8.7901615e-9, 2.0666585e+2
-0.480, 1.1289197e-8, -8.7808951e-9, 2.0699918e+2
-0.479, 1.1034632e-8, -8.7707823e-9, 2.0733250e+2
-0.478, 1.0827468e-8, -8.7652703e-9, 2.0766583e+2
-0.477, 1.0618898e-8, -8.7590397e-9, 2.0799916e+2
-0.476, 1.0394271e-8, -8.7560519e-9, 2.0833249e+2
-0.475, 1.0197700e-8, -8.7464826e-9, 2.0866582e+2
-0.474, 1.0016225e-8, -8.7398684e-9, 2.0899915e+2
-0.473, 9.8361577e-9, -8.7303302e-9, 2.0933247e+2
-0.472, 9.6391544e-9, -8.7283336e-9, 2.0966580e+2
-0.471, 9.4506500e-9, -8.7170386e-9, 2.0999913e+2
-0.470, 9.2948511e-9, -8.7011420e-9, 2.1033246e+2
-0.469, 9.1003240e-9, -8.6992094e-9, 2.1066579e+2
-0.468, 8.9422070e-9, -8.6886009e-9, 2.1099911e+2
-0.467, 8.8069525e-9, -8.6837115e-9, 2.1133244e+2
-0.466, 8.6162908e-9, -8.6824503e-9, 2.1166577e+2
-0.465, 8.4795824e-9, -8.6673042e-9, 2.1199910e+2
-0.464, 8.3345988e-9, -8.6685503e-9, 2.1233243e+2
-0.463, 8.1616394e-9, -8.6608019e-9, 2.1266576e+2
-0.462, 8.0540552e-9, -8.6524459e-9, 2.1299908e+2
-0.461, 7.8921349e-9, -8.6491712e-9, 2.1333241e+2
-0.460, 7.7457623e-9, -8.6428766e-9, 2.1366574e+2
-0.459, 7.6334485e-9, -8.6390584e-9, 2.1399907e+2
-0.458, 7.5065172e-9, -8.6339940e-9, 2.1433240e+2
-0.457, 7.3756072e-9, -8.6300638e-9, 2.1466573e+2
-0.456, 7.2522868e-9, -8.6223944e-9, 2.1499905e+2
-0.455, 7.1249566e-9, -8.6132408e-9, 2.1533238e+2
-0.454, 7.0000064e-9, -8.6084793e-9, 2.1566571e+2
-0.453, 6.8732819e-9, -8.6063228e-9, 2.1599904e+2
-0.452, 6.7736066e-9, -8.5935739e-9, 2.1633237e+2
-0.451, 6.6636896e-9, -8.5902832e-9, 2.1666570e+2
-0.450, 6.5476868e-9, -8.5830933e-9, 2.1699902e+2
-0.449, 6.4485062e-9, -8.5819112e-9, 2.1733235e+2
-0.448, 6.3476158e-9, -8.5726768e-9, 2.1766568e+2
-0.447, 6.2305259e-9, -8.5693701e-9, 2.1799901e+2
-0.446, 6.1449574e-9, -8.5635383e-9, 2.1833234e+2
-0.445, 6.0366867e-9, -8.5620853e-9, 2.1866566e+2
-0.444, 5.9406853e-9, -8.5606953e-9, 2.1899899e+2
-0.443, 5.8656440e-9, -8.5500709e-9, 2.1933232e+2
-0.442, 5.7688605e-9, -8.5471150e-9, 2.1966565e+2
-0.441, 5.6842184e-9, -8.5449106e-9, 2.1999898e+2
-0.440, 5.5878342e-9, -8.5347978e-9, 2.2033231e+2
-0.439, 5.4971681e-9, -8.5330081e-9, 2.2066563e+2
-0.438, 5.4198432e-9, -8.5198755e-9, 2.2099896e+2
-0.437, 5.2996061e-9, -8.5190290e-9, 2.2133229e+2
-0.436, 5.2292464e-9, -8.5131653e-9, 2.2166562e+2
-0.435, 5.1458193e-9, -8.5121270e-9, 2.2199895e+2
-0.434, 5.0528692e-9, -8.5034522e-9, 2.2233228e+2
-0.433, 4.9702242e-9, -8.5037390e-9, 2.2266560e+2
-0.432, 4.9172786e-9, -8.4930827e-9, 2.2299893e+2
-0.431, 4.8296167e-9, -8.4903027e-9, 2.2333226e+2
-0.430, 4.7610786e-9, -8.4839602e-9, 2.2366559e+2
-0.429, 4.6802393e-9, -8.4852232e-9, 2.2399892e+2
-0.428, 4.6104072e-9, -8.4802867e-9, 2.2433224e+2
-0.427, 4.5366284e-9, -8.4758129e-9, 2.2466557e+2
-0.426, 4.4603898e-9, -8.4742950e-9, 2.2499890e+2
-0.425, 4.4047925e-9, -8.4701410e-9, 2.2533223e+2
-0.424, 4.3626152e-9, -8.4681604e-9, 2.2566556e+2
-0.423, 4.2864885e-9, -8.4641822e-9, 2.2599889e+2
-0.422, 4.2179504e-9, -8.4602041e-9, 2.2633221e+2
-0.421, 4.1416315e-9, -8.4588461e-9, 2.2666554e+2
-0.420, 4.1027617e-9, -8.4581915e-9, 2.2699887e+2
-0.419, 4.0426111e-9, -8.4529663e-9, 2.2733220e+2
-0.418, 3.9611638e-9, -8.4537497e-9, 2.2766553e+2
-0.417, 3.9120849e-9, -8.4417842e-9, 2.2799886e+2
-0.416, 3.8597787e-9, -8.4411447e-9, 2.2833218e+2
-0.415, 3.7792427e-9, -8.4343226e-9, 2.2866551e+2
-0.414, 3.7374805e-9, -8.4304084e-9, 2.2899884e+2
-0.413, 3.6767709e-9, -8.4243217e-9, 2.2933217e+2
-0.412, 3.6197516e-9, -8.4190335e-9, 2.2966550e+2
-0.411, 3.5669183e-9, -8.4155980e-9, 2.2999883e+2
-0.410, 3.4946737e-9, -8.4096552e-9, 2.3033215e+2
-0.409, 3.4567940e-9, -8.4038563e-9, 2.3066548e+2
-0.408, 3.4046954e-9, -8.3985032e-9, 2.3099881e+2
-0.407, 3.3589553e-9, -8.3948777e-9, 2.3133214e+2
-0.406, 3.3187273e-9, -8.3906277e-9, 2.3166547e+2
-0.405, 3.2555252e-9, -8.3891418e-9, 2.3199879e+2
-0.404, 3.2026917e-9, -8.3802272e-9, 2.3233212e+2
-0.403, 3.1646523e-9, -8.3767286e-9, 2.3266545e+2
-0.402, 3.0877745e-9, -8.3728935e-9, 2.3299878e+2
-0.401, 3.0458531e-9, -8.3641387e-9, 2.3333211e+2
-0.400, 3.0031484e-9, -8.3567739e-9, 2.3366544e+2
-0.399, 2.9396108e-9, -8.3569658e-9, 2.3399876e+2
-0.398, 2.9081377e-9, -8.3511349e-9, 2.3433209e+2
-0.397, 2.8569656e-9, -8.3463094e-9, 2.3466542e+2
-0.396, 2.7930129e-9, -8.3412930e-9, 2.3499875e+2
-0.395, 2.7602136e-9, -8.3355900e-9, 2.3533208e+2
-0.394, 2.7005582e-9, -8.3295184e-9, 2.3566541e+2
-0.393, 2.6539875e-9, -8.3232079e-9, 2.3599873e+2
-0.392, 2.6056592e-9, -8.3145490e-9, 2.3633206e+2
-0.391, 2.5758797e-9, -8.3075991e-9, 2.3666539e+2
-0.390, 2.5230302e-9, -8.3001384e-9, 2.3699872e+2
-0.389, 2.4643976e-9, -8.2908400e-9, 2.3733205e+2
-0.388, 2.4247444e-9, -8.2854079e-9, 2.3766537e+2
-0.387, 2.3858902e-9, -8.2783140e-9, 2.3799870e+2
-0.386, 2.3274329e-9, -8.2786338e-9, 2.3833203e+2
-0.385, 2.2951931e-9, -8.2712690e-9, 2.3866536e+2
-0.384, 2.2543738e-9, -8.2623863e-9, 2.3899869e+2
-0.383, 2.1909639e-9, -8.2612681e-9, 2.3933202e+2
-0.382, 2.1805955e-9, -8.2600380e-9, 2.3966534e+2
-0.381, 2.1310691e-9, -8.2488700e-9, 2.3999867e+2
-0.380, 2.0823094e-9, -8.2426395e-9, 2.4033200e+2
-0.379, 2.0512196e-9, -8.2375751e-9, 2.4066533e+2
-0.378, 2.0033868e-9, -8.2425435e-9, 2.4099866e+2
-0.377, 1.9468309e-9, -8.2291391e-9, 2.4133199e+2
-0.376, 1.9124340e-9, -8.2239957e-9, 2.4166531e+2
-0.375, 1.8807851e-9, -8.2097920e-9, 2.4199864e+2
-0.374, 1.8666462e-9, -8.2068210e-9, 2.4233197e+2
-0.373, 1.8087961e-9, -8.2008942e-9, 2.4266530e+2
-0.372, 1.7857263e-9, -8.1971070e-9, 2.4299863e+2
-0.371, 1.7541254e-9, -8.1865146e-9, 2.4333195e+2
-0.370, 1.6983362e-9, -8.1807316e-9, 2.4366528e+2
-0.369, 1.6692276e-9, -8.1778557e-9, 2.4399861e+2
-0.368, 1.6377224e-9, -8.1681746e-9, 2.4433194e+2
-0.367, 1.5610045e-9, -8.1630143e-9, 2.4466527e+2
-0.366, 1.5538152e-9, -8.1639406e-9, 2.4499860e+2
-0.365, 1.5195301e-9, -8.1540996e-9, 2.4533192e+2
-0.364, 1.4845901e-9, -8.1499616e-9, 2.4566525e+2
-0.363, 1.4631660e-9, -8.1470857e-9, 2.4599858e+2
-0.362, 1.4250786e-9, -8.1435552e-9, 2.4633191e+2
-0.361, 1.3920396e-9, -8.1355829e-9, 2.4666524e+2
-0.360, 1.3726126e-9, -8.1313649e-9, 2.4699857e+2
-0.359, 1.3219840e-9, -8.1291764e-9, 2.4733189e+2
-0.358, 1.3041064e-9, -8.1174178e-9, 2.4766522e+2
-0.357, 1.2675049e-9, -8.1201819e-9, 2.4799855e+2
-0.356, 1.2315103e-9, -8.1119218e-9, 2.4833188e+2
-0.355, 1.1957875e-9, -8.1070173e-9, 2.4866521e+2
-0.354, 1.1570931e-9, -8.1044451e-9, 2.4899854e+2
-0.353, 1.1303647e-9, -8.0951148e-9, 2.4933186e+2
-0.352, 1.1051382e-9, -8.0907698e-9, 2.4966519e+2
-0.351, 1.0413930e-9, -8.0864240e-9, 2.4999852e+2
-0.350, 1.0445244e-9, -8.0835161e-9, 2.5033185e+2
-0.349, 1.0125398e-9, -8.0749532e-9, 2.5066518e+2
-0.348, 9.7127328e-10, -8.0689455e-9, 2.5099850e+2
-0.347, 9.4355446e-10, -8.0670288e-9, 2.5133183e+2
-0.346, 9.1764107e-10, -8.0664693e-9, 2.5166516e+2
-0.345, 8.8463409e-10, -8.0573468e-9, 2.5199849e+2
-0.344, 8.4640295e-10, -8.0480644e-9, 2.5233182e+2
-0.343, 8.0336288e-10, -8.0432718e-9, 2.5266515e+2
-0.342, 7.8816947e-10, -8.0292288e-9, 2.5299847e+2
-0.341, 7.4072004e-10, -8.0272962e-9, 2.5333180e+2
-0.340, 7.1589296e-10, -8.0146423e-9, 2.5366513e+2
-0.339, 6.9228007e-10, -8.0037941e-9, 2.5399846e+2
-0.338, 6.2719285e-10, -7.9981071e-9, 2.5433179e+2
-0.337, 6.1821415e-10, -7.9874196e-9, 2.5466512e+2
-0.336, 5.7681970e-10, -7.9867801e-9, 2.5499844e+2
-0.335, 5.3004123e-10, -7.9730889e-9, 2.5533177e+2
-0.334, 5.0890470e-10, -7.9705957e-9, 2.5566510e+2
-0.333, 4.7703208e-10, -7.9609146e-9, 2.5599843e+2
-0.332, 4.3180332e-10, -7.9569844e-9, 2.5633176e+2
-0.331, 4.1128986e-10, -7.9433731e-9, 2.5666510e+2
-0.330, 3.7344208e-10, -7.9418703e-9, 2.5699844e+2
-0.329, 3.4134581e-10, -7.9297289e-9, 2.5733179e+2
-0.328, 3.0167677e-10, -7.9223001e-9, 2.5766513e+2
-0.327, 2.7097047e-10, -7.9179863e-9, 2.5799847e+2
-0.326, 2.4368302e-10, -7.9054612e-9, 2.5833182e+2
-0.325, 2.0315126e-10, -7.8963067e-9, 2.5866516e+2
-0.324, 1.6881831e-10, -7.8829663e-9, 2.5899850e+2
-0.323, 1.4856044e-10, -7.8779498e-9, 2.5933185e+2
-0.322, 1.0981802e-10, -7.8695939e-9, 2.5966519e+2
-0.321, 8.1316384e-11, -7.8600406e-9, 2.5999854e+2
-0.320, 3.4553929e-11, -7.8545126e-9, 2.6033188e+2
-0.319, -1.9445792e-11, -7.8413640e-9, 2.6066522e+2
-0.318, -3.7594809e-11, -7.8274649e-9, 2.6099857e+2
-0.317, -6.6975134e-11, -7.8075741e-9, 2.6133191e+2
-0.316, -1.1952100e-10, -7.8041875e-9, 2.6166525e+2
-0.315, -1.4525875e-10, -7.7921571e-9, 2.6199860e+2
-0.314, -1.7936803e-10, -7.7757338e-9, 2.6233194e+2
-0.313, -2.1563411e-10, -7.7737203e-9, 2.6266528e+2
-0.312, -2.7187050e-10, -7.7616749e-9, 2.6299863e+2
-0.311, -2.9832717e-10, -7.7511944e-9, 2.6333197e+2
-0.310, -3.3170156e-10, -7.7425506e-9, 2.6366531e+2
-0.309, -3.7359127e-10, -7.7199447e-9, 2.6399866e+2
-0.308, -4.3570694e-10, -7.7059976e-9, 2.6433200e+2
-0.307, -4.6422452e-10, -7.7012530e-9, 2.6466534e+2
-0.306, -5.1188165e-10, -7.6851805e-9, 2.6499869e+2
-0.305, -5.3750759e-10, -7.6743802e-9, 2.6533203e+2
-0.304, -5.7628191e-10, -7.6625417e-9, 2.6566537e+2
-0.303, -6.4502775e-10, -7.6453999e-9, 2.6599872e+2
-0.302, -6.4772770e-10, -7.6288966e-9, 2.6633206e+2
-0.301, -7.1877404e-10, -7.6061779e-9, 2.6666541e+2
-0.300, -7.6778917e-10, -7.5870066e-9, 2.6699875e+2
-0.299, -7.8646539e-10, -7.5775963e-9, 2.6733209e+2
-0.298, -8.5732010e-10, -7.5592563e-9, 2.6766544e+2
-0.297, -8.9486429e-10, -7.5453084e-9, 2.6799878e+2
-0.296, -9.5392849e-10, -7.5198736e-9, 2.6833212e+2
-0.295, -9.9538688e-10, -7.4987216e-9, 2.6866547e+2
-0.294, -1.0517510e-9, -7.4745978e-9, 2.6899881e+2
-0.293, -1.1069490e-9, -7.4524387e-9, 2.6933215e+2
-0.292, -1.1575617e-9, -7.4290649e-9, 2.6966550e+2
-0.291, -1.1980614e-9, -7.3937256e-9, 2.6999884e+2
-0.290, -1.2860107e-9, -7.3836284e-9, 2.7033218e+2
-0.289, -1.3378377e-9, -7.3475706e-9, 2.7066553e+2
-0.288, -1.3947770e-9, -7.3231590e-9, 2.7099887e+2
-0.287, -1.5003321e-9, -7.2905992e-9, 2.7133221e+2
-0.286, -1.5465993e-9, -7.2642226e-9, 2.7166556e+2
-0.285, -1.6198504e-9, -7.2273170e-9, 2.7199890e+2
-0.284, -1.7097167e-9, -7.1962432e-9, 2.7233224e+2
-0.283, -1.7545143e-9, -7.1621979e-9, 2.7266559e+2
-0.282, -1.8494610e-9, -7.1257240e-9, 2.7299893e+2
-0.281, -1.9394713e-9, -7.0861668e-9, 2.7333228e+2
-0.280, -2.0221962e-9, -7.0505397e-9, 2.7366562e+2
-0.279, -2.1146986e-9, -7.0019559e-9, 2.7399896e+2
-0.278, -2.2095497e-9, -6.9708346e-9, 2.7433231e+2
-0.277, -2.3093054e-9, -6.9150454e-9, 2.7466565e+2
-0.276, -2.4053226e-9, -6.8626433e-9, 2.7499899e+2
-0.275, -2.4968985e-9, -6.8119346e-9, 2.7533234e+2
-0.274, -2.6218328e-9, -6.7659389e-9, 2.7566568e+2
-0.273, -2.7008513e-9, -6.7068111e-9, 2.7599902e+2
-0.272, -2.8274632e-9, -6.6697461e-9, 2.7633237e+2
-0.271, -2.9643314e-9, -6.6013039e-9, 2.7666571e+2
-0.270, -3.0625216e-9, -6.5444286e-9, 2.7699905e+2
-0.269, -3.1869605e-9, -6.4797883e-9, 2.7733240e+2
-0.268, -3.3200109e-9, -6.4227210e-9, 2.7766574e+2
-0.267, -3.4138552e-9, -6.3526815e-9, 2.7799908e+2
-0.266, -3.5481196e-9, -6.2870669e-9, 2.7833243e+2
-0.265, -3.7007248e-9, -6.2148864e-9, 2.7866577e+2
-0.264, -3.8209458e-9, -6.1500711e-9, 2.7899911e+2
-0.263, -3.9751646e-9, -6.0799832e-9, 2.7933246e+2
-0.262, -4.0926058e-9, -6.0134102e-9, 2.7966580e+2
-0.261, -4.2415844e-9, -5.9250294e-9, 2.7999915e+2
-0.260, -4.3730850e-9, -5.8587597e-9, 2.8033249e+2
-0.259, -4.4937698e-9, -5.7812590e-9, 2.8066583e+2
-0.258, -4.6753397e-9, -5.6933738e-9, 2.8099918e+2
-0.257, -4.7805910e-9, -5.6117186e-9, 2.8133252e+2
-0.256, -4.9263904e-9, -5.5235780e-9, 2.8166586e+2
-0.255, -5.0869358e-9, -5.4329607e-9, 2.8199921e+2
-0.254, -5.2259450e-9, -5.3596301e-9, 2.8233255e+2
-0.253, -5.3517901e-9, -5.2820974e-9, 2.8266589e+2
-0.252, -5.5133738e-9, -5.2090061e-9, 2.8299924e+2
-0.251, -5.6243765e-9, -5.1212643e-9, 2.8333258e+2
-0.250, -5.7639289e-9, -5.0438755e-9, 2.8366592e+2
-0.249, -5.8894707e-9, -4.9553668e-9, 2.8399927e+2
-0.248, -6.0257159e-9, -4.8894329e-9, 2.8433261e+2
-0.247, -6.1553789e-9, -4.8137214e-9, 2.8466595e+2
-0.246, -6.2739551e-9, -4.7421640e-9, 2.8499930e+2
-0.245, -6.4037775e-9, -4.6570103e-9, 2.8533264e+2
-0.244, -6.5159629e-9, -4.5937925e-9, 2.8566599e+2
-0.243, -6.6076673e-9, -4.5197583e-9, 2.8599933e+2
-0.242, -6.7572046e-9, -4.4488879e-9, 2.8633267e+2
-0.241, -6.8326282e-9, -4.3727768e-9, 2.8666602e+2
-0.240, -6.9446537e-9, -4.3118278e-9, 2.8699936e+2
-0.239, -7.0556889e-9, -4.2432577e-9, 2.8733270e+2
-0.238, -7.1350108e-9, -4.1780264e-9, 2.8766605e+2
-0.237, -7.2250685e-9, -4.1166937e-9, 2.8799939e+2
-0.236, -7.3477984e-9, -4.0596104e-9, 2.8833273e+2
-0.235, -7.4086524e-9, -3.9977985e-9, 2.8866608e+2
-0.234, -7.4935018e-9, -3.9403960e-9, 2.8899942e+2
-0.233, -7.5582216e-9, -3.8824659e-9, 2.8933276e+2
-0.232, -7.6362809e-9, -3.8409440e-9, 2.8966611e+2
-0.231, -7.7176807e-9, -3.7820871e-9, 2.8999945e+2
-0.230, -7.7811535e-9, -3.7413797e-9, 2.9033279e+2
-0.229, -7.8514182e-9, -3.6853192e-9, 2.9066614e+2
-0.228, -7.9014875e-9, -3.6509702e-9, 2.9099948e+2
-0.227, -7.9389038e-9, -3.5955965e-9, 2.9133282e+2
-0.226, -8.0077136e-9, -3.5557679e-9, 2.9166617e+2
-0.225, -8.0477820e-9, -3.5137824e-9, 2.9199951e+2
-0.224, -8.1041946e-9, -3.4768131e-9, 2.9233286e+2
-0.223, -8.1544229e-9, -3.4452441e-9, 2.9266620e+2
-0.222, -8.1894758e-9, -3.4000474e-9, 2.9299954e+2
-0.221, -8.2133758e-9, -3.3653467e-9, 2.9333289e+2
-0.220, -8.2821536e-9, -3.3338736e-9, 2.9366623e+2
-0.219, -8.2825204e-9, -3.2943483e-9, 2.9399957e+2
-0.218, -8.3292200e-9, -3.2795224e-9, 2.9433292e+2
-0.217, -8.3227016e-9, -3.1934106e-9, 2.9466626e+2
-0.216, -8.4076461e-9, -3.1420626e-9, 2.9499960e+2
-0.215, -8.4423473e-9, -3.2063192e-9, 2.9533295e+2
-0.214, -8.3351148e-9, -3.0930316e-9, 2.9566629e+2
-0.213, -8.4970502e-9, -3.2263217e-9, 2.9599963e+2
-0.212, -8.6275760e-9, -3.1474787e-9, 2.9633298e+2
-0.211, -8.5641503e-9, -3.1381964e-9, 2.9666632e+2
-0.210, -8.5911180e-9, -3.0906513e-9, 2.9699966e+2
-0.209, -8.5887217e-9, -3.0778062e-9, 2.9733301e+2
-0.208, -8.6069987e-9, -3.0578680e-9, 2.9766635e+2
-0.207, -8.6330711e-9, -3.0288712e-9, 2.9799969e+2
-0.206, -8.6355163e-9, -3.0113771e-9, 2.9833304e+2
-0.205, -8.6221918e-9, -2.9867258e-9, 2.9866638e+2
-0.204, -8.6832213e-9, -2.9746157e-9, 2.9899973e+2
-0.203, -8.6793550e-9, -2.9568341e-9, 2.9933307e+2
-0.202, -8.7173309e-9, -2.9448042e-9, 2.9966641e+2
-0.201, -8.7285610e-9, -2.9235876e-9, 2.9999976e+2
-0.200, -8.7467589e-9, -2.9197373e-9, 3.0033310e+2
-0.199, -8.7565688e-9, -2.8982974e-9, 3.0066644e+2
-0.198, -8.7837755e-9, -2.8847176e-9, 3.0099979e+2
-0.197, -8.7954071e-9, -2.8783271e-9, 3.0133313e+2
-0.196, -8.8037941e-9, -2.8692844e-9, 3.0166647e+2
-0.195, -8.7959657e-9, -2.8623026e-9, 3.0199982e+2
-0.194, -8.8490548e-9, -2.8317242e-9, 3.0233316e+2
-0.193, -8.8337817e-9, -2.8362295e-9, 3.0266650e+2
-0.192, -8.8410985e-9, -2.8207008e-9, 3.0299985e+2
-0.191, -8.8806882e-9, -2.8108593e-9, 3.0333319e+2
-0.190, -8.8848893e-9, -2.7963047e-9, 3.0366653e+2
-0.189, -8.8936281e-9, -2.7850577e-9, 3.0399988e+2
-0.188, -8.9073033e-9, -2.7817986e-9, 3.0433322e+2
-0.187, -8.9202130e-9, -2.7722924e-9, 3.0466656e+2
-0.186, -8.9382013e-9, -2.7657741e-9, 3.0499991e+2
-0.185, -8.9451193e-9, -2.7584091e-9, 3.0533325e+2
-0.184, -8.9496730e-9, -2.7470342e-9, 3.0566660e+2
-0.183, -8.9407584e-9, -2.7379117e-9, 3.0599994e+2
-0.182, -8.9724876e-9, -2.7311697e-9, 3.0633328e+2
-0.181, -8.9727106e-9, -2.7239004e-9, 3.0666663e+2
-0.180, -8.9863539e-9, -2.7194911e-9, 3.0699997e+2
-0.179, -8.9918180e-9, -2.7143465e-9, 3.0733331e+2
-0.178, -9.0193124e-9, -2.6974598e-9, 3.0766666e+2
-0.177, -9.0004297e-9, -2.6949196e-9, 3.0800000e+2
-0.176, -9.0231156e-9, -2.6929385e-9, 3.0833334e+2
-0.175, -9.0295540e-9, -2.6822984e-9, 3.0866669e+2
-0.174, -9.0222052e-9, -2.6810520e-9, 3.0900003e+2
-0.173, -9.0340588e-9, -2.6692777e-9, 3.0933337e+2
-0.172, -9.0549568e-9, -2.6680635e-9, 3.0966672e+2
-0.171, -9.0374943e-9, -2.6580305e-9, 3.1000006e+2
-0.170, -9.0583754e-9, -2.6500264e-9, 3.1033340e+2
-0.169, -9.0508827e-9, -2.6410636e-9, 3.1066675e+2
-0.168, -9.0678975e-9, -2.6358074e-9, 3.1100009e+2
-0.167, -9.0594456e-9, -2.6298803e-9, 3.1133344e+2
-0.166, -9.0828509e-9, -2.6233462e-9, 3.1166678e+2
-0.165, -9.0901837e-9, -2.6177704e-9, 3.1200012e+2
-0.164, -9.0885068e-9, -2.6090154e-9, 3.1233347e+2
-0.163, -9.0821155e-9, -2.6041105e-9, 3.1266681e+2
-0.162, -9.1256354e-9, -2.6016662e-9, 3.1300015e+2
-0.161, -9.0984118e-9, -2.5909144e-9, 3.1333350e+2
-0.160, -9.0863974e-9, -2.5883740e-9, 3.1366684e+2
-0.159, -9.1403969e-9, -2.5810249e-9, 3.1400018e+2
-0.158, -9.1356203e-9, -2.5780693e-9, 3.1433353e+2
-0.157, -9.1296295e-9, -2.5722700e-9, 3.1466687e+2
-0.156, -9.1408445e-9, -2.5709761e-9, 3.1500021e+2
-0.155, -9.1379366e-9, -2.5616937e-9, 3.1533356e+2
-0.154, -9.1456531e-9, -2.5539453e-9, 3.1566690e+2
-0.153, -9.1431769e-9, -2.5519000e-9, 3.1600024e+2
-0.152, -9.1675245e-9, -2.5513729e-9, 3.1633359e+2
-0.151, -9.1553671e-9, -2.5375375e-9, 3.1666693e+2
-0.150, -9.1635783e-9, -2.5330960e-9, 3.1700027e+2
-0.149, -9.1808978e-9, -2.5255873e-9, 3.1733362e+2
-0.148, -9.1868397e-9, -2.5207465e-9, 3.1766696e+2
-0.147, -9.1705443e-9, -2.5185098e-9, 3.1800031e+2
-0.146, -9.1989660e-9, -2.5116560e-9, 3.1833365e+2
-0.145, -9.1900034e-9, -2.5070870e-9, 3.1866699e+2
-0.144, -9.1994945e-9, -2.5046265e-9, 3.1900034e+2
-0.143, -9.2013632e-9, -2.4937308e-9, 3.1933368e+2
-0.142, -9.2093506e-9, -2.4966385e-9, 3.1966702e+2
-0.141, -9.2172749e-9, -2.4875477e-9, 3.2000037e+2
-0.140, -9.2293044e-9, -2.4852953e-9, 3.2033371e+2
-0.139, -9.2201828e-9, -2.4808857e-9, 3.2066705e+2
-0.138, -9.2151824e-9, -2.4780260e-9, 3.2100040e+2
-0.137, -9.2312709e-9, -2.4723865e-9, 3.2133374e+2
-0.136, -9.2504093e-9, -2.4711082e-9, 3.2166708e+2
-0.135, -9.2598045e-9, -2.4649576e-9, 3.2200043e+2
-0.134, -9.2464312e-9, -2.4605959e-9, 3.2233377e+2
-0.133, -9.2723607e-9, -2.4537581e-9, 3.2266711e+2
-0.132, -9.2754293e-9, -2.4442044e-9, 3.2300046e+2
-0.131, -9.2565129e-9, -2.4391078e-9, 3.2333380e+2
-0.130, -9.2884491e-9, -2.4331648e-9, 3.2366714e+2
-0.129, -9.2770103e-9, -2.4346984e-9, 3.2400049e+2
-0.128, -9.2842161e-9, -2.4227003e-9, 3.2433383e+2
-0.127, -9.2993604e-9, -2.4204316e-9, 3.2466718e+2
-0.126, -9.2991055e-9, -2.4220932e-9, 3.2500052e+2
-0.125, -9.3088675e-9, -2.4126832e-9, 3.2533386e+2
-0.124, -9.3234522e-9, -2.4121081e-9, 3.2566721e+2
-0.123, -9.3183088e-9, -2.4101430e-9, 3.2600055e+2
-0.122, -9.3412025e-9, -2.4030815e-9, 3.2633389e+2
-0.121, -9.3401971e-9, -2.3954607e-9, 3.2666724e+2
-0.120, -9.3619716e-9, -2.3966751e-9, 3.2700058e+2
-0.119, -9.3513153e-9, -2.3900448e-9, 3.2733392e+2
-0.118, -9.3613330e-9, -2.3872810e-9, 3.2766727e+2
-0.117, -9.3797539e-9, -2.3829194e-9, 3.2800061e+2
-0.116, -9.3846264e-9, -2.3843254e-9, 3.2833395e+2
-0.115, -9.3802806e-9, -2.3735414e-9, 3.2866730e+2
-0.114, -9.4134629e-9, -2.3769124e-9, 3.2900064e+2
-0.113, -9.3998835e-9, -2.3679658e-9, 3.2933398e+2
-0.112, -9.4324264e-9, -2.3691320e-9, 3.2966733e+2
-0.111, -9.4402397e-9, -2.3624218e-9, 3.3000067e+2
-0.110, -9.4367083e-9, -2.3609521e-9, 3.3033401e+2
-0.109, -9.4434034e-9, -2.3555522e-9, 3.3066736e+2
-0.108, -9.4839194e-9, -2.3544497e-9, 3.3100070e+2
-0.107, -9.4760262e-9, -2.3485704e-9, 3.3133405e+2
-0.106, -9.4912842e-9, -2.3382658e-9, 3.3166739e+2
-0.105, -9.4866506e-9, -2.3413493e-9, 3.3200073e+2
-0.104, -9.5126609e-9, -2.3337765e-9, 3.3233408e+2
-0.103, -9.5531920e-9, -2.3322428e-9, 3.3266742e+2
-0.102, -9.5560511e-9, -2.3293671e-9, 3.3300076e+2
-0.101, -9.5568824e-9, -2.3231683e-9, 3.3333411e+2
-0.100, -9.5718677e-9, -2.3187270e-9, 3.3366745e+2
-0.099, -9.5750954e-9, -2.3161069e-9, 3.3400079e+2
-0.098, -9.6133741e-9, -2.3149564e-9, 3.3433414e+2
-0.097, -9.6083088e-9, -2.3059299e-9, 3.3466748e+2
-0.096, -9.6412851e-9, -2.3086779e-9, 3.3500082e+2
-0.095, -9.6623101e-9, -2.3046198e-9, 3.3533417e+2
-0.094, -9.6717683e-9, -2.3074316e-9, 3.3566751e+2
-0.093, -9.6777102e-9, -2.3063613e-9, 3.3600085e+2
-0.092, -9.7209902e-9, -2.3007216e-9, 3.3633420e+2
-0.091, -9.7063397e-9, -2.2976543e-9, 3.3666754e+2
-0.090, -9.7456416e-9, -2.2954176e-9, 3.3700089e+2
-0.089, -9.7531343e-9, -2.2965199e-9, 3.3733423e+2
-0.088, -9.7701660e-9, -2.2918869e-9, 3.3766757e+2
-0.087, -9.7880593e-9, -2.2895703e-9, 3.3800092e+2
-0.086, -9.8156976e-9, -2.2873496e-9, 3.3833426e+2
-0.085, -9.8504778e-9, -2.2844260e-9, 3.3866760e+2
-0.084, -9.8725570e-9, -2.2812465e-9, 3.3900095e+2
-0.083, -9.8819823e-9, -2.2777478e-9, 3.3933429e+2
-0.082, -9.9318118e-9, -2.2732585e-9, 3.3966763e+2
-0.081, -9.9324682e-9, -2.2707662e-9, 3.4000098e+2
-0.080, -9.9663851e-9, -2.2710858e-9, 3.4033432e+2
-0.079, -9.9988009e-9, -2.2651585e-9, 3.4066766e+2
-0.078, -1.0009553e-8, -2.2676507e-9, 3.4100101e+2
-0.077, -1.0046298e-8, -2.2608451e-9, 3.4133435e+2
-0.076, -1.0084466e-8, -2.2645674e-9, 3.4166769e+2
-0.075, -1.0084002e-8, -2.2558924e-9, 3.4200104e+2
-0.074, -1.0128784e-8, -2.2539433e-9, 3.4233438e+2
-0.073, -1.0160034e-8, -2.2505882e-9, 3.4266772e+2
-0.072, -1.0183007e-8, -2.2526492e-9, 3.4300107e+2
-0.071, -1.0222133e-8, -2.2433828e-9, 3.4333441e+2
-0.070, -1.0242966e-8, -2.2398043e-9, 3.4366776e+2
-0.069, -1.0279951e-8, -2.2352828e-9, 3.4400110e+2
-0.068, -1.0303979e-8, -2.2368167e-9, 3.4433444e+2
-0.067, -1.0335709e-8, -2.2326307e-9, 3.4466779e+2
-0.066, -1.0385202e-8, -2.2282374e-9, 3.4500113e+2
-0.065, -1.0413034e-8, -2.2269753e-9, 3.4533447e+2
-0.064, -1.0446552e-8, -2.2242435e-9, 3.4566782e+2
-0.063, -1.0491190e-8, -2.2242912e-9, 3.4600116e+2
-0.062, -1.0519228e-8, -2.2193865e-9, 3.4633450e+2
-0.061, -1.0551691e-8, -2.2209521e-9, 3.4666785e+2
-0.060, -1.0602688e-8, -2.2147695e-9, 3.4700119e+2
-0.059, -1.0631621e-8, -2.2116862e-9, 3.4733453e+2
-0.058, -1.0672887e-8, -2.2113344e-9, 3.4766788e+2
-0.057, -1.0716263e-8, -2.2046245e-9, 3.4800122e+2
-0.056, -1.0762259e-8, -2.2037139e-9, 3.4833456e+2
-0.055, -1.0793062e-8, -2.1996560e-9, 3.4866791e+2
-0.054, -1.0842778e-8, -2.2035860e-9, 3.4900125e+2
-0.053, -1.0880322e-8, -2.1954063e-9, 3.4933459e+2
-0.052, -1.0931766e-8, -2.1934892e-9, 3.4966794e+2
-0.051, -1.0961674e-8, -2.1927222e-9, 3.5000128e+2
-0.050, -1.1021489e-8, -2.1914441e-9, 3.5033463e+2
-0.049, -1.1050422e-8, -2.1834241e-9, 3.5066797e+2
-0.048, -1.1093174e-8, -2.1886324e-9, 3.5100131e+2
-0.047, -1.1146025e-8, -2.1808200e-9, 3.5133466e+2
-0.046, -1.1194064e-8, -2.1879774e-9, 3.5166800e+2
-0.045, -1.1226224e-8, -2.1793183e-9, 3.5200134e+2
-0.044, -1.1295865e-8, -2.1803246e-9, 3.5233469e+2
-0.043, -1.1315803e-8, -2.1786151e-9, 3.5266803e+2
-0.042, -1.1361974e-8, -2.1751803e-9, 3.5300137e+2
-0.041, -1.1420464e-8, -2.1720330e-9, 3.5333472e+2
-0.040, -1.1459478e-8, -2.1512958e-9, 3.5366806e+2
-0.039, -1.1503077e-8, -2.1476692e-9, 3.5400140e+2
-0.038, -1.1551740e-8, -2.1415023e-9, 3.5433475e+2
-0.037, -1.1540062e-8, -2.1667608e-9, 3.5466809e+2
-0.036, -1.1661370e-8, -2.1008588e-9, 3.5500143e+2
-0.035, -1.1606380e-8, -2.0840998e-9, 3.5533478e+2
-0.034, -1.1795507e-8, -2.2063340e-9, 3.5566812e+2
-0.033, -1.1915424e-8, -2.2247866e-9, 3.5600146e+2
-0.032, -1.1824919e-8, -2.1507527e-9, 3.5633481e+2
-0.031, -1.1952617e-8, -2.1766182e-9, 3.5666815e+2
-0.030, -1.1992973e-8, -2.1438669e-9, 3.5700150e+2
-0.029, -1.1998533e-8, -2.1747488e-9, 3.5733484e+2
-0.028, -1.2084755e-8, -2.1459918e-9, 3.5766818e+2
-0.027, -1.2120974e-8, -2.1410871e-9, 3.5800153e+2
-0.026, -1.2169078e-8, -2.1392337e-9, 3.5833487e+2
-0.025, -1.2214563e-8, -2.1193434e-9, 3.5866821e+2
-0.024, -1.2262475e-8, -2.1274913e-9, 3.5900156e+2
-0.023, -1.2304111e-8, -2.1164197e-9, 3.5933490e+2
-0.022, -1.2344322e-8, -2.1151734e-9, 3.5966824e+2
-0.021, -1.2397268e-8, -2.1178894e-9, 3.6000159e+2
-0.020, -1.2462051e-8, -2.1118984e-9, 3.6033493e+2
-0.019, -1.2490888e-8, -2.1089108e-9, 3.6066827e+2
-0.018, -1.2562846e-8, -2.1101410e-9, 3.6100162e+2
-0.017, -1.2587034e-8, -2.1048530e-9, 3.6133496e+2
-0.016, -1.2634882e-8, -2.1052842e-9, 3.6166830e+2
-0.015, -1.2694873e-8, -2.1062907e-9, 3.6200165e+2
-0.014, -1.2728998e-8, -2.1059392e-9, 3.6233499e+2
-0.013, -1.2766431e-8, -2.1017055e-9, 3.6266833e+2
-0.012, -1.2828626e-8, -2.0982867e-9, 3.6300168e+2
-0.011, -1.2844811e-8, -2.0948199e-9, 3.6333502e+2
-0.010, -1.2890438e-8, -2.0965771e-9, 3.6366837e+2
-0.009, -1.2923461e-8, -2.0927748e-9, 3.6400171e+2
-0.008, -1.2974281e-8, -2.0937014e-9, 3.6433505e+2
-0.007, -1.3008759e-8, -2.0881097e-9, 3.6466840e+2
-0.006, -1.3055201e-8, -2.0846109e-9, 3.6500174e+2
-0.005, -1.3087425e-8, -2.0858570e-9, 3.6533508e+2
-0.004, -1.3121135e-8, -2.0836364e-9, 3.6566843e+2
-0.003, -1.3124714e-8, -2.0798181e-9, 3.6600177e+2
-0.002, -1.3197869e-8, -2.0825341e-9, 3.6633511e+2
-0.001, -1.3202725e-8, -2.0744180e-9, 3.6666846e+2
-0.000, -1.3230956e-8, -2.0757762e-9, 3.6700180e+2
0.001, -1.3266440e-8, -2.0789714e-9, 3.6733514e+2
0.002, -1.3295693e-8, -2.0734756e-9, 3.6766849e+2
0.003, -1.3315119e-8, -2.0720057e-9, 3.6800183e+2
0.004, -1.3358814e-8, -2.0715585e-9, 3.6833517e+2
0.005, -1.3365349e-8, -2.0655673e-9, 3.6866852e+2
0.006, -1.3396980e-8, -2.0647846e-9, 3.6900186e+2
0.007, -1.3417304e-8, -2.0608701e-9, 3.6933521e+2
0.008, -1.3441076e-8, -2.0627875e-9, 3.6966855e+2
0.009, -1.3441683e-8, -2.0543520e-9, 3.7000189e+2
0.010, -1.3477996e-8, -2.0492714e-9, 3.7033524e+2
0.011, -1.3484228e-8, -2.0467152e-9, 3.7066858e+2
0.012, -1.3504901e-8, -2.0508533e-9, 3.7100192e+2
0.013, -1.3528098e-8, -2.0463478e-9, 3.7133527e+2
0.014, -1.3575356e-8, -2.0403887e-9, 3.7166861e+2
0.015, -1.3573711e-8, -2.0395898e-9, 3.7200195e+2
0.016, -1.3592563e-8, -2.0364905e-9, 3.7233530e+2
0.017, -1.3617549e-8, -2.0356279e-9, 3.7266864e+2
0.018, -1.3636417e-8, -2.0335029e-9, 3.7300198e+2
0.019, -1.3649422e-8, -2.0280551e-9, 3.7333533e+2
0.020, -1.3683356e-8, -2.0322888e-9, 3.7366867e+2
0.021, -1.3689538e-8, -2.0294928e-9, 3.7400201e+2
0.022, -1.3721970e-8, -2.0270645e-9, 3.7433536e+2
0.023, -1.3736190e-8, -2.0233899e-9, 3.7466870e+2
0.024, -1.3764627e-8, -2.0142354e-9, 3.7500204e+2
0.025, -1.3788016e-8, -2.0188049e-9, 3.7533539e+2
0.026, -1.3807187e-8, -2.0172071e-9, 3.7566873e+2
0.027, -1.3841329e-8, -2.0125102e-9, 3.7600208e+2
0.028, -1.3868249e-8, -2.0091711e-9, 3.7633542e+2
0.029, -1.3863839e-8, -2.0069184e-9, 3.7666876e+2
0.030, -1.3928416e-8, -2.0048896e-9, 3.7700211e+2
0.031, -1.3935716e-8, -1.9970772e-9, 3.7733545e+2
0.032, -1.3959808e-8, -2.0029565e-9, 3.7766879e+2
0.033, -1.4002337e-8, -1.9946487e-9, 3.7800214e+2
0.034, -1.4029322e-8, -1.9991699e-9, 3.7833548e+2
0.035, -1.4054708e-8, -1.9935622e-9, 3.7866882e+2
0.036, -1.4097092e-8, -1.9947446e-9, 3.7900217e+2
0.037, -1.4104409e-8, -1.9869801e-9, 3.7933551e+2
0.038, -1.4159368e-8, -1.9909263e-9, 3.7966885e+2
0.039, -1.4182565e-8, -1.9834654e-9, 3.8000220e+2
0.040, -1.4228992e-8, -1.9847115e-9, 3.8033554e+2
0.041, -1.4253389e-8, -1.9768032e-9, 3.8066888e+2
0.042, -1.4289415e-8, -1.9815800e-9, 3.8100223e+2
0.043, -1.4342519e-8, -1.9799027e-9, 3.8133557e+2
0.044, -1.4382013e-8, -1.9758128e-9, 3.8166891e+2
0.045, -1.4394331e-8, -1.9790398e-9, 3.8200226e+2
0.046, -1.4471911e-8, -1.9730169e-9, 3.8233560e+2
0.047, -1.4497122e-8, -1.9690389e-9, 3.8266895e+2
0.048, -1.4533772e-8, -1.9663229e-9, 3.8300229e+2
0.049, -1.4584543e-8, -1.9634949e-9, 3.8333563e+2
0.050, -1.4616656e-8, -1.9663386e-9, 3.8366898e+2
0.051, -1.4659136e-8, -1.9637667e-9, 3.8400232e+2
0.052, -1.4726621e-8, -1.9631914e-9, 3.8433566e+2
0.053, -1.4749194e-8, -1.9551873e-9, 3.8466901e+2
0.054, -1.4814953e-8, -1.9556345e-9, 3.8500235e+2
0.055, -1.4861668e-8, -1.9552673e-9, 3.8533569e+2
0.056, -1.4917314e-8, -1.9525352e-9, 3.8566904e+2
0.057, -1.4961312e-8, -1.9412083e-9, 3.8600238e+2
0.058, -1.5031432e-8, -1.9439401e-9, 3.8633572e+2
0.059, -1.5070428e-8, -1.9425821e-9, 3.8666907e+2
0.060, -1.5140980e-8, -1.9424542e-9, 3.8700241e+2
0.061, -1.5172725e-8, -1.9339230e-9, 3.8733575e+2
0.062, -1.5272370e-8, -1.9300408e-9, 3.8766910e+2
0.063, -1.5314578e-8, -1.9233946e-9, 3.8800244e+2
0.064, -1.5383195e-8, -1.9252160e-9, 3.8833578e+2
0.065, -1.5445950e-8, -1.9232829e-9, 3.8866913e+2
0.066, -1.5513194e-8, -1.9271011e-9, 3.8900247e+2
0.067, -1.5557976e-8, -1.9244970e-9, 3.8933582e+2
0.068, -1.5654935e-8, -1.8995741e-9, 3.8966916e+2
0.069, -1.5683742e-8, -1.9101822e-9, 3.9000250e+2
0.070, -1.5716893e-8, -1.8814090e-9, 3.9033585e+2
0.071, -1.5832576e-8, -1.8673660e-9, 3.9066919e+2
0.072, -1.5860550e-8, -1.9004367e-9, 3.9100253e+2
0.073, -1.6072109e-8, -1.8308921e-9, 3.9133588e+2
0.074, -1.6166208e-8, -2.0440314e-9, 3.9166922e+2
0.075, -1.6182504e-8, -1.9153905e-9, 3.9200256e+2
0.076, -1.6266474e-8, -1.9029451e-9, 3.9233591e+2
0.077, -1.6340254e-8, -1.9036319e-9, 3.9266925e+2
0.078, -1.6455299e-8, -1.9011077e-9, 3.9300259e+2
0.079, -1.6513596e-8, -1.8904835e-9, 3.9333594e+2
0.080, -1.6597983e-8, -1.8936628e-9, 3.9366928e+2
0.081, -1.6713443e-8, -1.8826392e-9, 3.9400262e+2
0.082, -1.6792157e-8, -1.8761048e-9, 3.9433597e+2
0.083, -1.6876433e-8, -1.8714559e-9, 3.9466931e+2
0.084, -1.7013253e-8, -1.8754978e-9, 3.9500266e+2
0.085, -1.7062380e-8, -1.8775748e-9, 3.9533600e+2
0.086, -1.7209121e-8, -1.8809299e-9, 3.9566934e+2
0.087, -1.7307295e-8, -1.8758974e-9, 3.9600269e+2
0.088, -1.7405679e-8, -1.8741879e-9, 3.9633603e+2
0.089, -1.7520435e-8, -1.8756736e-9, 3.9666937e+2
0.090, -1.7616852e-8, -1.8722708e-9, 3.9700272e+2
0.091, -1.7737600e-8, -1.8641069e-9, 3.9733606e+2
0.092, -1.7842979e-8, -1.8170089e-9, 3.9766940e+2
0.093, -1.8013477e-8, -1.8887580e-9, 3.9800275e+2
0.094, -1.8121829e-8, -1.8660240e-9, 3.9833609e+2
0.095, -1.8199634e-8, -1.8583554e-9, 3.9866943e+2
0.096, -1.8337891e-8, -1.8488174e-9, 3.9900278e+2
0.097, -1.8472635e-8, -1.8457023e-9, 3.9933612e+2
0.098, -1.8562757e-8, -1.8437691e-9, 3.9966946e+2
0.099, -1.8541684e-8, -1.8354773e-9, 4.0000281e+2
