Dec. 15, 2005   01:05:06
Cyclic Voltammetry
File: d:\ida_biofilms\12_04_18_psoralenbiofilm\psoralen\psoralen_50um_pyo_transfer_gc.txt
Data Source:  Experiment
Instrument Model:  CHI760B
Header: 
Note: 

Init E (V) = 0.1
High E (V) = 0.1
Low E (V) = -0.5
Init P/N = N
Scan Rate (V/s) = 0.003
Segment = 2
Sample Interval (V) = 0.001
Quiet Time (sec) = 2
Sensitivity (A/V) = 1e-7
2nd E (V) = 0.1
Sens 2 (A/V) = 1e-7

Potential/V, i1/A, i2/A, Time/s

0.100, -9.1146497e-8, -7.5852022e-8, 3.3333334e-1
0.099, -8.4446064e-8, -7.0203221e-8, 6.6666669e-1
0.098, -7.8483652e-8, -6.5140426e-8, 1.0000000e+0
0.097, -7.3217237e-8, -6.0759739e-8, 1.3333334e+0
0.096, -6.8353430e-8, -5.6852507e-8, 1.6666667e+0
0.095, -6.4101826e-8, -5.3439262e-8, 2.0000000e+0
0.094, -6.0127810e-8, -5.0303687e-8, 2.3333333e+0
0.093, -5.6602257e-8, -4.7618876e-8, 2.6666665e+0
0.092, -5.3330481e-8, -4.5127539e-8, 2.9999998e+0
0.091, -5.0450122e-8, -4.2953651e-8, 3.3333330e+0
0.090, -4.7766992e-8, -4.0953346e-8, 3.6666663e+0
0.089, -4.5351385e-8, -3.9178385e-8, 3.9999995e+0
0.088, -4.3104087e-8, -3.7565663e-8, 4.3333330e+0
0.087, -4.1054811e-8, -3.6086579e-8, 4.6666665e+0
0.086, -3.9123044e-8, -3.4673800e-8, 5.0000000e+0
0.085, -3.7341533e-8, -3.3461841e-8, 5.3333335e+0
0.084, -3.5700371e-8, -3.2246849e-8, 5.6666670e+0
0.083, -3.4085815e-8, -3.1217340e-8, 6.0000005e+0
0.082, -3.2553530e-8, -3.0210597e-8, 6.3333340e+0
0.081, -3.1238045e-8, -2.9274789e-8, 6.6666675e+0
0.080, -2.9969133e-8, -2.8305188e-8, 7.0000010e+0
0.079, -2.8767079e-8, -2.7455490e-8, 7.3333344e+0
0.078, -2.7633646e-8, -2.6630717e-8, 7.6666679e+0
0.077, -2.6589996e-8, -2.6001654e-8, 8.0000010e+0
0.076, -2.5506649e-8, -2.5221533e-8, 8.3333340e+0
0.075, -2.4567644e-8, -2.4640318e-8, 8.6666670e+0
0.074, -2.3637106e-8, -2.4043604e-8, 9.0000000e+0
0.073, -2.2823917e-8, -2.3333460e-8, 9.3333330e+0
0.072, -2.1939151e-8, -2.2924629e-8, 9.6666660e+0
0.071, -2.1147688e-8, -2.2300837e-8, 9.9999990e+0
0.070, -2.0411184e-8, -2.1885933e-8, 1.0333332e+1
0.069, -1.9650475e-8, -2.1410719e-8, 1.0666665e+1
0.068, -1.9004634e-8, -2.0943574e-8, 1.0999998e+1
0.067, -1.8392344e-8, -2.0536659e-8, 1.1333331e+1
0.066, -1.7693784e-8, -2.0146279e-8, 1.1666664e+1
0.065, -1.7088603e-8, -1.9735131e-8, 1.1999997e+1
0.064, -1.6495244e-8, -1.9285080e-8, 1.2333330e+1
0.063, -1.5956285e-8, -1.8945185e-8, 1.2666663e+1
0.062, -1.5413415e-8, -1.8648587e-8, 1.2999996e+1
0.061, -1.4936843e-8, -1.8306775e-8, 1.3333329e+1
0.060, -1.4390694e-8, -1.7893548e-8, 1.3666662e+1
0.059, -1.3931297e-8, -1.7683222e-8, 1.3999995e+1
0.058, -1.3435234e-8, -1.7320641e-8, 1.4333328e+1
0.057, -1.2988618e-8, -1.7079319e-8, 1.4666661e+1
0.056, -1.2530340e-8, -1.6792944e-8, 1.4999994e+1
0.055, -1.2075575e-8, -1.6481168e-8, 1.5333327e+1
0.054, -1.1624007e-8, -1.6287856e-8, 1.5666660e+1
0.053, -1.1234187e-8, -1.5964416e-8, 1.5999993e+1
0.052, -1.0905236e-8, -1.5787959e-8, 1.6333326e+1
0.051, -1.0547687e-8, -1.5484650e-8, 1.6666660e+1
0.050, -1.0109779e-8, -1.5323129e-8, 1.6999994e+1
0.049, -9.7346557e-9, -1.5107291e-8, 1.7333328e+1
0.048, -9.4584269e-9, -1.4863813e-8, 1.7666662e+1
0.047, -9.1155767e-9, -1.4694305e-8, 1.7999996e+1
0.046, -8.7292706e-9, -1.4411765e-8, 1.8333330e+1
0.045, -8.4976151e-9, -1.4320940e-8, 1.8666664e+1
0.044, -8.1447800e-9, -1.4028016e-8, 1.8999998e+1
0.043, -7.7937017e-9, -1.3889581e-8, 1.9333332e+1
0.042, -7.5969542e-9, -1.3742120e-8, 1.9666666e+1
0.041, -7.2500304e-9, -1.3472201e-8, 2.0000000e+1
0.040, -7.0639068e-9, -1.3373868e-8, 2.0333334e+1
0.039, -6.7130688e-9, -1.3251171e-8, 2.0666668e+1
0.038, -6.5196759e-9, -1.2985486e-8, 2.1000002e+1
0.037, -6.2135710e-9, -1.2903847e-8, 2.1333336e+1
0.036, -5.9795986e-9, -1.2764136e-8, 2.1666670e+1
0.035, -5.7164700e-9, -1.2531440e-8, 2.2000004e+1
0.034, -5.5093383e-9, -1.2426556e-8, 2.2333338e+1
0.033, -5.2798392e-9, -1.2348114e-8, 2.2666672e+1
0.032, -5.1096123e-9, -1.2168300e-8, 2.3000006e+1
0.031, -4.7936819e-9, -1.1972592e-8, 2.3333340e+1
0.030, -4.6827267e-9, -1.1887438e-8, 2.3666674e+1
0.029, -4.4283852e-9, -1.1762663e-8, 2.4000008e+1
0.028, -4.2194159e-9, -1.1541473e-8, 2.4333342e+1
0.027, -4.0347303e-9, -1.1457916e-8, 2.4666676e+1
0.026, -3.7833443e-9, -1.1372124e-8, 2.5000010e+1
0.025, -3.6645607e-9, -1.1290486e-8, 2.5333344e+1
0.024, -3.4132543e-9, -1.1095096e-8, 2.5666677e+1
0.023, -3.2899174e-9, -1.0983982e-8, 2.6000011e+1
0.022, -3.1661018e-9, -1.0929663e-8, 2.6333345e+1
0.021, -2.8970619e-9, -1.0850180e-8, 2.6666679e+1
0.020, -2.7562310e-9, -1.0738026e-8, 2.7000013e+1
0.019, -2.6765097e-9, -1.0578584e-8, 2.7333347e+1
0.018, -2.3972448e-9, -1.0497504e-8, 2.7666681e+1
0.017, -2.2592102e-9, -1.0431602e-8, 2.8000015e+1
0.016, -2.1591189e-9, -1.0361946e-8, 2.8333349e+1
0.015, -1.9061350e-9, -1.0255624e-8, 2.8666683e+1
0.014, -1.7928634e-9, -1.0093226e-8, 2.9000017e+1
0.013, -1.6875001e-9, -9.9979269e-9, 2.9333351e+1
0.012, -1.4345162e-9, -9.9497584e-9, 2.9666685e+1
0.011, -1.3063867e-9, -9.8717940e-9, 3.0000019e+1
0.010, -1.2514284e-9, -9.7562065e-9, 3.0333353e+1
0.009, -1.0805624e-9, -9.6069881e-9, 3.0666687e+1
0.008, -9.0106922e-10, -9.5189598e-9, 3.1000021e+1
0.007, -7.9243073e-10, -9.4893231e-9, 3.1333355e+1
0.006, -7.2860568e-10, -9.4365218e-9, 3.1666689e+1
0.005, -5.6612720e-10, -9.3776498e-9, 3.2000023e+1
0.004, -4.1930551e-10, -9.2958512e-9, 3.2333355e+1
0.003, -3.1242439e-10, -9.1588541e-9, 3.2666687e+1
0.002, -2.4380639e-10, -9.0546095e-9, 3.3000019e+1
0.001, -1.6767959e-10, -9.0099563e-9, 3.3333351e+1
-0.000, 4.0650768e-12, -8.9713730e-9, 3.3666683e+1
-0.001, 1.6614411e-10, -8.9159355e-9, 3.4000015e+1
-0.002, 2.1079771e-10, -8.8514716e-9, 3.4333347e+1
-0.003, 2.8348965e-10, -8.7638412e-9, 3.4666679e+1
-0.004, 4.7312770e-10, -8.6331564e-9, 3.5000011e+1
-0.005, 6.1220096e-10, -8.5554319e-9, 3.5333344e+1
-0.006, 6.8792838e-10, -8.5211624e-9, 3.5666676e+1
-0.007, 7.3921214e-10, -8.4897689e-9, 3.6000008e+1
-0.008, 8.0591295e-10, -8.4412015e-9, 3.6333340e+1
-0.009, 9.3164598e-10, -8.4008613e-9, 3.6666672e+1
-0.010, 1.0848583e-9, -8.3454239e-9, 3.7000004e+1
-0.011, 1.1668962e-9, -8.2504457e-9, 3.7333336e+1
-0.012, 1.2097925e-9, -8.1393301e-9, 3.7666668e+1
-0.013, 1.3001381e-9, -8.0593692e-9, 3.8000000e+1
-0.014, 1.4601403e-9, -8.0316500e-9, 3.8333332e+1
-0.015, 1.5705363e-9, -8.0034521e-9, 3.8666664e+1
-0.016, 1.6447459e-9, -7.9594376e-9, 3.8999996e+1
-0.017, 1.6890001e-9, -7.9123081e-9, 3.9333328e+1
-0.018, 1.7406833e-9, -7.8469649e-9, 3.9666660e+1
-0.019, 1.8068249e-9, -7.7544620e-9, 3.9999992e+1
-0.020, 1.9520490e-9, -7.6541316e-9, 4.0333324e+1
-0.021, 2.0755453e-9, -7.5875102e-9, 4.0666656e+1
-0.022, 2.1462403e-9, -7.5521234e-9, 4.0999989e+1
-0.023, 2.1838642e-9, -7.5339903e-9, 4.1333321e+1
-0.024, 2.2448137e-9, -7.5050739e-9, 4.1666653e+1
-0.025, 2.3631177e-9, -7.4700051e-9, 4.1999985e+1
-0.026, 2.4882916e-9, -7.4367748e-9, 4.2333317e+1
-0.027, 2.6047586e-9, -7.4041031e-9, 4.2666649e+1
-0.028, 2.6503708e-9, -7.3536985e-9, 4.2999981e+1
-0.029, 2.6972611e-9, -7.2744566e-9, 4.3333313e+1
-0.030, 2.7493436e-9, -7.1892226e-9, 4.3666645e+1
-0.031, 2.8006275e-9, -7.1175696e-9, 4.3999977e+1
-0.032, 2.8709228e-9, -7.0737145e-9, 4.4333309e+1
-0.033, 3.0368361e-9, -7.0532651e-9, 4.4666641e+1
-0.034, 3.0966674e-9, -7.0324160e-9, 4.4999973e+1
-0.035, 3.1357292e-9, -7.0046968e-9, 4.5333305e+1
-0.036, 3.1811018e-9, -6.9736235e-9, 4.5666637e+1
-0.037, 3.2265541e-9, -6.9433481e-9, 4.5999969e+1
-0.038, 3.2975684e-9, -6.9112360e-9, 4.6333302e+1
-0.039, 3.4308902e-9, -6.8641857e-9, 4.6666634e+1
-0.040, 3.5273071e-9, -6.8052337e-9, 4.6999966e+1
-0.041, 3.5982415e-9, -6.7374146e-9, 4.7333298e+1
-0.042, 3.6282770e-9, -6.6778227e-9, 4.7666630e+1
-0.043, 3.6566348e-9, -6.6219061e-9, 4.7999962e+1
-0.044, 3.7178238e-9, -6.5819661e-9, 4.8333294e+1
-0.045, 3.8038559e-9, -6.5653505e-9, 4.8666626e+1
-0.046, 3.9679318e-9, -6.5012857e-9, 4.8999958e+1
-0.047, 3.8686396e-9, -6.5093535e-9, 4.9333290e+1
-0.048, 4.1943955e-9, -6.4983303e-9, 4.9666622e+1
-0.049, 3.8914059e-9, -6.3181176e-9, 4.9999954e+1
-0.050, 4.2046997e-9, -6.5504926e-9, 5.0333286e+1
-0.051, 4.1475050e-9, -6.1759295e-9, 5.0666618e+1
-0.052, 4.2290638e-9, -6.4319483e-9, 5.0999950e+1
-0.053, 4.2602970e-9, -6.3590968e-9, 5.1333282e+1
-0.054, 4.3795603e-9, -6.3497505e-9, 5.1666615e+1
-0.055, 4.4841246e-9, -6.2557302e-9, 5.1999947e+1
-0.056, 4.5464317e-9, -6.2050058e-9, 5.2333279e+1
-0.057, 4.5709556e-9, -6.2387957e-9, 5.2666611e+1
-0.058, 4.6151296e-9, -6.0076197e-9, 5.2999943e+1
-0.059, 4.6788751e-9, -6.3447185e-9, 5.3333275e+1
-0.060, 4.6910169e-9, -5.9783032e-9, 5.3666607e+1
-0.061, 4.7593156e-9, -6.0449241e-9, 5.3999939e+1
-0.062, 4.7851971e-9, -6.0226371e-9, 5.4333271e+1
-0.063, 4.8787379e-9, -6.0116134e-9, 5.4666603e+1
-0.064, 4.9395275e-9, -5.9835750e-9, 5.4999935e+1
-0.065, 5.0465681e-9, -5.9505041e-9, 5.5333267e+1
-0.066, 5.0750861e-9, -5.9257412e-9, 5.5666599e+1
-0.067, 5.0976126e-9, -5.8810876e-9, 5.5999931e+1
-0.068, 5.1284466e-9, -5.8642327e-9, 5.6333263e+1
-0.069, 5.1574434e-9, -5.7721294e-9, 5.6666595e+1
-0.070, 5.1866800e-9, -5.7960938e-9, 5.6999928e+1
-0.071, 5.2672005e-9, -5.5983080e-9, 5.7333260e+1
-0.072, 5.4055547e-9, -5.6782694e-9, 5.7666592e+1
-0.073, 5.2176738e-9, -5.7570322e-9, 5.7999924e+1
-0.074, 5.4319154e-9, -5.5582876e-9, 5.8333256e+1
-0.075, 5.4894298e-9, -5.8385110e-9, 5.8666588e+1
-0.076, 5.5630007e-9, -5.5900005e-9, 5.8999920e+1
-0.077, 5.5832903e-9, -5.5688321e-9, 5.9333252e+1
-0.078, 5.6051777e-9, -5.5554916e-9, 5.9666584e+1
-0.079, 5.6375296e-9, -5.5415126e-9, 5.9999916e+1
-0.080, 5.6545444e-9, -5.5195453e-9, 6.0333248e+1
-0.081, 5.6919287e-9, -5.4835989e-9, 6.0666580e+1
-0.082, 6.0234360e-9, -5.5830505e-9, 6.0999912e+1
-0.083, 5.7495235e-9, -5.4696994e-9, 6.1333244e+1
-0.084, 5.7924194e-9, -5.4783262e-9, 6.1666576e+1
-0.085, 5.8364340e-9, -5.4301581e-9, 6.1999908e+1
-0.086, 5.9620873e-9, -5.3796732e-9, 6.2333241e+1
-0.087, 6.0039449e-9, -5.3232769e-9, 6.2666573e+1
-0.088, 6.0449241e-9, -5.2803006e-9, 6.2999905e+1
-0.089, 6.0681695e-9, -5.2312537e-9, 6.3333237e+1
-0.090, 6.0808709e-9, -5.1920321e-9, 6.3666569e+1
-0.091, 6.0955689e-9, -5.1614375e-9, 6.3999901e+1
-0.092, 6.1096279e-9, -5.1372333e-9, 6.4333237e+1
-0.093, 6.1342309e-9, -5.1163846e-9, 6.4666573e+1
-0.094, 6.1769678e-9, -5.1059201e-9, 6.4999908e+1
-0.095, 6.2054855e-9, -5.0972129e-9, 6.5333244e+1
-0.096, 6.2336034e-9, -5.0893849e-9, 6.5666580e+1
-0.097, 6.3180381e-9, -5.0813167e-9, 6.5999916e+1
-0.098, 6.3520669e-9, -5.0683759e-9, 6.6333252e+1
-0.099, 6.3953634e-9, -5.0551154e-9, 6.6666588e+1
-0.100, 6.4689338e-9, -5.0391393e-9, 6.6999924e+1
-0.101, 6.4802768e-9, -5.0234825e-9, 6.7333260e+1
-0.102, 6.5282850e-9, -5.0066280e-9, 6.7666595e+1
-0.103, 6.5555246e-9, -4.9925686e-9, 6.7999931e+1
-0.104, 6.5624746e-9, -4.9728381e-9, 6.8333267e+1
-0.105, 6.5950663e-9, -4.8695514e-9, 6.8666603e+1
-0.106, 6.6282966e-9, -4.7503690e-9, 6.8999939e+1
-0.107, 6.6417165e-9, -4.7319157e-9, 6.9333275e+1
-0.108, 6.6086456e-9, -4.9399267e-9, 6.9666611e+1
-0.109, 6.6794210e-9, -4.9159623e-9, 6.9999947e+1
-0.110, 6.6548975e-9, -4.7863948e-9, 7.0333282e+1
-0.111, 6.6678374e-9, -4.7662652e-9, 7.0666618e+1
-0.112, 6.6717520e-9, -4.7801643e-9, 7.0999954e+1
-0.113, 6.7498758e-9, -4.5472306e-9, 7.1333290e+1
-0.114, 6.7406098e-9, -4.9106101e-9, 7.1666626e+1
-0.115, 6.7234351e-9, -4.6029078e-9, 7.1999962e+1
-0.116, 6.7479591e-9, -4.7367892e-9, 7.2333298e+1
-0.117, 6.7922130e-9, -4.6593041e-9, 7.2666634e+1
-0.118, 6.7711241e-9, -4.6178457e-9, 7.2999969e+1
-0.119, 6.8546804e-9, -4.6059432e-9, 7.3333305e+1
-0.120, 6.8665029e-9, -4.6006714e-9, 7.3666641e+1
-0.121, 6.9070025e-9, -4.5939612e-9, 7.3999977e+1
-0.122, 6.9084400e-9, -4.5933222e-9, 7.4333313e+1
-0.123, 6.9375172e-9, -4.5849347e-9, 7.4666649e+1
-0.124, 6.9589250e-9, -4.5712749e-9, 7.4999985e+1
-0.125, 6.9745818e-9, -4.5635264e-9, 7.5333321e+1
-0.126, 7.0037389e-9, -4.5588933e-9, 7.5666656e+1
-0.127, 7.0179573e-9, -4.5448343e-9, 7.5999992e+1
-0.128, 7.0281021e-9, -4.5346895e-9, 7.6333328e+1
-0.129, 7.0380874e-9, -4.5155177e-9, 7.6666664e+1
-0.130, 7.0427202e-9, -4.5067305e-9, 7.7000000e+1
-0.131, 7.0555015e-9, -4.4925916e-9, 7.7333336e+1
-0.132, 7.0655668e-9, -4.4804498e-9, 7.7666672e+1
-0.133, 7.0642883e-9, -4.4867607e-9, 7.8000008e+1
-0.134, 7.0610136e-9, -4.5055328e-9, 7.8333344e+1
-0.135, 7.0719572e-9, -4.4252517e-9, 7.8666679e+1
-0.136, 7.0940041e-9, -4.4361959e-9, 7.9000015e+1
-0.137, 7.0844188e-9, -4.3904236e-9, 7.9333351e+1
-0.138, 7.1621433e-9, -4.1817740e-9, 7.9666687e+1
-0.139, 7.0815429e-9, -4.3438533e-9, 8.0000023e+1
-0.140, 7.1540751e-9, -4.3424153e-9, 8.0333359e+1
-0.141, 7.1360216e-9, -4.2682853e-9, 8.0666695e+1
-0.142, 7.1583086e-9, -4.2373713e-9, 8.1000031e+1
-0.143, 7.2198971e-9, -4.1678745e-9, 8.1333366e+1
-0.144, 7.1783588e-9, -4.2384896e-9, 8.1666702e+1
-0.145, 7.3862898e-9, -4.2392885e-9, 8.2000038e+1
-0.146, 7.1468862e-9, -4.1553334e-9, 8.2333374e+1
-0.147, 7.2150246e-9, -4.1959929e-9, 8.2666710e+1
-0.148, 7.2769324e-9, -4.1336055e-9, 8.3000046e+1
-0.149, 7.3321305e-9, -4.1224224e-9, 8.3333382e+1
-0.150, 7.3298136e-9, -4.1137151e-9, 8.3666718e+1
-0.151, 7.4692865e-9, -4.1110790e-9, 8.4000053e+1
-0.152, 7.2373116e-9, -4.1276147e-9, 8.4333389e+1
-0.153, 7.4534698e-9, -4.0869548e-9, 8.4666725e+1
-0.154, 7.3820563e-9, -4.1030108e-9, 8.5000061e+1
-0.155, 7.3961153e-9, -4.1092418e-9, 8.5333397e+1
-0.156, 7.4193607e-9, -4.0726560e-9, 8.5666733e+1
-0.157, 7.4286266e-9, -4.0868753e-9, 8.6000069e+1
-0.158, 7.3977926e-9, -3.9958103e-9, 8.6333405e+1
-0.159, 7.4803097e-9, -4.0775290e-9, 8.6666740e+1
-0.160, 7.4741600e-9, -4.0322363e-9, 8.7000076e+1
-0.161, 7.5610700e-9, -4.0730557e-9, 8.7333412e+1
-0.162, 7.3890858e-9, -4.0859964e-9, 8.7666748e+1
-0.163, 7.4806294e-9, -4.0196948e-9, 8.8000084e+1
-0.164, 7.5106650e-9, -4.0030002e-9, 8.8333420e+1
-0.165, 7.5133011e-9, -3.9931747e-9, 8.8666756e+1
-0.166, 7.5084285e-9, -3.9918162e-9, 8.9000092e+1
-0.167, 7.5192128e-9, -3.9794350e-9, 8.9333427e+1
-0.168, 7.5169755e-9, -3.9656953e-9, 8.9666763e+1
-0.169, 7.5307955e-9, -3.9663339e-9, 9.0000099e+1
-0.170, 7.5345499e-9, -3.9313464e-9, 9.0333435e+1
-0.171, 7.5384632e-9, -3.9227190e-9, 9.0666771e+1
-0.172, 7.5407804e-9, -3.8943613e-9, 9.1000107e+1
-0.173, 7.5435755e-9, -3.8768673e-9, 9.1333443e+1
-0.174, 7.5513249e-9, -3.8534620e-9, 9.1666779e+1
-0.175, 7.5529218e-9, -3.8267816e-9, 9.2000114e+1
-0.176, 7.5564373e-9, -3.8157584e-9, 9.2333450e+1
-0.177, 7.5679401e-9, -3.7990628e-9, 9.2666786e+1
-0.178, 7.5673805e-9, -3.7945096e-9, 9.3000122e+1
-0.179, 7.5832771e-9, -3.6564749e-9, 9.3333458e+1
-0.180, 7.5951796e-9, -3.7319627e-9, 9.3666794e+1
-0.181, 7.5874311e-9, -3.6117416e-9, 9.4000130e+1
-0.182, 7.5863120e-9, -3.9669734e-9, 9.4333466e+1
-0.183, 7.5966176e-9, -3.6751673e-9, 9.4666801e+1
-0.184, 7.6173059e-9, -3.6399395e-9, 9.5000137e+1
-0.185, 7.6042053e-9, -3.7083976e-9, 9.5333473e+1
-0.186, 7.6050846e-9, -3.6591110e-9, 9.5666809e+1
-0.187, 7.6359985e-9, -3.6492058e-9, 9.6000145e+1
-0.188, 7.6486995e-9, -3.6446528e-9, 9.6333481e+1
-0.189, 7.6606019e-9, -3.6378627e-9, 9.6666817e+1
-0.190, 7.6880005e-9, -3.6337886e-9, 9.7000153e+1
-0.191, 7.7041378e-9, -3.6326704e-9, 9.7333488e+1
-0.192, 7.6991853e-9, -3.6232441e-9, 9.7666824e+1
-0.193, 7.7483913e-9, -3.6236438e-9, 9.8000160e+1
-0.194, 7.7601339e-9, -3.6257208e-9, 9.8333496e+1
-0.195, 7.7630098e-9, -3.6177326e-9, 9.8666832e+1
-0.196, 7.8073432e-9, -3.6125403e-9, 9.9000168e+1
-0.197, 7.8322664e-9, -3.5990402e-9, 9.9333504e+1
-0.198, 7.8831510e-9, -3.6018362e-9, 9.9666840e+1
-0.199, 7.8936955e-9, -3.6052712e-9, 1.0000018e+2
-0.200, 7.9247693e-9, -3.5789900e-9, 1.0033351e+2
-0.201, 7.9820444e-9, -3.5331384e-9, 1.0066685e+2
-0.202, 7.9724582e-9, -3.6349070e-9, 1.0100018e+2
-0.203, 7.9826039e-9, -3.5529488e-9, 1.0133352e+2
-0.204, 7.9243696e-9, -3.5809871e-9, 1.0166685e+2
-0.205, 8.0027336e-9, -3.5692447e-9, 1.0200019e+2
-0.206, 8.0293336e-9, -3.5035026e-9, 1.0233353e+2
-0.207, 8.0260580e-9, -3.5892147e-9, 1.0266686e+2
-0.208, 8.0317308e-9, -3.5455201e-9, 1.0300020e+2
-0.209, 8.0525000e-9, -3.5358545e-9, 1.0333353e+2
-0.210, 8.0628038e-9, -3.5278664e-9, 1.0366687e+2
-0.211, 8.0727096e-9, -3.5209966e-9, 1.0400021e+2
-0.212, 8.0966736e-9, -3.5171621e-9, 1.0433354e+2
-0.213, 8.1187208e-9, -3.5053396e-9, 1.0466688e+2
-0.214, 8.1295051e-9, -3.5036620e-9, 1.0500021e+2
-0.215, 8.1795903e-9, -3.4958336e-9, 1.0533355e+2
-0.216, 8.1926910e-9, -3.4914405e-9, 1.0566689e+2
-0.217, 8.2594713e-9, -3.4818546e-9, 1.0600022e+2
-0.218, 8.2923828e-9, -3.4611654e-9, 1.0633356e+2
-0.219, 8.3621989e-9, -3.4880854e-9, 1.0666689e+2
-0.220, 8.3866425e-9, -3.4146745e-9, 1.0700023e+2
-0.221, 8.4859346e-9, -3.4474257e-9, 1.0733356e+2
-0.222, 8.4581364e-9, -3.3807248e-9, 1.0766690e+2
-0.223, 8.4669232e-9, -3.1955605e-9, 1.0800024e+2
-0.224, 8.3493381e-9, -3.4293726e-9, 1.0833357e+2
-0.225, 8.5007130e-9, -3.4534968e-9, 1.0866691e+2
-0.226, 8.5416918e-9, -3.4852896e-9, 1.0900024e+2
-0.227, 8.5356211e-9, -3.4390384e-9, 1.0933358e+2
-0.228, 8.5476035e-9, -3.3697811e-9, 1.0966692e+2
-0.229, 8.5800353e-9, -3.4241803e-9, 1.1000025e+2
-0.230, 8.6072740e-9, -3.3951038e-9, 1.1033359e+2
-0.231, 8.6582386e-9, -3.3891925e-9, 1.1066692e+2
-0.232, 8.6870759e-9, -3.3847989e-9, 1.1100026e+2
-0.233, 8.7453893e-9, -3.3624321e-9, 1.1133360e+2
-0.234, 8.7889251e-9, -3.3560419e-9, 1.1166693e+2
-0.235, 8.9046726e-9, -3.3638701e-9, 1.1200027e+2
-0.236, 8.9192902e-9, -3.3450980e-9, 1.1233360e+2
-0.237, 8.9627461e-9, -3.3544441e-9, 1.1266694e+2
-0.238, 8.9970946e-9, -3.3379883e-9, 1.1300027e+2
-0.239, 9.0083585e-9, -3.3445389e-9, 1.1333361e+2
-0.240, 9.0256123e-9, -3.3423819e-9, 1.1366695e+2
-0.241, 9.0550092e-9, -3.3385474e-9, 1.1400028e+2
-0.242, 9.0742605e-9, -3.3347931e-9, 1.1433362e+2
-0.243, 9.1091685e-9, -3.3265655e-9, 1.1466695e+2
-0.244, 9.1969579e-9, -3.3312784e-9, 1.1500029e+2
-0.245, 9.2473629e-9, -3.3496510e-9, 1.1533363e+2
-0.246, 9.2924957e-9, -3.3379883e-9, 1.1566696e+2
-0.247, 9.3995363e-9, -3.3545238e-9, 1.1600030e+2
-0.248, 9.4219832e-9, -3.3652281e-9, 1.1633363e+2
-0.249, 9.4679944e-9, -3.3470948e-9, 1.1666697e+2
-0.250, 9.4993879e-9, -3.3661864e-9, 1.1700031e+2
-0.251, 9.5153645e-9, -3.3654675e-9, 1.1733364e+2
-0.252, 9.5315800e-9, -3.3803256e-9, 1.1766698e+2
-0.253, 9.5599386e-9, -3.3821628e-9, 1.1800031e+2
-0.254, 9.6009174e-9, -3.3839200e-9, 1.1833365e+2
-0.255, 9.6540385e-9, -3.3979792e-9, 1.1866698e+2
-0.256, 9.6951771e-9, -3.4056478e-9, 1.1900032e+2
-0.257, 9.7884785e-9, -3.4119585e-9, 1.1933366e+2
-0.258, 9.8694777e-9, -3.4260974e-9, 1.1966699e+2
-0.259, 9.9192441e-9, -3.4343255e-9, 1.2000033e+2
-0.260, 9.9809920e-9, -3.4348044e-9, 1.2033366e+2
-0.261, 9.9892201e-9, -3.4423933e-9, 1.2066700e+2
-0.262, 1.0011507e-8, -3.4495027e-9, 1.2100034e+2
-0.263, 1.0042501e-8, -3.4554937e-9, 1.2133367e+2
-0.264, 1.0066705e-8, -3.4553342e-9, 1.2166701e+2
-0.265, 1.0114634e-8, -3.4701917e-9, 1.2200034e+2
-0.266, 1.0173745e-8, -3.4734671e-9, 1.2233368e+2
-0.267, 1.0226707e-8, -3.4753840e-9, 1.2266702e+2
-0.268, 1.0312659e-8, -3.4837715e-9, 1.2300035e+2
-0.269, 1.0356594e-8, -3.4839314e-9, 1.2333369e+2
-0.270, 1.0423854e-8, -3.4794581e-9, 1.2366702e+2
-0.271, 1.0457404e-8, -3.5029435e-9, 1.2400036e+2
-0.272, 1.0467868e-8, -3.4892835e-9, 1.2433369e+2
-0.273, 1.0508688e-8, -3.4941563e-9, 1.2466703e+2
-0.274, 1.0521709e-8, -3.5107717e-9, 1.2500037e+2
-0.275, 1.0544315e-8, -3.5015852e-9, 1.2533370e+2
-0.276, 1.0592164e-8, -3.5086147e-9, 1.2566704e+2
-0.277, 1.0586492e-8, -3.5120500e-9, 1.2600037e+2
-0.278, 1.0614690e-8, -3.5154049e-9, 1.2633371e+2
-0.279, 1.0650397e-8, -3.5184402e-9, 1.2666705e+2
-0.280, 1.0667492e-8, -3.5166030e-9, 1.2700038e+2
-0.281, 1.0728680e-8, -3.5265082e-9, 1.2733372e+2
-0.282, 1.0771736e-8, -3.5237122e-9, 1.2766705e+2
-0.283, 1.0832526e-8, -3.5260290e-9, 1.2800038e+2
-0.284, 1.0868313e-8, -3.5311412e-9, 1.2833371e+2
-0.285, 1.0893635e-8, -3.5313010e-9, 1.2866704e+2
-0.286, 1.0938768e-8, -3.5348158e-9, 1.2900037e+2
-0.287, 1.0958179e-8, -3.5392096e-9, 1.2933369e+2
-0.288, 1.0967207e-8, -3.5331384e-9, 1.2966702e+2
-0.289, 1.0989413e-8, -3.5405674e-9, 1.3000035e+2
-0.290, 1.0988535e-8, -3.5381709e-9, 1.3033368e+2
-0.291, 1.1004270e-8, -3.5421648e-9, 1.3066701e+2
-0.292, 1.1039099e-8, -3.5443217e-9, 1.3100034e+2
-0.293, 1.1049723e-8, -3.5423247e-9, 1.3133366e+2
-0.294, 1.1086629e-8, -3.5448808e-9, 1.3166699e+2
-0.295, 1.1127607e-8, -3.5476766e-9, 1.3200032e+2
-0.296, 1.1148377e-8, -3.5465584e-9, 1.3233365e+2
-0.297, 1.1200939e-8, -3.5485554e-9, 1.3266698e+2
-0.298, 1.1233610e-8, -3.5461589e-9, 1.3300031e+2
-0.299, 1.1271394e-8, -3.5461589e-9, 1.3333363e+2
-0.300, 1.1312133e-8, -3.5474372e-9, 1.3366696e+2
-0.301, 1.1359503e-8, -3.5465584e-9, 1.3400029e+2
-0.302, 1.1399603e-8, -3.5530288e-9, 1.3433362e+2
-0.303, 1.1413583e-8, -3.5501528e-9, 1.3466695e+2
-0.304, 1.1434751e-8, -3.5471976e-9, 1.3500027e+2
-0.305, 1.1454402e-8, -3.5497536e-9, 1.3533360e+2
-0.306, 1.1464067e-8, -3.5535881e-9, 1.3566693e+2
-0.307, 1.1474931e-8, -3.5524697e-9, 1.3600026e+2
-0.308, 1.1485076e-8, -3.5453602e-9, 1.3633359e+2
-0.309, 1.1496579e-8, -3.5469576e-9, 1.3666692e+2
-0.310, 1.1518147e-8, -3.5498335e-9, 1.3700024e+2
-0.311, 1.1541392e-8, -3.5494343e-9, 1.3733357e+2
-0.312, 1.1563999e-8, -3.5478365e-9, 1.3766690e+2
-0.313, 1.1598748e-8, -3.5486352e-9, 1.3800023e+2
-0.314, 1.1615123e-8, -3.5503127e-9, 1.3833356e+2
-0.315, 1.1674155e-8, -3.5501528e-9, 1.3866689e+2
-0.316, 1.1701874e-8, -3.5471175e-9, 1.3900021e+2
-0.317, 1.1741095e-8, -3.5457597e-9, 1.3933354e+2
-0.318, 1.1804841e-8, -3.5463188e-9, 1.3966687e+2
-0.319, 1.1834158e-8, -3.5450407e-9, 1.4000020e+2
-0.320, 1.1860518e-8, -3.5427239e-9, 1.4033353e+2
-0.321, 1.1919949e-8, -3.5403278e-9, 1.4066685e+2
-0.322, 1.1917713e-8, -3.5391294e-9, 1.4100018e+2
-0.323, 1.1940879e-8, -3.5433632e-9, 1.4133351e+2
-0.324, 1.1958453e-8, -3.5400880e-9, 1.4166684e+2
-0.325, 1.1960928e-8, -3.5421648e-9, 1.4200017e+2
-0.326, 1.1969795e-8, -3.5350554e-9, 1.4233350e+2
-0.327, 1.1990324e-8, -3.5334580e-9, 1.4266682e+2
-0.328, 1.2002547e-8, -3.5323398e-9, 1.4300015e+2
-0.329, 1.2014848e-8, -3.5329786e-9, 1.4333348e+2
-0.330, 1.2044963e-8, -3.5306622e-9, 1.4366681e+2
-0.331, 1.2091374e-8, -3.5333778e-9, 1.4400014e+2
-0.332, 1.2121650e-8, -3.5290644e-9, 1.4433347e+2
-0.333, 1.2167901e-8, -3.5289045e-9, 1.4466679e+2
-0.334, 1.2222859e-8, -3.5269876e-9, 1.4500012e+2
-0.335, 1.2247862e-8, -3.5223544e-9, 1.4533345e+2
-0.336, 1.2286125e-8, -3.5219549e-9, 1.4566678e+2
-0.337, 1.2355462e-8, -3.5220349e-9, 1.4600011e+2
-0.338, 1.2385817e-8, -3.5270673e-9, 1.4633344e+2
-0.339, 1.2393086e-8, -3.5249108e-9, 1.4666676e+2
-0.340, 1.2427595e-8, -3.5217953e-9, 1.4700009e+2
-0.341, 1.2433506e-8, -3.5188397e-9, 1.4733342e+2
-0.342, 1.2441334e-8, -3.5203573e-9, 1.4766675e+2
-0.343, 1.2454914e-8, -3.5197183e-9, 1.4800008e+2
-0.344, 1.2456831e-8, -3.5144461e-9, 1.4833340e+2
-0.345, 1.2470092e-8, -3.5162833e-9, 1.4866673e+2
-0.346, 1.2482474e-8, -3.5107717e-9, 1.4900006e+2
-0.347, 1.2499648e-8, -3.5101324e-9, 1.4933339e+2
-0.348, 1.2516822e-8, -3.5117302e-9, 1.4966672e+2
-0.349, 1.2531840e-8, -3.5108514e-9, 1.5000005e+2
-0.350, 1.2563633e-8, -3.5054992e-9, 1.5033337e+2
-0.351, 1.2580808e-8, -3.5069372e-9, 1.5066670e+2
-0.352, 1.2586479e-8, -3.5017449e-9, 1.5100003e+2
-0.353, 1.2646629e-8, -3.5078160e-9, 1.5133336e+2
-0.354, 1.2667399e-8, -3.5023042e-9, 1.5166669e+2
-0.355, 1.2685611e-8, -3.5015055e-9, 1.5200002e+2
-0.356, 1.2758623e-8, -3.5033427e-9, 1.5233334e+2
-0.357, 1.2788577e-8, -3.4974315e-9, 1.5266667e+2
-0.358, 1.2827800e-8, -3.4949552e-9, 1.5300000e+2
-0.359, 1.2861590e-8, -3.4924788e-9, 1.5333333e+2
-0.360, 1.2879722e-8, -3.4957539e-9, 1.5366666e+2
-0.361, 1.2903447e-8, -3.4889638e-9, 1.5399998e+2
-0.362, 1.2911197e-8, -3.4908814e-9, 1.5433331e+2
-0.363, 1.2928531e-8, -3.4905616e-9, 1.5466664e+2
-0.364, 1.2939633e-8, -3.4915202e-9, 1.5499997e+2
-0.365, 1.2943068e-8, -3.4882452e-9, 1.5533330e+2
-0.366, 1.2968551e-8, -3.4908814e-9, 1.5566663e+2
-0.367, 1.2973343e-8, -3.4840115e-9, 1.5599995e+2
-0.368, 1.2981650e-8, -3.4869672e-9, 1.5633328e+2
-0.369, 1.3022470e-8, -3.4825736e-9, 1.5666661e+2
-0.370, 1.3026225e-8, -3.4802572e-9, 1.5699994e+2
-0.371, 1.3061292e-8, -3.4848102e-9, 1.5733327e+2
-0.372, 1.3086775e-8, -3.4794581e-9, 1.5766660e+2
-0.373, 1.3100913e-8, -3.4765024e-9, 1.5799992e+2
-0.374, 1.3143091e-8, -3.4830530e-9, 1.5833325e+2
-0.375, 1.3206676e-8, -3.4808960e-9, 1.5866658e+2
-0.376, 1.3221695e-8, -3.4792185e-9, 1.5899991e+2
-0.377, 1.3284321e-8, -3.4726684e-9, 1.5933324e+2
-0.378, 1.3295985e-8, -3.4751446e-9, 1.5966656e+2
-0.379, 1.3362125e-8, -3.4757834e-9, 1.5999989e+2
-0.380, 1.3366199e-8, -3.4728282e-9, 1.6033322e+2
-0.381, 1.3386649e-8, -3.4765024e-9, 1.6066655e+2
-0.382, 1.3410294e-8, -3.4719494e-9, 1.6099988e+2
-0.383, 1.3419241e-8, -3.4710705e-9, 1.6133321e+2
-0.384, 1.3426989e-8, -3.4726684e-9, 1.6166653e+2
-0.385, 1.3443445e-8, -3.4762628e-9, 1.6199986e+2
-0.386, 1.3441767e-8, -3.4700323e-9, 1.6233319e+2
-0.387, 1.3453350e-8, -3.4678753e-9, 1.6266652e+2
-0.388, 1.3480110e-8, -3.4680352e-9, 1.6299985e+2
-0.389, 1.3487539e-8, -3.4710705e-9, 1.6333318e+2
-0.390, 1.3515337e-8, -3.4629226e-9, 1.6366650e+2
-0.391, 1.3537305e-8, -3.4649998e-9, 1.6399983e+2
-0.392, 1.3546571e-8, -3.4684347e-9, 1.6433316e+2
-0.393, 1.3554000e-8, -3.4640411e-9, 1.6466649e+2
-0.394, 1.3601130e-8, -3.4570118e-9, 1.6499982e+2
-0.395, 1.3611993e-8, -3.4611654e-9, 1.6533315e+2
-0.396, 1.3649538e-8, -3.4582894e-9, 1.6566647e+2
-0.397, 1.3689159e-8, -3.4595675e-9, 1.6599980e+2
-0.398, 1.3760653e-8, -3.4582894e-9, 1.6633313e+2
-0.399, 1.3764887e-8, -3.4629226e-9, 1.6666646e+2
-0.400, 1.3807543e-8, -3.4491032e-9, 1.6699979e+2
-0.401, 1.3834463e-8, -3.4507808e-9, 1.6733311e+2
-0.402, 1.3856271e-8, -3.4540562e-9, 1.6766644e+2
-0.403, 1.3867455e-8, -3.4415946e-9, 1.6799977e+2
-0.404, 1.3904359e-8, -3.4463872e-9, 1.6833310e+2
-0.405, 1.3901563e-8, -3.4451890e-9, 1.6866643e+2
-0.406, 1.3905159e-8, -3.4411152e-9, 1.6899976e+2
-0.407, 1.3918657e-8, -3.4444700e-9, 1.6933308e+2
-0.408, 1.3923212e-8, -3.4401566e-9, 1.6966641e+2
-0.409, 1.3945738e-8, -3.4356833e-9, 1.6999974e+2
-0.410, 1.3945019e-8, -3.4393579e-9, 1.7033307e+2
-0.411, 1.3966347e-8, -3.4467067e-9, 1.7066640e+2
-0.412, 1.3974096e-8, -3.4391980e-9, 1.7099973e+2
-0.413, 1.3986078e-8, -3.4410355e-9, 1.7133305e+2
-0.414, 1.4013078e-8, -3.4330472e-9, 1.7166638e+2
-0.415, 1.4027855e-8, -3.4357630e-9, 1.7199971e+2
-0.416, 1.4046549e-8, -3.4280148e-9, 1.7233304e+2
-0.417, 1.4087608e-8, -3.4387988e-9, 1.7266637e+2
-0.418, 1.4114127e-8, -3.4411949e-9, 1.7299969e+2
-0.419, 1.4114447e-8, -3.4336862e-9, 1.7333302e+2
-0.420, 1.4207348e-8, -3.4448695e-9, 1.7366635e+2
-0.421, 1.4197203e-8, -3.4339256e-9, 1.7399968e+2
-0.422, 1.4262866e-8, -3.4374406e-9, 1.7433301e+2
-0.423, 1.4299612e-8, -3.4369614e-9, 1.7466634e+2
-0.424, 1.4311913e-8, -3.4320888e-9, 1.7499966e+2
-0.425, 1.4367830e-8, -3.4423933e-9, 1.7533299e+2
-0.426, 1.4382608e-8, -3.4408756e-9, 1.7566632e+2
-0.427, 1.4396908e-8, -3.4433518e-9, 1.7599965e+2
-0.428, 1.4403137e-8, -3.4480647e-9, 1.7633298e+2
-0.429, 1.4407611e-8, -3.4427927e-9, 1.7666631e+2
-0.430, 1.4423268e-8, -3.4469463e-9, 1.7699963e+2
-0.431, 1.4434132e-8, -3.4507808e-9, 1.7733296e+2
-0.432, 1.4445235e-8, -3.4479053e-9, 1.7766629e+2
-0.433, 1.4480463e-8, -3.4482244e-9, 1.7799962e+2
-0.434, 1.4486455e-8, -3.4505412e-9, 1.7833295e+2
-0.435, 1.4502270e-8, -3.4565322e-9, 1.7866628e+2
-0.436, 1.4531667e-8, -3.4529377e-9, 1.7899960e+2
-0.437, 1.4526715e-8, -3.4566920e-9, 1.7933293e+2
-0.438, 1.4555312e-8, -3.4615648e-9, 1.7966626e+2
-0.439, 1.4601962e-8, -3.4594878e-9, 1.7999959e+2
-0.440, 1.4628962e-8, -3.4654790e-9, 1.8033292e+2
-0.441, 1.4708204e-8, -3.4653191e-9, 1.8066624e+2
-0.442, 1.4721064e-8, -3.4671563e-9, 1.8099957e+2
-0.443, 1.4783053e-8, -3.4711507e-9, 1.8133290e+2
-0.444, 1.4839928e-8, -3.4708310e-9, 1.8166623e+2
-0.445, 1.4849274e-8, -3.4707510e-9, 1.8199956e+2
-0.446, 1.4884901e-8, -3.4700323e-9, 1.8233289e+2
-0.447, 1.4895367e-8, -3.4773016e-9, 1.8266621e+2
-0.448, 1.4899919e-8, -3.4836918e-9, 1.8299954e+2
-0.449, 1.4924684e-8, -3.4851297e-9, 1.8333287e+2
-0.450, 1.4936983e-8, -3.4855292e-9, 1.8366620e+2
-0.451, 1.4949764e-8, -3.4860883e-9, 1.8399953e+2
-0.452, 1.5000170e-8, -3.4883250e-9, 1.8433286e+2
-0.453, 1.5010395e-8, -3.4929581e-9, 1.8466618e+2
-0.454, 1.5067510e-8, -3.4955145e-9, 1.8499951e+2
-0.455, 1.5144197e-8, -3.4955943e-9, 1.8533284e+2
-0.456, 1.5186453e-8, -3.4999077e-9, 1.8566617e+2
-0.457, 1.5246524e-8, -3.5019845e-9, 1.8599950e+2
-0.458, 1.5302600e-8, -3.5025436e-9, 1.8633282e+2
-0.459, 1.5336949e-8, -3.5057393e-9, 1.8666615e+2
-0.460, 1.5353326e-8, -3.5117302e-9, 1.8699948e+2
-0.461, 1.5376571e-8, -3.5144461e-9, 1.8733281e+2
-0.462, 1.5396461e-8, -3.5142065e-9, 1.8766614e+2
-0.463, 1.5408524e-8, -3.5181207e-9, 1.8799947e+2
-0.464, 1.5429451e-8, -3.5227539e-9, 1.8833279e+2
-0.465, 1.5474745e-8, -3.5256298e-9, 1.8866612e+2
-0.466, 1.5498708e-8, -3.5314609e-9, 1.8899945e+2
-0.467, 1.5543444e-8, -3.5344963e-9, 1.8933278e+2
-0.468, 1.5615656e-8, -3.5364136e-9, 1.8966611e+2
-0.469, 1.5670613e-8, -3.5421648e-9, 1.8999944e+2
-0.470, 1.5725732e-8, -3.5448808e-9, 1.9033276e+2
-0.471, 1.5817594e-8, -3.5478365e-9, 1.9066609e+2
-0.472, 1.5835967e-8, -3.5547860e-9, 1.9099942e+2
-0.473, 1.5870397e-8, -3.5562240e-9, 1.9133275e+2
-0.474, 1.5886531e-8, -3.5647714e-9, 1.9166608e+2
-0.475, 1.5912015e-8, -3.5739576e-9, 1.9199940e+2
-0.476, 1.5940932e-8, -3.5722003e-9, 1.9233273e+2
-0.477, 1.5995409e-8, -3.5791499e-9, 1.9266606e+2
-0.478, 1.6072176e-8, -3.5850611e-9, 1.9299939e+2
-0.479, 1.6144789e-8, -3.5904133e-9, 1.9333272e+2
-0.480, 1.6234974e-8, -3.5808274e-9, 1.9366605e+2
-0.481, 1.6326439e-8, -3.5983212e-9, 1.9399937e+2
-0.482, 1.6348245e-8, -3.6032741e-9, 1.9433270e+2
-0.483, 1.6363662e-8, -3.5988008e-9, 1.9466603e+2
-0.484, 1.6415905e-8, -3.6049514e-9, 1.9499936e+2
-0.485, 1.6401128e-8, -3.5744370e-9, 1.9533269e+2
-0.486, 1.6442984e-8, -3.6258807e-9, 1.9566602e+2
-0.487, 1.6662979e-8, -3.5622951e-9, 1.9599934e+2
-0.488, 1.6569038e-8, -3.6777232e-9, 1.9633267e+2
-0.489, 1.6696287e-8, -3.6287562e-9, 1.9666600e+2
-0.490, 1.6705314e-8, -3.6456909e-9, 1.9699933e+2
-0.491, 1.6869071e-8, -3.6197298e-9, 1.9733266e+2
-0.492, 1.6844949e-8, -3.7286880e-9, 1.9766599e+2
-0.493, 1.6887444e-8, -3.6710133e-9, 1.9799931e+2
-0.494, 1.6952628e-8, -3.6821965e-9, 1.9833264e+2
-0.495, 1.7000556e-8, -3.6897854e-9, 1.9866597e+2
-0.496, 1.7106000e-8, -3.7111136e-9, 1.9899930e+2
-0.497, 1.7240520e-8, -3.7269303e-9, 1.9933263e+2
-0.498, 1.7312093e-8, -3.7421080e-9, 1.9966595e+2
-0.499, 1.7208167e-8, -3.7571253e-9, 1.9999928e+2
-0.500, 1.5347814e-8, -3.7318029e-9, 2.0033261e+2
-0.499, 1.4435409e-8, -3.7065606e-9, 2.0066594e+2
-0.498, 1.3618225e-8, -3.6798005e-9, 2.0099927e+2
-0.497, 1.2993154e-8, -3.6615073e-9, 2.0133260e+2
-0.496, 1.2462103e-8, -3.6495253e-9, 2.0166592e+2
-0.495, 1.1907967e-8, -3.6393006e-9, 2.0199925e+2
-0.494, 1.1431315e-8, -3.6313124e-9, 2.0233258e+2
-0.493, 1.0964969e-8, -3.6243626e-9, 2.0266591e+2
-0.492, 1.0544953e-8, -3.6164545e-9, 2.0299924e+2
-0.491, 1.0114314e-8, -3.6108629e-9, 2.0333257e+2
-0.490, 9.7406296e-9, -3.6002388e-9, 2.0366589e+2
-0.489, 9.4536965e-9, -3.5974428e-9, 2.0399922e+2
-0.488, 9.0403107e-9, -3.5888155e-9, 2.0433255e+2
-0.487, 8.7159933e-9, -3.5773124e-9, 2.0466588e+2
-0.486, 8.4873726e-9, -3.5672476e-9, 2.0499921e+2
-0.485, 8.0926803e-9, -3.5616559e-9, 2.0533253e+2
-0.484, 7.8745241e-9, -3.5497536e-9, 2.0566586e+2
-0.483, 7.5631474e-9, -3.5380110e-9, 2.0599919e+2
-0.482, 7.3217459e-9, -3.5293040e-9, 2.0633252e+2
-0.481, 7.0566997e-9, -3.5237924e-9, 2.0666585e+2
-0.480, 6.8057924e-9, -3.5174017e-9, 2.0699918e+2
-0.479, 6.5981016e-9, -3.5125289e-9, 2.0733250e+2
-0.478, 6.3582184e-9, -3.5018251e-9, 2.0766583e+2
-0.477, 6.0991634e-9, -3.4952745e-9, 2.0799916e+2
-0.476, 5.8821263e-9, -3.4881651e-9, 2.0833249e+2
-0.475, 5.6427218e-9, -3.4802572e-9, 2.0866582e+2
-0.474, 5.5315272e-9, -3.4711507e-9, 2.0899915e+2
-0.473, 5.2262212e-9, -3.4593282e-9, 2.0933247e+2
-0.472, 5.0921805e-9, -3.4523786e-9, 2.0966580e+2
-0.471, 4.8808149e-9, -3.4394376e-9, 2.0999913e+2
-0.470, 4.6779962e-9, -3.4303311e-9, 2.1033246e+2
-0.469, 4.5813402e-9, -3.4188281e-9, 2.1066579e+2
-0.468, 4.3386610e-9, -3.4039702e-9, 2.1099911e+2
-0.467, 4.1497419e-9, -3.3838403e-9, 2.1133244e+2
-0.466, 4.0560408e-9, -3.3784882e-9, 2.1166577e+2
-0.465, 3.8089683e-9, -3.3494914e-9, 2.1199910e+2
-0.464, 3.6674985e-9, -3.3542045e-9, 2.1233243e+2
-0.463, 3.5784309e-9, -3.3307190e-9, 2.1266576e+2
-0.462, 3.3842396e-9, -3.3224914e-9, 2.1299908e+2
-0.461, 3.1978769e-9, -3.3069947e-9, 2.1333241e+2
-0.460, 3.1171168e-9, -3.2950924e-9, 2.1366574e+2
-0.459, 2.9794816e-9, -3.2817520e-9, 2.1399907e+2
-0.458, 2.7828937e-9, -3.2726455e-9, 2.1433240e+2
-0.457, 2.7056486e-9, -3.2552314e-9, 2.1466573e+2
-0.456, 2.6237703e-9, -3.2448471e-9, 2.1499905e+2
-0.455, 2.4582563e-9, -3.2391754e-9, 2.1533238e+2
-0.454, 2.2701361e-9, -3.2296694e-9, 2.1566571e+2
-0.453, 2.1734798e-9, -3.2172878e-9, 2.1599904e+2
-0.452, 2.1078972e-9, -3.2050662e-9, 2.1633237e+2
-0.451, 1.9531674e-9, -3.1948415e-9, 2.1666570e+2
-0.450, 1.7688013e-9, -3.1943619e-9, 2.1699902e+2
-0.449, 1.6969083e-9, -3.1838976e-9, 2.1733235e+2
-0.448, 1.6563287e-9, -3.1830989e-9, 2.1766568e+2
-0.447, 1.5434565e-9, -3.1746312e-9, 2.1799901e+2
-0.446, 1.4162855e-9, -3.1701579e-9, 2.1833234e+2
-0.445, 1.2760140e-9, -3.1684806e-9, 2.1866566e+2
-0.444, 1.1813548e-9, -3.1608918e-9, 2.1899899e+2
-0.443, 1.1473253e-9, -3.1611314e-9, 2.1933232e+2
-0.442, 1.0265450e-9, -3.1562586e-9, 2.1966565e+2
-0.441, 8.7077656e-10, -3.1505072e-9, 2.1999898e+2
-0.440, 7.7268236e-10, -3.1529035e-9, 2.2033231e+2
-0.439, 7.1524775e-10, -3.1472323e-9, 2.2066563e+2
-0.438, 6.7714440e-10, -3.1481107e-9, 2.2099896e+2
-0.437, 5.9662408e-10, -3.1429184e-9, 2.2133229e+2
-0.436, 4.3206877e-10, -3.1405223e-9, 2.2166562e+2
-0.435, 3.3181780e-10, -3.1394038e-9, 2.2199895e+2
-0.434, 2.2493671e-10, -3.1346110e-9, 2.2233228e+2
-0.433, 1.9753743e-10, -3.1341314e-9, 2.2266560e+2
-0.432, 1.6782162e-10, -3.1329335e-9, 2.2299893e+2
-0.431, 1.1014745e-11, -3.1307765e-9, 2.2333226e+2
-0.430, -7.0943404e-11, -3.1315752e-9, 2.2366559e+2
-0.429, -1.7422985e-10, -3.1271019e-9, 2.2399892e+2
-0.428, -2.4668215e-10, -3.1254244e-9, 2.2433224e+2
-0.427, -2.8598368e-10, -3.1234273e-9, 2.2466557e+2
-0.426, -3.1034750e-10, -3.1219096e-9, 2.2499890e+2
-0.425, -3.6642411e-10, -3.1207914e-9, 2.2533223e+2
-0.424, -4.7178750e-10, -3.1191139e-9, 2.2566556e+2
-0.423, -5.5502369e-10, -3.1189540e-9, 2.2599889e+2
-0.422, -6.4449068e-10, -3.1163181e-9, 2.2633221e+2
-0.421, -7.4194584e-10, -3.1148004e-9, 2.2666554e+2
-0.420, -7.8292489e-10, -3.1103269e-9, 2.2699887e+2
-0.419, -7.9922063e-10, -3.1090488e-9, 2.2733220e+2
-0.418, -8.6759899e-10, -3.1053742e-9, 2.2766553e+2
-0.417, -9.1113428e-10, -3.1075311e-9, 2.2799886e+2
-0.416, -1.0190538e-9, -3.1045755e-9, 2.2833218e+2
-0.415, -1.1300888e-9, -3.1026584e-9, 2.2866551e+2
-0.414, -1.1839287e-9, -3.1018594e-9, 2.2899884e+2
-0.413, -1.2452774e-9, -3.0970666e-9, 2.2933217e+2
-0.412, -1.2757921e-9, -3.0981850e-9, 2.2966550e+2
-0.411, -1.3075050e-9, -3.0939513e-9, 2.2999883e+2
-0.410, -1.3725283e-9, -3.0897176e-9, 2.3033215e+2
-0.409, -1.4308417e-9, -3.0947500e-9, 2.3066548e+2
-0.408, -1.5217465e-9, -3.0866021e-9, 2.3099881e+2
-0.407, -1.6108940e-9, -3.0863627e-9, 2.3133214e+2
-0.406, -1.6815089e-9, -3.0843654e-9, 2.3166547e+2
-0.405, -1.7492483e-9, -3.0756586e-9, 2.3199879e+2
-0.404, -1.7738517e-9, -3.0776555e-9, 2.3233212e+2
-0.403, -1.8087598e-9, -3.0753389e-9, 2.3266545e+2
-0.402, -1.8492596e-9, -3.0723035e-9, 2.3299878e+2
-0.401, -1.9118065e-9, -3.0677503e-9, 2.3333211e+2
-0.400, -1.9742736e-9, -3.0635166e-9, 2.3366544e+2
-0.399, -2.0988085e-9, -3.0646348e-9, 2.3399876e+2
-0.398, -2.1374711e-9, -3.0582443e-9, 2.3433209e+2
-0.397, -2.1918700e-9, -3.0585638e-9, 2.3466542e+2
-0.396, -2.2389202e-9, -3.0543301e-9, 2.3499875e+2
-0.395, -2.2554556e-9, -3.0572858e-9, 2.3533208e+2
-0.394, -2.2749467e-9, -3.0544900e-9, 2.3566541e+2
-0.393, -2.3234346e-9, -3.0531320e-9, 2.3599873e+2
-0.392, -2.3820674e-9, -3.0502563e-9, 2.3633206e+2
-0.391, -2.4418985e-9, -3.0475402e-9, 2.3666539e+2
-0.390, -2.5308862e-9, -3.0438658e-9, 2.3699872e+2
-0.389, -2.5951905e-9, -3.0457030e-9, 2.3733205e+2
-0.388, -2.6538234e-9, -3.0409901e-9, 2.3766537e+2
-0.387, -2.6979179e-9, -3.0373155e-9, 2.3799870e+2
-0.386, -2.7333851e-9, -3.0395522e-9, 2.3833203e+2
-0.385, -2.7466454e-9, -3.0324427e-9, 2.3866536e+2
-0.384, -2.7603850e-9, -3.0324427e-9, 2.3899869e+2
-0.383, -2.7953730e-9, -3.0364369e-9, 2.3933202e+2
-0.382, -2.8213343e-9, -3.0259724e-9, 2.3966534e+2
-0.381, -2.8579998e-9, -3.0306855e-9, 2.3999867e+2
-0.380, -2.9188694e-9, -3.0227771e-9, 2.4033200e+2
-0.379, -2.9569727e-9, -3.0223777e-9, 2.4066533e+2
-0.378, -3.0137683e-9, -3.0205405e-9, 2.4099866e+2
-0.377, -3.1152974e-9, -3.0255729e-9, 2.4133199e+2
-0.376, -3.1525220e-9, -3.0215790e-9, 2.4166531e+2
-0.375, -3.1970955e-9, -3.0207004e-9, 2.4199864e+2
-0.374, -3.2194627e-9, -3.0169458e-9, 2.4233197e+2
-0.373, -3.2571663e-9, -3.0123926e-9, 2.4266530e+2
-0.372, -3.2728233e-9, -3.0119931e-9, 2.4299863e+2
-0.371, -3.2883201e-9, -3.0103955e-9, 2.4333195e+2
-0.370, -3.3336125e-9, -3.0086382e-9, 2.4366528e+2
-0.369, -3.3467931e-9, -3.0065612e-9, 2.4399861e+2
-0.368, -3.3605327e-9, -3.0069607e-9, 2.4433194e+2
-0.367, -3.4025502e-9, -3.0042449e-9, 2.4466527e+2
-0.366, -3.4297898e-9, -3.0071203e-9, 2.4499860e+2
-0.365, -3.4744434e-9, -3.0031264e-9, 2.4533192e+2
-0.364, -3.5552834e-9, -3.0029665e-9, 2.4566525e+2
-0.363, -3.5741352e-9, -3.0010494e-9, 2.4599858e+2
-0.362, -3.6530576e-9, -2.9975347e-9, 2.4633191e+2
-0.361, -3.6727086e-9, -2.9951384e-9, 2.4666524e+2
-0.360, -3.7033829e-9, -2.9943394e-9, 2.4699857e+2
-0.359, -3.7201580e-9, -2.9923424e-9, 2.4733189e+2
-0.358, -3.7255101e-9, -2.9894667e-9, 2.4766522e+2
-0.357, -3.7589802e-9, -2.9829164e-9, 2.4799855e+2
-0.356, -3.7646517e-9, -2.9873097e-9, 2.4833188e+2
-0.355, -3.7837435e-9, -2.9827565e-9, 2.4866521e+2
-0.354, -3.8267194e-9, -2.9818779e-9, 2.4899854e+2
-0.353, -3.8430157e-9, -2.9751679e-9, 2.4933186e+2
-0.352, -3.8657015e-9, -2.9738099e-9, 2.4966519e+2
-0.351, -3.9407100e-9, -2.9687774e-9, 2.4999852e+2
-0.350, -3.9434260e-9, -2.9686975e-9, 2.5033185e+2
-0.349, -4.0090082e-9, -2.9664609e-9, 2.5066518e+2
-0.348, -4.0757895e-9, -2.9629459e-9, 2.5099850e+2
-0.347, -4.1119756e-9, -2.9542391e-9, 2.5133183e+2
-0.346, -4.1490402e-9, -2.9591118e-9, 2.5166516e+2
-0.345, -4.1857060e-9, -2.9531206e-9, 2.5199849e+2
-0.344, -4.1963304e-9, -2.9503249e-9, 2.5233182e+2
-0.343, -4.2090313e-9, -2.9483278e-9, 2.5266515e+2
-0.342, -4.2244483e-9, -2.9427361e-9, 2.5299847e+2
-0.341, -4.2422621e-9, -2.9378635e-9, 2.5333180e+2
-0.340, -4.2552024e-9, -2.9375438e-9, 2.5366513e+2
-0.339, -4.2730162e-9, -2.9263605e-9, 2.5399846e+2
-0.338, -4.3019330e-9, -2.9285971e-9, 2.5433179e+2
-0.337, -4.3214241e-9, -2.9122216e-9, 2.5466512e+2
-0.336, -4.3660777e-9, -2.9186917e-9, 2.5499844e+2
-0.335, -4.4297432e-9, -2.9095055e-9, 2.5533177e+2
-0.334, -4.4242312e-9, -2.8992808e-9, 2.5566510e+2
-0.333, -4.4992401e-9, -2.9028753e-9, 2.5599843e+2
-0.332, -4.5083466e-9, -2.8997600e-9, 2.5633176e+2
-0.331, -4.5619464e-9, -2.8855411e-9, 2.5666510e+2
-0.330, -4.5924611e-9, -2.8885767e-9, 2.5699844e+2
-0.329, -4.6320823e-9, -2.8816269e-9, 2.5733179e+2
-0.328, -4.6656323e-9, -2.8733991e-9, 2.5766513e+2
-0.327, -4.6738604e-9, -2.8542277e-9, 2.5799847e+2
-0.326, -4.6876001e-9, -2.8503935e-9, 2.5833182e+2
-0.325, -4.6986233e-9, -2.8535887e-9, 2.5866516e+2
-0.324, -4.7044546e-9, -2.8465592e-9, 2.5899850e+2
-0.323, -4.7174753e-9, -2.8381715e-9, 2.5933185e+2
-0.322, -4.7310551e-9, -2.8359348e-9, 2.5966519e+2
-0.321, -4.7380846e-9, -2.8187606e-9, 2.5999854e+2
-0.320, -4.7531024e-9, -2.8205975e-9, 2.6033188e+2
-0.319, -4.7930433e-9, -2.8007872e-9, 2.6066522e+2
-0.318, -4.8040665e-9, -2.7999085e-9, 2.6099857e+2
-0.317, -4.8246762e-9, -2.7910416e-9, 2.6133191e+2
-0.316, -4.8488000e-9, -2.7825742e-9, 2.6166525e+2
-0.315, -4.8689301e-9, -2.7691542e-9, 2.6199860e+2
-0.314, -4.9119859e-9, -2.7774618e-9, 2.6233194e+2
-0.313, -4.9398645e-9, -2.7642015e-9, 2.6266528e+2
-0.312, -4.9700599e-9, -2.7599678e-9, 2.6299863e+2
-0.311, -5.0120774e-9, -2.7586897e-9, 2.6333197e+2
-0.310, -5.0684736e-9, -2.7485447e-9, 2.6366531e+2
-0.309, -5.1237512e-9, -2.7408762e-9, 2.6399866e+2
-0.308, -5.1598574e-9, -2.7356839e-9, 2.6433200e+2
-0.307, -5.1739169e-9, -2.7254592e-9, 2.6466534e+2
-0.306, -5.2042717e-9, -2.7245806e-9, 2.6499869e+2
-0.305, -5.2070672e-9, -2.7126783e-9, 2.6533203e+2
-0.304, -5.2254401e-9, -2.7093232e-9, 2.6566537e+2
-0.303, -5.2465285e-9, -2.7015745e-9, 2.6599872e+2
-0.302, -5.2554752e-9, -2.7007758e-9, 2.6633206e+2
-0.301, -5.2775229e-9, -2.6924680e-9, 2.6666541e+2
-0.300, -5.2957358e-9, -2.6868765e-9, 2.6699875e+2
-0.299, -5.3123510e-9, -2.6808855e-9, 2.6733209e+2
-0.298, -5.3244129e-9, -2.6800866e-9, 2.6766544e+2
-0.297, -5.3521316e-9, -2.6713796e-9, 2.6799878e+2
-0.296, -5.3671494e-9, -2.6726577e-9, 2.6833212e+2
-0.295, -5.4026965e-9, -2.6656282e-9, 2.6866547e+2
-0.294, -5.4284182e-9, -2.6707405e-9, 2.6899881e+2
-0.293, -5.5101368e-9, -2.6613944e-9, 2.6933215e+2
-0.292, -5.5531926e-9, -2.6573204e-9, 2.6966550e+2
-0.291, -5.5981659e-9, -2.6502109e-9, 2.6999884e+2
-0.290, -5.6456955e-9, -2.6496518e-9, 2.7033218e+2
-0.289, -5.6563993e-9, -2.6447791e-9, 2.7066553e+2
-0.288, -5.6696599e-9, -2.6427820e-9, 2.7099887e+2
-0.287, -5.6878728e-9, -2.6358324e-9, 2.7133221e+2
-0.286, -5.7000942e-9, -2.6354330e-9, 2.7166556e+2
-0.285, -5.7154317e-9, -2.6299212e-9, 2.7199890e+2
-0.284, -5.7481033e-9, -2.6272851e-9, 2.7233224e+2
-0.283, -5.7561711e-9, -2.6208147e-9, 2.7266559e+2
-0.282, -5.7969105e-9, -2.6129066e-9, 2.7299893e+2
-0.281, -5.8301413e-9, -2.6065958e-9, 2.7333228e+2
-0.280, -5.8642504e-9, -2.5997260e-9, 2.7366562e+2
-0.279, -5.9411760e-9, -2.5890221e-9, 2.7399896e+2
-0.278, -6.0159451e-9, -2.5892615e-9, 2.7433231e+2
-0.277, -6.0625958e-9, -2.5763209e-9, 2.7466565e+2
-0.276, -6.1249028e-9, -2.5720872e-9, 2.7499899e+2
-0.275, -6.1404797e-9, -2.5579483e-9, 2.7533234e+2
-0.274, -6.1793020e-9, -2.5529956e-9, 2.7566568e+2
-0.273, -6.1868111e-9, -2.5380578e-9, 2.7599902e+2
-0.272, -6.2115739e-9, -2.5301496e-9, 2.7633237e+2
-0.271, -6.2630177e-9, -2.5168891e-9, 2.7666571e+2
-0.270, -6.2845058e-9, -2.5097797e-9, 2.7699905e+2
-0.269, -6.3413808e-9, -2.4861349e-9, 2.7733240e+2
-0.268, -6.4256556e-9, -2.4696793e-9, 2.7766574e+2
-0.267, -6.4862058e-9, -2.4461944e-9, 2.7799908e+2
-0.266, -6.5548234e-9, -2.4249458e-9, 2.7833243e+2
-0.265, -6.6021935e-9, -2.3917952e-9, 2.7866577e+2
-0.264, -6.6426127e-9, -2.3654343e-9, 2.7899911e+2
-0.263, -6.6639418e-9, -2.3296476e-9, 2.7933246e+2
-0.262, -6.6767223e-9, -2.2921833e-9, 2.7966580e+2
-0.261, -6.7042016e-9, -2.2627871e-9, 2.7999915e+2
-0.260, -6.7356751e-9, -2.2382634e-9, 2.8033249e+2
-0.259, -6.7767338e-9, -2.2067903e-9, 2.8066583e+2
-0.258, -6.8499850e-9, -2.1924116e-9, 2.8099918e+2
-0.257, -6.9213191e-9, -2.1756366e-9, 2.8133252e+2
-0.256, -6.9929720e-9, -2.1666100e-9, 2.8166586e+2
-0.255, -7.1009718e-9, -2.1575035e-9, 2.8199921e+2
-0.254, -7.1258950e-9, -2.1490363e-9, 2.8233255e+2
-0.253, -7.1566495e-9, -2.1405688e-9, 2.8266589e+2
-0.252, -7.1912378e-9, -2.1332995e-9, 2.8299924e+2
-0.251, -7.2092905e-9, -2.1223558e-9, 2.8333258e+2
-0.250, -7.2491511e-9, -2.1108528e-9, 2.8366592e+2
-0.249, -7.2759914e-9, -2.0971134e-9, 2.8399927e+2
-0.248, -7.3188082e-9, -2.0847317e-9, 2.8433261e+2
-0.247, -7.3533162e-9, -2.0705129e-9, 2.8466595e+2
-0.246, -7.4081155e-9, -2.0561342e-9, 2.8499930e+2
-0.245, -7.5206676e-9, -2.0443918e-9, 2.8533264e+2
-0.244, -7.5506232e-9, -2.0349658e-9, 2.8566599e+2
-0.243, -7.5943989e-9, -2.0152351e-9, 2.8599933e+2
-0.242, -7.6277882e-9, -2.0048505e-9, 2.8633267e+2
-0.241, -7.6417681e-9, -1.9882351e-9, 2.8666602e+2
-0.240, -7.6581435e-9, -1.9691435e-9, 2.8699936e+2
-0.239, -7.6848243e-9, -1.9469366e-9, 2.8733270e+2
-0.238, -7.7116642e-9, -1.9132267e-9, 2.8766605e+2
-0.237, -7.7335516e-9, -1.8985284e-9, 2.8799939e+2
-0.236, -7.7692581e-9, -1.8803954e-9, 2.8833273e+2
-0.235, -7.8024094e-9, -1.8405348e-9, 2.8866608e+2
-0.234, -7.8381159e-9, -1.8305496e-9, 2.8899942e+2
-0.233, -7.8911562e-9, -1.8013131e-9, 2.8933276e+2
-0.232, -7.9619316e-9, -1.7820617e-9, 2.8966611e+2
-0.231, -8.0035498e-9, -1.7573784e-9, 2.8999945e+2
-0.230, -8.0465261e-9, -1.7404436e-9, 2.9033279e+2
-0.229, -8.0733660e-9, -1.7278222e-9, 2.9066614e+2
-0.228, -8.0887830e-9, -1.7207928e-9, 2.9099948e+2
-0.227, -8.1133864e-9, -1.7071331e-9, 2.9133282e+2
-0.226, -8.1293630e-9, -1.6999439e-9, 2.9166617e+2
-0.225, -8.1359133e-9, -1.6891599e-9, 2.9199951e+2
-0.224, -8.1431022e-9, -1.6865237e-9, 2.9233286e+2
-0.223, -8.1644309e-9, -1.6798936e-9, 2.9266620e+2
-0.222, -8.1700220e-9, -1.6783759e-9, 2.9299954e+2
-0.221, -8.1807263e-9, -1.6730238e-9, 2.9333289e+2
-0.220, -8.2150748e-9, -1.6712663e-9, 2.9366623e+2
-0.219, -8.2169125e-9, -1.6670327e-9, 2.9399957e+2
-0.218, -8.2376816e-9, -1.6671924e-9, 2.9433292e+2
-0.217, -8.2734681e-9, -1.6600831e-9, 2.9466626e+2
-0.216, -8.2923206e-9, -1.6629588e-9, 2.9499960e+2
-0.215, -8.3024654e-9, -1.6569676e-9, 2.9533295e+2
-0.214, -8.3464800e-9, -1.6584855e-9, 2.9566629e+2
-0.213, -8.3482368e-9, -1.6524943e-9, 2.9599963e+2
-0.212, -8.3984029e-9, -1.6517755e-9, 2.9633298e+2
-0.211, -8.3988825e-9, -1.6485002e-9, 2.9666632e+2
-0.210, -8.4449736e-9, -1.6482606e-9, 2.9699966e+2
-0.209, -8.4575147e-9, -1.6456245e-9, 2.9733301e+2
-0.208, -8.4741298e-9, -1.6461039e-9, 2.9766635e+2
-0.207, -8.5185441e-9, -1.6397933e-9, 2.9799969e+2
-0.206, -8.5144700e-9, -1.6415507e-9, 2.9833304e+2
-0.205, -8.4846743e-9, -1.6376364e-9, 2.9866638e+2
-0.204, -8.5340410e-9, -1.6317252e-9, 2.9899973e+2
-0.203, -8.5429077e-9, -1.6322844e-9, 2.9933307e+2
-0.202, -8.5718250e-9, -1.6297281e-9, 2.9966641e+2
-0.201, -8.5810914e-9, -1.6261336e-9, 2.9999976e+2
-0.200, -8.5806917e-9, -1.6258139e-9, 3.0033310e+2
-0.199, -8.5909164e-9, -1.6215004e-9, 3.0066644e+2
-0.198, -8.6028988e-9, -1.6201424e-9, 3.0099979e+2
-0.197, -8.6060146e-9, -1.6173466e-9, 3.0133313e+2
-0.196, -8.6143217e-9, -1.6129531e-9, 3.0166647e+2
-0.195, -8.6120053e-9, -1.6128732e-9, 3.0199982e+2
-0.194, -8.6249461e-9, -1.6080804e-9, 3.0233316e+2
-0.193, -8.6240677e-9, -1.6052846e-9, 3.0266650e+2
-0.192, -8.6298195e-9, -1.6067224e-9, 3.0299985e+2
-0.191, -8.6359693e-9, -1.6002519e-9, 3.0333319e+2
-0.190, -8.6378869e-9, -1.6008910e-9, 3.0366653e+2
-0.189, -8.6394039e-9, -1.5958586e-9, 3.0399988e+2
-0.188, -8.6505878e-9, -1.5945006e-9, 3.0433322e+2
-0.187, -8.6413223e-9, -1.5917845e-9, 3.0466656e+2
-0.186, -8.6573779e-9, -1.5883497e-9, 3.0499991e+2
-0.185, -8.6573779e-9, -1.5884295e-9, 3.0533325e+2
-0.184, -8.6672030e-9, -1.5852344e-9, 3.0566660e+2
-0.183, -8.6686409e-9, -1.5795628e-9, 3.0599994e+2
-0.182, -8.6721554e-9, -1.5828379e-9, 3.0633328e+2
-0.181, -8.6823810e-9, -1.5810805e-9, 3.0666663e+2
-0.180, -8.6884517e-9, -1.5786042e-9, 3.0699997e+2
-0.179, -8.6950820e-9, -1.5754889e-9, 3.0733331e+2
-0.178, -8.7172092e-9, -1.5703764e-9, 3.0766666e+2
-0.177, -8.7044274e-9, -1.5723736e-9, 3.0800000e+2
-0.176, -8.7162499e-9, -1.5663824e-9, 3.0833334e+2
-0.175, -8.7323064e-9, -1.5667020e-9, 3.0866669e+2
-0.174, -8.7288718e-9, -1.5659830e-9, 3.0900003e+2
-0.173, -8.7435694e-9, -1.5621486e-9, 3.0933337e+2
-0.172, -8.7579481e-9, -1.5652640e-9, 3.0966672e+2
-0.171, -8.7687324e-9, -1.5576753e-9, 3.1000006e+2
-0.170, -8.7665750e-9, -1.5586339e-9, 3.1033340e+2
-0.169, -8.7782386e-9, -1.5587936e-9, 3.1066675e+2
-0.168, -8.7869454e-9, -1.5551990e-9, 3.1100009e+2
-0.167, -8.7866256e-9, -1.5548794e-9, 3.1133344e+2
-0.166, -8.7987679e-9, -1.5532020e-9, 3.1166678e+2
-0.165, -8.8237702e-9, -1.5504860e-9, 3.1200012e+2
-0.164, -8.8277643e-9, -1.5497671e-9, 3.1233347e+2
-0.163, -8.8528473e-9, -1.5480895e-9, 3.1266681e+2
-0.162, -8.8847196e-9, -1.5440955e-9, 3.1300015e+2
-0.161, -8.8852783e-9, -1.5428173e-9, 3.1333350e+2
-0.160, -8.8989385e-9, -1.5415393e-9, 3.1366684e+2
-0.159, -8.9522194e-9, -1.5420984e-9, 3.1400018e+2
-0.158, -8.9388799e-9, -1.5360274e-9, 3.1433353e+2
-0.157, -8.9585299e-9, -1.5365068e-9, 3.1466687e+2
-0.156, -8.9716305e-9, -1.5362671e-9, 3.1500021e+2
-0.155, -8.9860892e-9, -1.5339506e-9, 3.1533356e+2
-0.154, -8.9844114e-9, -1.5336311e-9, 3.1566690e+2
-0.153, -9.0077368e-9, -1.5279595e-9, 3.1600024e+2
-0.152, -9.0285059e-9, -1.5289180e-9, 3.1633359e+2
-0.151, -9.0483967e-9, -1.5226873e-9, 3.1666693e+2
-0.150, -9.0540677e-9, -1.5235659e-9, 3.1700027e+2
-0.149, -9.0612575e-9, -1.5205305e-9, 3.1733362e+2
-0.148, -9.0869792e-9, -1.5150187e-9, 3.1766696e+2
-0.147, -9.0848227e-9, -1.5151785e-9, 3.1800031e+2
-0.146, -9.1093462e-9, -1.5148589e-9, 3.1833365e+2
-0.145, -9.1085468e-9, -1.5035957e-9, 3.1866699e+2
-0.144, -9.1041539e-9, -1.5095868e-9, 3.1900034e+2
-0.143, -9.1206891e-9, -1.5023176e-9, 3.1933368e+2
-0.142, -9.1316332e-9, -1.5041549e-9, 3.1966702e+2
-0.141, -9.1175734e-9, -1.5023176e-9, 3.2000037e+2
-0.140, -9.1421768e-9, -1.4972051e-9, 3.2033371e+2
-0.139, -9.1414583e-9, -1.4939301e-9, 3.2066705e+2
-0.138, -9.1538404e-9, -1.4960070e-9, 3.2100040e+2
-0.137, -9.1631858e-9, -1.4866608e-9, 3.2133374e+2
-0.136, -9.1666204e-9, -1.4886579e-9, 3.2166708e+2
-0.135, -9.1759667e-9, -1.4845041e-9, 3.2200043e+2
-0.134, -9.1854728e-9, -1.4813887e-9, 3.2233377e+2
-0.133, -9.1928216e-9, -1.4800308e-9, 3.2266711e+2
-0.132, -9.2044843e-9, -1.4718030e-9, 3.2300046e+2
-0.131, -9.2009698e-9, -1.4660515e-9, 3.2333380e+2
-0.130, -9.2237356e-9, -1.4695664e-9, 3.2366714e+2
-0.129, -9.2275698e-9, -1.4642941e-9, 3.2400049e+2
-0.128, -9.2291677e-9, -1.4690870e-9, 3.2433383e+2
-0.127, -9.2631174e-9, -1.4634154e-9, 3.2466718e+2
-0.126, -9.2642356e-9, -1.4596611e-9, 3.2500052e+2
-0.125, -9.2623980e-9, -1.4570249e-9, 3.2533386e+2
-0.124, -9.3026591e-9, -1.4402499e-9, 3.2566721e+2
-0.123, -9.2948307e-9, -1.4521522e-9, 3.2600055e+2
-0.122, -9.3418802e-9, -1.4464007e-9, 3.2633389e+2
-0.121, -9.3751904e-9, -1.4346582e-9, 3.2666724e+2
-0.120, -9.3950812e-9, -1.4350575e-9, 3.2700058e+2
-0.119, -9.4379775e-9, -1.4237943e-9, 3.2733392e+2
-0.118, -9.4353405e-9, -1.4267499e-9, 3.2766727e+2
-0.117, -9.4815125e-9, -1.4197205e-9, 3.2800061e+2
-0.116, -9.5059560e-9, -1.4246730e-9, 3.2833395e+2
-0.115, -9.5161807e-9, -1.4116524e-9, 3.2866730e+2
-0.114, -9.5653876e-9, -1.4116524e-9, 3.2900064e+2
-0.113, -9.5713784e-9, -1.4059010e-9, 3.2933398e+2
-0.112, -9.5820827e-9, -1.4048624e-9, 3.2966733e+2
-0.111, -9.5974997e-9, -1.4060607e-9, 3.3000067e+2
-0.110, -9.6018136e-9, -1.4008684e-9, 3.3033401e+2
-0.109, -9.6133963e-9, -1.3939986e-9, 3.3066736e+2
-0.108, -9.6281747e-9, -1.3902441e-9, 3.3100070e+2
-0.107, -9.6309698e-9, -1.3769839e-9, 3.3133405e+2
-0.106, -9.6535766e-9, -1.3902441e-9, 3.3166739e+2
-0.105, -9.6623634e-9, -1.3790609e-9, 3.3200073e+2
-0.104, -9.6839319e-9, -1.3773035e-9, 3.3233408e+2
-0.103, -9.7243520e-9, -1.3709928e-9, 3.3266742e+2
-0.102, -9.7195585e-9, -1.3742680e-9, 3.3300076e+2
-0.101, -9.7542276e-9, -1.3652415e-9, 3.3333411e+2
-0.100, -9.7817061e-9, -1.3643627e-9, 3.3366745e+2
-0.099, -9.8222861e-9, -1.3666793e-9, 3.3400079e+2
-0.098, -9.9031254e-9, -1.3544574e-9, 3.3433414e+2
-0.097, -9.9141495e-9, -1.3553362e-9, 3.3466748e+2
-0.096, -9.9743005e-9, -1.3514219e-9, 3.3500082e+2
-0.095, -1.0026782e-8, -1.3477474e-9, 3.3533417e+2
-0.094, -1.0054580e-8, -1.3452711e-9, 3.3566751e+2
-0.093, -1.0066323e-8, -1.3427148e-9, 3.3600085e+2
-0.092, -1.0096917e-8, -1.3453509e-9, 3.3633420e+2
-0.091, -1.0097398e-8, -1.3286559e-9, 3.3666754e+2
-0.090, -1.0110657e-8, -1.3269783e-9, 3.3700089e+2
-0.089, -1.0121362e-8, -1.3246617e-9, 3.3733423e+2
-0.088, -1.0158666e-8, -1.3224251e-9, 3.3766757e+2
-0.087, -1.0182551e-8, -1.3232239e-9, 3.3800092e+2
-0.086, -1.0215541e-8, -1.3132387e-9, 3.3833426e+2
-0.085, -1.0267703e-8, -1.3209073e-9, 3.3866760e+2
-0.084, -1.0325778e-8, -1.3137179e-9, 3.3900095e+2
-0.083, -1.0360606e-8, -1.3126795e-9, 3.3933429e+2
-0.082, -1.0444641e-8, -1.3168333e-9, 3.3966763e+2
-0.081, -1.0464132e-8, -1.3074074e-9, 3.4000098e+2
-0.080, -1.0513259e-8, -1.3016559e-9, 3.4033432e+2
-0.079, -1.0541297e-8, -1.3022151e-9, 3.4066766e+2
-0.078, -1.0565661e-8, -1.2994992e-9, 3.4100101e+2
-0.077, -1.0574208e-8, -1.2984607e-9, 3.4133435e+2
-0.076, -1.0595536e-8, -1.2996589e-9, 3.4166769e+2
-0.075, -1.0597534e-8, -1.2836826e-9, 3.4200104e+2
-0.074, -1.0635476e-8, -1.2866382e-9, 3.4233438e+2
-0.073, -1.0657843e-8, -1.2796886e-9, 3.4266772e+2
-0.072, -1.0686521e-8, -1.2756945e-9, 3.4300107e+2
-0.071, -1.0756897e-8, -1.2783306e-9, 3.4333441e+2
-0.070, -1.0823917e-8, -1.2764134e-9, 3.4366776e+2
-0.069, -1.0883988e-8, -1.2752951e-9, 3.4400110e+2
-0.068, -1.0944138e-8, -1.2736177e-9, 3.4433444e+2
-0.067, -1.1012676e-8, -1.2671473e-9, 3.4466779e+2
-0.066, -1.1061883e-8, -1.2632330e-9, 3.4500113e+2
-0.065, -1.1072188e-8, -1.2644312e-9, 3.4533447e+2
-0.064, -1.1093915e-8, -1.2605171e-9, 3.4566782e+2
-0.063, -1.1123471e-8, -1.2617153e-9, 3.4600116e+2
-0.062, -1.1152628e-8, -1.2546059e-9, 3.4633450e+2
-0.061, -1.1170601e-8, -1.2538869e-9, 3.4666785e+2
-0.060, -1.1209742e-8, -1.2562035e-9, 3.4700119e+2
-0.059, -1.1231710e-8, -1.2518899e-9, 3.4733453e+2
-0.058, -1.1301767e-8, -1.2530881e-9, 3.4766788e+2
-0.057, -1.1382047e-8, -1.2438219e-9, 3.4800122e+2
-0.056, -1.1427339e-8, -1.2457391e-9, 3.4833456e+2
-0.055, -1.1481499e-8, -1.2422243e-9, 3.4866791e+2
-0.054, -1.1531345e-8, -1.2449403e-9, 3.4900125e+2
-0.053, -1.1549877e-8, -1.2444610e-9, 3.4933459e+2
-0.052, -1.1573283e-8, -1.2380704e-9, 3.4966794e+2
-0.051, -1.1582949e-8, -1.2319196e-9, 3.5000128e+2
-0.050, -1.1627602e-8, -1.2343160e-9, 3.5033463e+2
-0.049, -1.1643738e-8, -1.2308812e-9, 3.5066797e+2
-0.048, -1.1682241e-8, -1.2348752e-9, 3.5100131e+2
-0.047, -1.1742392e-8, -1.2320793e-9, 3.5133466e+2
-0.046, -1.1805338e-8, -1.2304019e-9, 3.5166800e+2
-0.045, -1.1862612e-8, -1.2289639e-9, 3.5200134e+2
-0.044, -1.1972449e-8, -1.2266475e-9, 3.5233469e+2
-0.043, -1.2002325e-8, -1.2269670e-9, 3.5266803e+2
-0.042, -1.2034038e-8, -1.2256089e-9, 3.5300137e+2
-0.041, -1.2046899e-8, -1.2223339e-9, 3.5333472e+2
-0.040, -1.2066230e-8, -1.2282451e-9, 3.5366806e+2
-0.039, -1.2080209e-8, -1.2185795e-9, 3.5400140e+2
-0.038, -1.2103535e-8, -1.2219344e-9, 3.5433475e+2
-0.037, -1.2155777e-8, -1.2161031e-9, 3.5466809e+2
-0.036, -1.2182058e-8, -1.2125084e-9, 3.5500143e+2
-0.035, -1.2231983e-8, -1.2125084e-9, 3.5533478e+2
-0.034, -1.2308270e-8, -1.2097925e-9, 3.5566812e+2
-0.033, -1.2322170e-8, -1.2108309e-9, 3.5600146e+2
-0.032, -1.2365145e-8, -1.2089139e-9, 3.5633481e+2
-0.031, -1.2433603e-8, -1.2111505e-9, 3.5666815e+2
-0.030, -1.2456929e-8, -1.2070765e-9, 3.5700150e+2
-0.029, -1.2470269e-8, -1.2073961e-9, 3.5733484e+2
-0.028, -1.2513564e-8, -1.2067570e-9, 3.5766818e+2
-0.027, -1.2507734e-8, -1.2017245e-9, 3.5800153e+2
-0.026, -1.2539526e-8, -1.2012452e-9, 3.5833487e+2
-0.025, -1.2535931e-8, -1.2016447e-9, 3.5866821e+2
-0.024, -1.2554783e-8, -1.2002866e-9, 3.5900156e+2
-0.023, -1.2552147e-8, -1.1954937e-9, 3.5933490e+2
-0.022, -1.2568604e-8, -1.1991682e-9, 3.5966824e+2
-0.021, -1.2588014e-8, -1.1998872e-9, 3.6000159e+2
-0.020, -1.2612218e-8, -1.1990086e-9, 3.6033493e+2
-0.019, -1.2621884e-8, -1.1952541e-9, 3.6066827e+2
-0.018, -1.2653996e-8, -1.1942157e-9, 3.6100162e+2
-0.017, -1.2651040e-8, -1.1943754e-9, 3.6133496e+2
-0.016, -1.2680756e-8, -1.1939760e-9, 3.6166830e+2
-0.015, -1.2730682e-8, -1.1922187e-9, 3.6200165e+2
-0.014, -1.2721576e-8, -1.1907009e-9, 3.6233499e+2
-0.013, -1.2742824e-8, -1.1871861e-9, 3.6266833e+2
-0.012, -1.2795305e-8, -1.1895026e-9, 3.6300168e+2
-0.011, -1.2813199e-8, -1.1873459e-9, 3.6333502e+2
-0.010, -1.2838123e-8, -1.1895026e-9, 3.6366837e+2
-0.009, -1.2887488e-8, -1.1855087e-9, 3.6400171e+2
-0.008, -1.2916726e-8, -1.1895825e-9, 3.6433505e+2
-0.007, -1.2905382e-8, -1.1860678e-9, 3.6466840e+2
-0.006, -1.2920959e-8, -1.1842305e-9, 3.6500174e+2
-0.005, -1.2986940e-8, -1.1801565e-9, 3.6533508e+2
-0.004, -1.2978554e-8, -1.1840707e-9, 3.6566843e+2
-0.003, -1.2983106e-8, -1.1779998e-9, 3.6600177e+2
-0.002, -1.3012903e-8, -1.1821536e-9, 3.6633511e+2
-0.001, -1.3012182e-8, -1.1757632e-9, 3.6666846e+2
-0.000, -1.3023207e-8, -1.1759228e-9, 3.6700180e+2
0.001, -1.3031913e-8, -1.1738460e-9, 3.6733514e+2
0.002, -1.3048210e-8, -1.1782394e-9, 3.6766849e+2
0.003, -1.3039184e-8, -1.1747247e-9, 3.6800183e+2
0.004, -1.3062589e-8, -1.1724081e-9, 3.6833517e+2
0.005, -1.3052364e-8, -1.1710501e-9, 3.6866852e+2
0.006, -1.3081600e-8, -1.1757632e-9, 3.6900186e+2
0.007, -1.3084557e-8, -1.1681744e-9, 3.6933521e+2
0.008, -1.3095659e-8, -1.1732868e-9, 3.6966855e+2
0.009, -1.3102609e-8, -1.1671358e-9, 3.7000189e+2
0.010, -1.3116509e-8, -1.1693726e-9, 3.7033524e+2
0.011, -1.3133283e-8, -1.1663371e-9, 3.7066858e+2
0.012, -1.3137916e-8, -1.1660175e-9, 3.7100192e+2
0.013, -1.3146862e-8, -1.1645797e-9, 3.7133527e+2
0.014, -1.3175461e-8, -1.1664170e-9, 3.7166861e+2
0.015, -1.3176179e-8, -1.1631418e-9, 3.7200195e+2
0.016, -1.3195111e-8, -1.1668962e-9, 3.7233530e+2
0.017, -1.3212526e-8, -1.1617041e-9, 3.7266864e+2
0.018, -1.3238328e-8, -1.1644200e-9, 3.7300198e+2
0.019, -1.3255263e-8, -1.1629022e-9, 3.7333533e+2
0.020, -1.3310859e-8, -1.1592276e-9, 3.7366867e+2
0.021, -1.3331549e-8, -1.1567514e-9, 3.7400201e+2
0.022, -1.3354075e-8, -1.1593875e-9, 3.7433536e+2
0.023, -1.3415024e-8, -1.1581892e-9, 3.7466870e+2
0.024, -1.3437791e-8, -1.1559526e-9, 3.7500204e+2
0.025, -1.3466069e-8, -1.1531567e-9, 3.7533539e+2
0.026, -1.3484921e-8, -1.1555531e-9, 3.7566873e+2
0.027, -1.3497861e-8, -1.1507603e-9, 3.7600208e+2
0.028, -1.3514478e-8, -1.1522781e-9, 3.7633542e+2
0.029, -1.3510403e-8, -1.1490029e-9, 3.7666876e+2
0.030, -1.3538121e-8, -1.1528372e-9, 3.7700211e+2
0.031, -1.3533728e-8, -1.1498017e-9, 3.7733545e+2
0.032, -1.3550423e-8, -1.1496419e-9, 3.7766879e+2
0.033, -1.3571273e-8, -1.1483638e-9, 3.7800214e+2
0.034, -1.3588926e-8, -1.1516390e-9, 3.7833548e+2
0.035, -1.3607059e-8, -1.1454082e-9, 3.7866882e+2
0.036, -1.3657225e-8, -1.1478047e-9, 3.7900217e+2
0.037, -1.3654508e-8, -1.1444496e-9, 3.7933551e+2
0.038, -1.3698444e-8, -1.1461271e-9, 3.7966885e+2
0.039, -1.3752203e-8, -1.1417337e-9, 3.8000220e+2
0.040, -1.3784155e-8, -1.1451686e-9, 3.8033554e+2
0.041, -1.3868910e-8, -1.1394171e-9, 3.8066888e+2
0.042, -1.3909411e-8, -1.1450887e-9, 3.8100223e+2
0.043, -1.3965566e-8, -1.1454082e-9, 3.8133557e+2
0.044, -1.3988972e-8, -1.1484437e-9, 3.8166891e+2
0.045, -1.4003830e-8, -1.1487632e-9, 3.8200226e+2
0.046, -1.4030030e-8, -1.1399763e-9, 3.8233560e+2
0.047, -1.4021643e-8, -1.1255178e-9, 3.8266895e+2
0.048, -1.4044249e-8, -1.1331864e-9, 3.8300229e+2
0.049, -1.4067655e-8, -1.1217633e-9, 3.8333563e+2
0.050, -1.4101844e-8, -1.1317485e-9, 3.8366898e+2
0.051, -1.4148895e-8, -1.1267959e-9, 3.8400232e+2
0.052, -1.4204811e-8, -1.1314290e-9, 3.8433566e+2
0.053, -1.4231890e-8, -1.1292722e-9, 3.8466901e+2
0.054, -1.4305380e-8, -1.1276746e-9, 3.8500235e+2
0.055, -1.4387179e-8, -1.1294320e-9, 3.8533569e+2
0.056, -1.4436226e-8, -1.1275149e-9, 3.8566904e+2
0.057, -1.4468738e-8, -1.1266361e-9, 3.8600238e+2
0.058, -1.4494859e-8, -1.1268757e-9, 3.8633572e+2
0.059, -1.4506282e-8, -1.1251184e-9, 3.8666907e+2
0.060, -1.4526733e-8, -1.1247989e-9, 3.8700241e+2
0.061, -1.4555090e-8, -1.1176096e-9, 3.8733575e+2
0.062, -1.4600861e-8, -1.1228817e-9, 3.8766910e+2
0.063, -1.4625785e-8, -1.1206450e-9, 3.8800244e+2
0.064, -1.4693603e-8, -1.1220030e-9, 3.8833578e+2
0.065, -1.4814463e-8, -1.1223225e-9, 3.8866913e+2
0.066, -1.4887714e-8, -1.1168907e-9, 3.8900247e+2
0.067, -1.4930531e-8, -1.1196865e-9, 3.8933582e+2
0.068, -1.4987247e-8, -1.1175296e-9, 3.8966916e+2
0.069, -1.4993716e-8, -1.1118581e-9, 3.9000250e+2
0.070, -1.5036454e-8, -1.1192870e-9, 3.9033585e+2
0.071, -1.5060099e-8, -1.1131362e-9, 3.9066919e+2
0.072, -1.5111542e-8, -1.1148936e-9, 3.9100253e+2
0.073, -1.5144373e-8, -1.1112191e-9, 3.9133588e+2
0.074, -1.5221618e-8, -1.1105001e-9, 3.9166922e+2
0.075, -1.5313402e-8, -1.1086629e-9, 3.9200256e+2
0.076, -1.5399914e-8, -1.1105001e-9, 3.9233591e+2
0.077, -1.5434981e-8, -1.1081037e-9, 3.9266925e+2
0.078, -1.5481952e-8, -1.1053078e-9, 3.9300259e+2
0.079, -1.5489380e-8, -1.1049883e-9, 3.9333594e+2
0.080, -1.5521413e-8, -1.1057871e-9, 3.9366928e+2
0.081, -1.5576051e-8, -1.0987576e-9, 3.9400262e+2
0.082, -1.5616711e-8, -1.1030712e-9, 3.9433597e+2
0.083, -1.5682135e-8, -1.0997960e-9, 3.9466931e+2
0.084, -1.5828396e-8, -1.1030712e-9, 3.9500266e+2
0.085, -1.5861547e-8, -1.1005149e-9, 3.9533600e+2
0.086, -1.5941350e-8, -1.0956422e-9, 3.9566934e+2
0.087, -1.5965313e-8, -1.0894914e-9, 3.9600269e+2
0.088, -1.5986721e-8, -1.0989972e-9, 3.9633603e+2
0.089, -1.6009169e-8, -1.0921274e-9, 3.9666937e+2
0.090, -1.6083057e-8, -1.0940445e-9, 3.9700272e+2
0.091, -1.6159106e-8, -1.0921274e-9, 3.9733606e+2
0.092, -1.6242980e-8, -1.0981186e-9, 3.9766940e+2
0.093, -1.6276610e-8, -1.0903700e-9, 3.9800275e+2
0.094, -1.6396273e-8, -1.0932458e-9, 3.9833609e+2
0.095, -1.6415283e-8, -1.0877339e-9, 3.9866943e+2
0.096, -1.6452908e-8, -1.0906097e-9, 3.9900278e+2
0.097, -1.6478630e-8, -1.0861363e-9, 3.9933612e+2
0.098, -1.6511461e-8, -1.0932458e-9, 3.9966946e+2
0.099, -1.6448036e-8, -1.0848583e-9, 4.0000281e+2
