Dec. 15, 2005   02:42:21
Cyclic Voltammetry
File: d:\ida_biofilms\12_04_18_psoralenbiofilm\psoralen\psoralen_75um_pyo_transfer_gc2.txt
Data Source:  Experiment
Instrument Model:  CHI760B
Header: 
Note: 

Init E (V) = 0.1
High E (V) = 0.1
Low E (V) = -0.5
Init P/N = N
Scan Rate (V/s) = 0.003
Segment = 2
Sample Interval (V) = 0.001
Quiet Time (sec) = 2
Sensitivity (A/V) = 1e-8
2nd E (V) = 0.1
Sens 2 (A/V) = 1e-8

Potential/V, i1/A, i2/A, Time/s

0.100, -2.6796753e-8, -6.4419656e-9, 3.3333334e-1
0.099, -2.4202730e-8, -5.9128964e-9, 6.6666669e-1
0.098, -2.2006139e-8, -5.4609122e-9, 1.0000000e+0
0.097, -2.0151264e-8, -5.0943774e-9, 1.3333334e+0
0.096, -1.8535268e-8, -4.7756270e-9, 1.6666667e+0
0.095, -1.7091599e-8, -4.5097024e-9, 2.0000000e+0
0.094, -1.5824993e-8, -4.2706017e-9, 2.3333333e+0
0.093, -1.4684873e-8, -4.0692849e-9, 2.6666665e+0
0.092, -1.3639827e-8, -3.8941455e-9, 2.9999998e+0
0.091, -1.2732024e-8, -3.7365400e-9, 3.3333330e+0
0.090, -1.1893511e-8, -3.5971310e-9, 3.6666663e+0
0.089, -1.1104253e-8, -3.4670284e-9, 3.9999995e+0
0.088, -1.0402982e-8, -3.3548513e-9, 4.3333330e+0
0.087, -9.7350155e-9, -3.2534182e-9, 4.6666665e+0
0.086, -9.1226138e-9, -3.1571772e-9, 5.0000000e+0
0.085, -8.5444656e-9, -3.0764651e-9, 5.3333335e+0
0.084, -8.0229130e-9, -2.9936122e-9, 5.6666670e+0
0.083, -7.5266353e-9, -2.9213918e-9, 6.0000005e+0
0.082, -7.0535777e-9, -2.8523586e-9, 6.3333340e+0
0.081, -6.6171228e-9, -2.7863607e-9, 6.6666675e+0
0.080, -6.2192265e-9, -2.7253473e-9, 7.0000010e+0
0.079, -5.7947296e-9, -2.6777300e-9, 7.3333344e+0
0.078, -5.4418461e-9, -2.6210862e-9, 7.6666679e+0
0.077, -5.1006257e-9, -2.5737086e-9, 8.0000010e+0
0.076, -4.7498432e-9, -2.5348625e-9, 8.3333340e+0
0.075, -4.4478203e-9, -2.4911355e-9, 8.6666670e+0
0.074, -4.1403334e-9, -2.4523852e-9, 9.0000000e+0
0.073, -3.8344119e-9, -2.4209839e-9, 9.3333330e+0
0.072, -3.5744867e-9, -2.3881206e-9, 9.6666660e+0
0.071, -3.2826886e-9, -2.3584608e-9, 9.9999990e+0
0.070, -3.0590928e-9, -2.3418214e-9, 1.0333332e+1
0.069, -2.8123877e-9, -2.3135673e-9, 1.0666665e+1
0.068, -2.5641007e-9, -2.2793063e-9, 1.0999998e+1
0.067, -2.3508180e-9, -2.2737705e-9, 1.1333331e+1
0.066, -2.1598776e-9, -2.2078286e-9, 1.1666664e+1
0.065, -1.8955586e-9, -2.1671371e-9, 1.1999997e+1
0.064, -1.6482703e-9, -2.1049416e-9, 1.2333330e+1
0.063, -1.4135313e-9, -2.1366704e-9, 1.2666663e+1
0.062, -1.3082559e-9, -2.1038233e-9, 1.2999996e+1
0.061, -1.1257433e-9, -2.1069706e-9, 1.3333329e+1
0.060, -9.3981156e-10, -2.0873359e-9, 1.3666662e+1
0.059, -7.7844359e-10, -2.0604158e-9, 1.3999995e+1
0.058, -6.1898464e-10, -2.0476350e-9, 1.4333328e+1
0.057, -4.4882961e-10, -2.0216813e-9, 1.4666661e+1
0.056, -2.9290939e-10, -2.0092759e-9, 1.4999994e+1
0.055, -1.3409752e-10, -2.0014155e-9, 1.5333327e+1
0.054, 1.1190475e-11, -1.9543096e-9, 1.5666660e+1
0.053, 1.3538982e-10, -1.9569457e-9, 1.5999993e+1
0.052, 3.0179842e-10, -1.8948141e-9, 1.6333326e+1
0.051, 3.7052023e-10, -1.9732174e-9, 1.6666660e+1
0.050, 6.0566663e-10, -1.8521495e-9, 1.6999994e+1
0.049, 6.1083494e-10, -1.9822279e-9, 1.7333328e+1
0.048, 7.6248952e-10, -1.8979693e-9, 1.7666662e+1
0.047, 9.2079011e-10, -1.8941351e-9, 1.7999996e+1
0.046, 1.0344772e-9, -1.8775517e-9, 1.8333330e+1
0.045, 1.1384824e-9, -1.8632929e-9, 1.8666664e+1
0.044, 1.2726590e-9, -1.8532679e-9, 1.8999998e+1
0.043, 1.3653053e-9, -1.8390169e-9, 1.9333332e+1
0.042, 1.4826348e-9, -1.8147890e-9, 1.9666666e+1
0.041, 1.5581785e-9, -1.8315960e-9, 2.0000000e+1
0.040, 1.6665853e-9, -1.8104515e-9, 2.0333334e+1
0.039, 1.7620034e-9, -1.8081030e-9, 2.0666668e+1
0.038, 1.8626858e-9, -1.7912639e-9, 2.1000002e+1
0.037, 1.9696469e-9, -1.7942355e-9, 2.1333336e+1
0.036, 2.0378175e-9, -1.7487991e-9, 2.1666670e+1
0.035, 2.1611779e-9, -1.7787386e-9, 2.2000004e+1
0.034, 2.2432161e-9, -1.7631937e-9, 2.2333338e+1
0.033, 2.2753923e-9, -1.7070372e-9, 2.2666672e+1
0.032, 2.2742019e-9, -1.7582251e-9, 2.3000006e+1
0.031, 2.5094842e-9, -1.7127967e-9, 2.3333340e+1
0.030, 2.5700420e-9, -1.7597508e-9, 2.3666674e+1
0.029, 2.6466083e-9, -1.7353311e-9, 2.4000008e+1
0.028, 2.7523392e-9, -1.7340132e-9, 2.4333342e+1
0.027, 2.7877984e-9, -1.7192431e-9, 2.4666676e+1
0.026, 2.8876979e-9, -1.7065740e-9, 2.5000010e+1
0.025, 2.9584408e-9, -1.7005988e-9, 2.5333344e+1
0.024, 3.0177045e-9, -1.6939128e-9, 2.5666677e+1
0.023, 3.0928808e-9, -1.6777287e-9, 2.6000011e+1
0.022, 3.1681688e-9, -1.6775690e-9, 2.6333345e+1
0.021, 3.2323133e-9, -1.6712505e-9, 2.6666679e+1
0.020, 3.2908667e-9, -1.6371011e-9, 2.7000013e+1
0.019, 3.3489960e-9, -1.6584055e-9, 2.7333347e+1
0.018, 3.4386947e-9, -1.6042380e-9, 2.7666681e+1
0.017, 3.4592240e-9, -1.6543076e-9, 2.8000015e+1
0.016, 3.5461509e-9, -1.6213247e-9, 2.8333349e+1
0.015, 3.7375067e-9, -1.6714580e-9, 2.8666683e+1
0.014, 3.6373993e-9, -1.7240919e-9, 2.9000017e+1
0.013, 3.6564112e-9, -1.6277472e-9, 2.9333351e+1
0.012, 3.7943022e-9, -1.6303993e-9, 2.9666685e+1
0.011, 3.8359280e-9, -1.6216761e-9, 3.0000019e+1
0.010, 3.8901673e-9, -1.6184968e-9, 3.0333353e+1
0.009, 3.9533217e-9, -1.6134323e-9, 3.0666687e+1
0.008, 3.9994372e-9, -1.6053325e-9, 3.1000021e+1
0.007, 4.0580139e-9, -1.6079126e-9, 3.1333355e+1
0.006, 4.1014294e-9, -1.5972165e-9, 3.1666689e+1
0.005, 4.1641122e-9, -1.5835647e-9, 3.2000023e+1
0.004, 4.2280575e-9, -1.5861370e-9, 3.2333355e+1
0.003, 4.2379704e-9, -1.5906262e-9, 3.2666687e+1
0.002, 4.3233794e-9, -1.5338547e-9, 3.3000019e+1
0.001, 4.3835859e-9, -1.5838124e-9, 3.3333351e+1
-0.000, 4.4275525e-9, -1.5646808e-9, 3.3666683e+1
-0.001, 4.4192450e-9, -1.5063356e-9, 3.4000015e+1
-0.002, 4.4178150e-9, -1.6265009e-9, 3.4333347e+1
-0.003, 4.5278914e-9, -1.5503262e-9, 3.4666679e+1
-0.004, 4.6309783e-9, -1.5414273e-9, 3.5000011e+1
-0.005, 4.5860289e-9, -1.5578909e-9, 3.5333344e+1
-0.006, 4.7013295e-9, -1.5370020e-9, 3.5666676e+1
-0.007, 4.7172977e-9, -1.5518200e-9, 3.6000008e+1
-0.008, 4.7764499e-9, -1.5286465e-9, 3.6333340e+1
-0.009, 4.8196096e-9, -1.5505898e-9, 3.6666672e+1
-0.010, 4.8664681e-9, -1.5469871e-9, 3.7000004e+1
-0.011, 4.9141571e-9, -1.5316819e-9, 3.7333336e+1
-0.012, 4.9549604e-9, -1.5333115e-9, 3.7666668e+1
-0.013, 5.0069793e-9, -1.5272724e-9, 3.8000000e+1
-0.014, 5.0498992e-9, -1.5200032e-9, 3.8333332e+1
-0.015, 5.0856621e-9, -1.5105612e-9, 3.8666664e+1
-0.016, 5.1158096e-9, -1.5194361e-9, 3.8999996e+1
-0.017, 5.1736517e-9, -1.5103296e-9, 3.9333328e+1
-0.018, 5.2133684e-9, -1.5049456e-9, 3.9666660e+1
-0.019, 5.2562488e-9, -1.5092831e-9, 3.9999992e+1
-0.020, 5.3032188e-9, -1.5049536e-9, 4.0333324e+1
-0.021, 5.3452998e-9, -1.5044823e-9, 4.0666656e+1
-0.022, 5.3888196e-9, -1.5003684e-9, 4.0999989e+1
-0.023, 5.4317710e-9, -1.4956155e-9, 4.1333321e+1
-0.024, 5.4576050e-9, -1.4943614e-9, 4.1666653e+1
-0.025, 5.5043272e-9, -1.4896564e-9, 4.1999985e+1
-0.026, 5.5599649e-9, -1.4845439e-9, 4.2333317e+1
-0.027, 5.5909433e-9, -1.4902795e-9, 4.2666649e+1
-0.028, 5.6307079e-9, -1.4765877e-9, 4.2999981e+1
-0.029, 5.6818954e-9, -1.4767076e-9, 4.3333313e+1
-0.030, 5.7199991e-9, -1.4642142e-9, 4.3666645e+1
-0.031, 5.7767622e-9, -1.4735844e-9, 4.3999977e+1
-0.032, 5.8212328e-9, -1.4586545e-9, 4.4333309e+1
-0.033, 5.8436069e-9, -1.4640865e-9, 4.4666641e+1
-0.034, 5.9546981e-9, -1.4493564e-9, 4.4999973e+1
-0.035, 5.9155720e-9, -1.4659636e-9, 4.5333305e+1
-0.036, 6.0397638e-9, -1.4721944e-9, 4.5666637e+1
-0.037, 5.9677667e-9, -1.3851318e-9, 4.5999969e+1
-0.038, 6.0613479e-9, -1.5512128e-9, 4.6333302e+1
-0.039, 6.0811902e-9, -1.4499554e-9, 4.6666634e+1
-0.040, 6.1381216e-9, -1.4601083e-9, 4.6999966e+1
-0.041, 6.1649854e-9, -1.4578557e-9, 4.7333298e+1
-0.042, 6.2248562e-9, -1.4495320e-9, 4.7666630e+1
-0.043, 6.2737118e-9, -1.4457298e-9, 4.7999962e+1
-0.044, 6.2993140e-9, -1.4481502e-9, 4.8333294e+1
-0.045, 6.3389427e-9, -1.4418076e-9, 4.8666626e+1
-0.046, 6.4033032e-9, -1.4400582e-9, 4.8999958e+1
-0.047, 6.4226664e-9, -1.4306561e-9, 4.9333290e+1
-0.048, 6.4625989e-9, -1.4344265e-9, 4.9666622e+1
-0.049, 6.5246186e-9, -1.4327650e-9, 4.9999954e+1
-0.050, 6.5331824e-9, -1.4266940e-9, 5.0333286e+1
-0.051, 6.5800321e-9, -1.4295778e-9, 5.0666618e+1
-0.052, 6.6294552e-9, -1.4273330e-9, 5.0999950e+1
-0.053, 6.6493775e-9, -1.4273090e-9, 5.1333282e+1
-0.054, 6.7052706e-9, -1.4219091e-9, 5.1666615e+1
-0.055, 6.7325656e-9, -1.4228757e-9, 5.1999947e+1
-0.056, 6.7784569e-9, -1.4117563e-9, 5.2333279e+1
-0.057, 6.7933317e-9, -1.4221008e-9, 5.2666611e+1
-0.058, 6.8666623e-9, -1.3660482e-9, 5.2999943e+1
-0.059, 6.8838686e-9, -1.4246730e-9, 5.3333275e+1
-0.060, 6.9515282e-9, -1.4044550e-9, 5.3666607e+1
-0.061, 6.8914652e-9, -1.3536027e-9, 5.3999939e+1
-0.062, 6.9009793e-9, -1.4479343e-9, 5.4333271e+1
-0.063, 7.0383428e-9, -1.4228997e-9, 5.4666603e+1
-0.064, 7.0541275e-9, -1.3830308e-9, 5.4999935e+1
-0.065, 7.0467383e-9, -1.4053337e-9, 5.5333267e+1
-0.066, 7.1158754e-9, -1.4059888e-9, 5.5666599e+1
-0.067, 7.1488504e-9, -1.4028734e-9, 5.5999931e+1
-0.068, 7.1698913e-9, -1.4053337e-9, 5.6333263e+1
-0.069, 7.2039210e-9, -1.3975213e-9, 5.6666595e+1
-0.070, 7.2600375e-9, -1.3910989e-9, 5.6999928e+1
-0.071, 7.2651498e-9, -1.4026977e-9, 5.7333260e+1
-0.072, 7.3171527e-9, -1.3775671e-9, 5.7666592e+1
-0.073, 7.3216335e-9, -1.3849720e-9, 5.7999924e+1
-0.074, 7.3561108e-9, -1.3946296e-9, 5.8333256e+1
-0.075, 7.4032647e-9, -1.3558313e-9, 5.8666588e+1
-0.076, 7.4123312e-9, -1.3816889e-9, 5.8999920e+1
-0.077, 7.4184818e-9, -1.3489057e-9, 5.9333252e+1
-0.078, 7.5376967e-9, -1.4066358e-9, 5.9666584e+1
-0.079, 7.4923880e-9, -1.3564545e-9, 5.9999916e+1
-0.080, 7.5295805e-9, -1.2729466e-9, 6.0333248e+1
-0.081, 7.5109288e-9, -1.4170283e-9, 6.0666580e+1
-0.082, 7.4945206e-9, -1.4024660e-9, 6.0999912e+1
-0.083, 7.6074649e-9, -1.3893336e-9, 6.1333244e+1
-0.084, 7.6367090e-9, -1.3819125e-9, 6.1666576e+1
-0.085, 7.6571354e-9, -1.3757377e-9, 6.1999908e+1
-0.086, 7.6595237e-9, -1.3735969e-9, 6.2333241e+1
-0.087, 7.7037932e-9, -1.3699863e-9, 6.2666573e+1
-0.088, 7.7155837e-9, -1.3659923e-9, 6.2999905e+1
-0.089, 7.7499411e-9, -1.3742439e-9, 6.3333237e+1
-0.090, 7.7609004e-9, -1.3644665e-9, 6.3666569e+1
-0.091, 7.7961682e-9, -1.3664875e-9, 6.3999901e+1
-0.092, 7.8106668e-9, -1.3654570e-9, 6.4333237e+1
-0.093, 7.8314999e-9, -1.3691636e-9, 6.4666573e+1
-0.094, 7.8575733e-9, -1.3674222e-9, 6.4999908e+1
-0.095, 7.8862508e-9, -1.3639473e-9, 6.5333244e+1
-0.096, 7.8989197e-9, -1.3618624e-9, 6.5666580e+1
-0.097, 7.9302493e-9, -1.3642668e-9, 6.5999916e+1
-0.098, 7.9376941e-9, -1.3606721e-9, 6.6333252e+1
-0.099, 7.9529512e-9, -1.3582757e-9, 6.6666588e+1
-0.100, 7.9965661e-9, -1.3607681e-9, 6.6999924e+1
-0.101, 8.0008800e-9, -1.3609118e-9, 6.7333260e+1
-0.102, 8.0435205e-9, -1.3577405e-9, 6.7666595e+1
-0.103, 8.0497990e-9, -1.3582118e-9, 6.7999931e+1
-0.104, 8.0571958e-9, -1.3533631e-9, 6.8333267e+1
-0.105, 8.0969365e-9, -1.3584276e-9, 6.8666603e+1
-0.106, 8.1017379e-9, -1.3526520e-9, 6.8999939e+1
-0.107, 8.1179783e-9, -1.3549126e-9, 6.9333275e+1
-0.108, 8.1433882e-9, -1.3540341e-9, 6.9666611e+1
-0.109, 8.1486444e-9, -1.3503835e-9, 6.9999947e+1
-0.110, 8.1907814e-9, -1.3513499e-9, 7.0333282e+1
-0.111, 8.1982270e-9, -1.3533710e-9, 7.0666618e+1
-0.112, 8.1956939e-9, -1.3525322e-9, 7.0999954e+1
-0.113, 8.2264568e-9, -1.3487779e-9, 7.1333290e+1
-0.114, 8.2392138e-9, -1.3478831e-9, 7.1666626e+1
-0.115, 8.2532088e-9, -1.3476914e-9, 7.1999962e+1
-0.116, 8.2791702e-9, -1.3490096e-9, 7.2333298e+1
-0.117, 8.2919112e-9, -1.3466690e-9, 7.2666634e+1
-0.118, 8.2973433e-9, -1.3526760e-9, 7.2999969e+1
-0.119, 8.3213632e-9, -1.3447597e-9, 7.3333305e+1
-0.120, 8.3191107e-9, -1.3461098e-9, 7.3666641e+1
-0.121, 8.3498088e-9, -1.3452631e-9, 7.3999977e+1
-0.122, 8.3682936e-9, -1.3413489e-9, 7.4333313e+1
-0.123, 8.3845260e-9, -1.3443444e-9, 7.4666649e+1
-0.124, 8.3818659e-9, -1.3436096e-9, 7.4999985e+1
-0.125, 8.4087777e-9, -1.3410373e-9, 7.5333321e+1
-0.126, 8.4404661e-9, -1.3391681e-9, 7.5666656e+1
-0.127, 8.4475120e-9, -1.3454787e-9, 7.5999992e+1
-0.128, 8.4507707e-9, -1.3438332e-9, 7.6333328e+1
-0.129, 8.4931644e-9, -1.3433459e-9, 7.6666664e+1
-0.130, 8.4892573e-9, -1.3434976e-9, 7.7000000e+1
-0.131, 8.4986045e-9, -1.3412930e-9, 7.7333336e+1
-0.132, 8.5364755e-9, -1.3428266e-9, 7.7666672e+1
-0.133, 8.5199723e-9, -1.3377303e-9, 7.8000008e+1
-0.134, 8.5443199e-9, -1.3415086e-9, 7.8333344e+1
-0.135, 8.5562784e-9, -1.3409973e-9, 7.8666679e+1
-0.136, 8.5554710e-9, -1.3421397e-9, 7.9000015e+1
-0.137, 8.5904190e-9, -1.3375945e-9, 7.9333351e+1
-0.138, 8.5853067e-9, -1.3399589e-9, 7.9666687e+1
-0.139, 8.6032488e-9, -1.3375865e-9, 8.0000023e+1
-0.140, 8.6023615e-9, -1.3382015e-9, 8.0333359e+1
-0.141, 8.6209422e-9, -1.3345990e-9, 8.0666695e+1
-0.142, 8.6374774e-9, -1.3385929e-9, 8.1000031e+1
-0.143, 8.6483016e-9, -1.3371073e-9, 8.1333366e+1
-0.144, 8.6460004e-9, -1.3351581e-9, 8.1666702e+1
-0.145, 8.6890166e-9, -1.3404383e-9, 8.2000038e+1
-0.146, 8.6875627e-9, -1.3374267e-9, 8.2333374e+1
-0.147, 8.6999767e-9, -1.3390165e-9, 8.2666710e+1
-0.148, 8.7311216e-9, -1.3393200e-9, 8.3000046e+1
-0.149, 8.7331591e-9, -1.3357652e-9, 8.3333382e+1
-0.150, 8.7330951e-9, -1.3362925e-9, 8.3666718e+1
-0.151, 8.7492396e-9, -1.3369794e-9, 8.4000053e+1
-0.152, 8.7425374e-9, -1.3413169e-9, 8.4333389e+1
-0.153, 8.7600878e-9, -1.3343194e-9, 8.4666725e+1
-0.154, 8.7771417e-9, -1.3353817e-9, 8.5000061e+1
-0.155, 8.7929664e-9, -1.3375546e-9, 8.5333397e+1
-0.156, 8.7877341e-9, -1.3378102e-9, 8.5666733e+1
-0.157, 8.7999554e-9, -1.3388726e-9, 8.6000069e+1
-0.158, 8.8278505e-9, -1.3348146e-9, 8.6333405e+1
-0.159, 8.8374046e-9, -1.3362764e-9, 8.6666740e+1
-0.160, 8.8312939e-9, -1.3351421e-9, 8.7000076e+1
-0.161, 8.8720808e-9, -1.3393677e-9, 8.7333412e+1
-0.162, 8.8692369e-9, -1.3382415e-9, 8.7666748e+1
-0.163, 8.8741334e-9, -1.3356614e-9, 8.8000084e+1
-0.164, 8.8966203e-9, -1.3363484e-9, 8.8333420e+1
-0.165, 8.8996162e-9, -1.3377144e-9, 8.8666756e+1
-0.166, 8.9030188e-9, -1.3405181e-9, 8.9000092e+1
-0.167, 8.9294669e-9, -1.3349344e-9, 8.9333427e+1
-0.168, 8.9148964e-9, -1.3393519e-9, 8.9666763e+1
-0.169, 8.9401233e-9, -1.3403584e-9, 9.0000099e+1
-0.170, 8.9348831e-9, -1.3395755e-9, 9.0333435e+1
-0.171, 8.9647587e-9, -1.3342794e-9, 9.0666771e+1
-0.172, 8.9740730e-9, -1.3380098e-9, 9.1000107e+1
-0.173, 8.9819574e-9, -1.3345590e-9, 9.1333443e+1
-0.174, 9.0076950e-9, -1.3370434e-9, 9.1666779e+1
-0.175, 9.0295105e-9, -1.3323702e-9, 9.2000114e+1
-0.176, 9.0114973e-9, -1.3344631e-9, 9.2333450e+1
-0.177, 9.0540739e-9, -1.3338161e-9, 9.2666786e+1
-0.178, 9.0429939e-9, -1.3348226e-9, 9.3000122e+1
-0.179, 9.0692600e-9, -1.3343432e-9, 9.3333458e+1
-0.180, 9.0887591e-9, -1.3348626e-9, 9.3666794e+1
-0.181, 9.0895815e-9, -1.3360127e-9, 9.4000130e+1
-0.182, 9.1025294e-9, -1.3353817e-9, 9.4333466e+1
-0.183, 9.1304884e-9, -1.3341835e-9, 9.4666801e+1
-0.184, 9.1397547e-9, -1.3308765e-9, 9.5000137e+1
-0.185, 9.1731849e-9, -1.3362205e-9, 9.5333473e+1
-0.186, 9.1762367e-9, -1.3365561e-9, 9.5666809e+1
-0.187, 9.1887378e-9, -1.3364762e-9, 9.6000145e+1
-0.188, 9.2105852e-9, -1.3353738e-9, 9.6333481e+1
-0.189, 9.2297725e-9, -1.3343432e-9, 9.6666817e+1
-0.190, 9.2612940e-9, -1.3383853e-9, 9.7000153e+1
-0.191, 9.2789474e-9, -1.3348785e-9, 9.7333488e+1
-0.192, 9.2764791e-9, -1.3348785e-9, 9.7666824e+1
-0.193, 9.3209973e-9, -1.3401427e-9, 9.8000160e+1
-0.194, 9.3251034e-9, -1.3335923e-9, 9.8333496e+1
-0.195, 9.3460324e-9, -1.3351661e-9, 9.8666832e+1
-0.196, 9.3748298e-9, -1.3357413e-9, 9.9000168e+1
-0.197, 9.3798782e-9, -1.3386090e-9, 9.9333504e+1
-0.198, 9.4094821e-9, -1.3337602e-9, 9.9666840e+1
-0.199, 9.4307140e-9, -1.3315554e-9, 1.0000018e+2
-0.200, 9.4443662e-9, -1.3288075e-9, 1.0033351e+2
-0.201, 9.4755359e-9, -1.3349184e-9, 1.0066685e+2
-0.202, 9.4776764e-9, -1.3332569e-9, 1.0100018e+2
-0.203, 9.5222177e-9, -1.3328496e-9, 1.0133352e+2
-0.204, 9.4837471e-9, -1.3321146e-9, 1.0166685e+2
-0.205, 9.5407025e-9, -1.3379858e-9, 1.0200019e+2
-0.206, 9.5753876e-9, -1.3382815e-9, 1.0233353e+2
-0.207, 9.6141459e-9, -1.3397273e-9, 1.0266686e+2
-0.208, 9.6181552e-9, -1.3375306e-9, 1.0300020e+2
-0.209, 9.6715080e-9, -1.3420758e-9, 1.0333353e+2
-0.210, 9.6715560e-9, -1.3415407e-9, 1.0366687e+2
-0.211, 9.7173283e-9, -1.3439290e-9, 1.0400021e+2
-0.212, 9.7529469e-9, -1.3427867e-9, 1.0433354e+2
-0.213, 9.7680291e-9, -1.3416205e-9, 1.0466688e+2
-0.214, 9.7945012e-9, -1.3495927e-9, 1.0500021e+2
-0.215, 9.8376534e-9, -1.3487779e-9, 1.0533355e+2
-0.216, 9.8515445e-9, -1.3467648e-9, 1.0566689e+2
-0.217, 9.8832018e-9, -1.3478433e-9, 1.0600022e+2
-0.218, 9.9147064e-9, -1.3507589e-9, 1.0633356e+2
-0.219, 9.9614130e-9, -1.3503276e-9, 1.0666689e+2
-0.220, 9.9760236e-9, -1.3520131e-9, 1.0700023e+2
-0.221, 1.0021555e-8, -1.3578203e-9, 1.0733356e+2
-0.222, 1.0064005e-8, -1.3612473e-9, 1.0766690e+2
-0.223, 1.0096836e-8, -1.3611434e-9, 1.0800024e+2
-0.224, 1.0119338e-8, -1.3690756e-9, 1.0833357e+2
-0.225, 1.0178091e-8, -1.3688121e-9, 1.0866691e+2
-0.226, 1.0182844e-8, -1.3704896e-9, 1.0900024e+2
-0.227, 1.0235533e-8, -1.3706013e-9, 1.0933358e+2
-0.228, 1.0286474e-8, -1.3796919e-9, 1.0966692e+2
-0.229, 1.0316893e-8, -1.3838297e-9, 1.1000025e+2
-0.230, 1.0353262e-8, -1.3865776e-9, 1.1033359e+2
-0.231, 1.0404762e-8, -1.3977290e-9, 1.1066692e+2
-0.232, 1.0439511e-8, -1.3985280e-9, 1.1100026e+2
-0.233, 1.0483477e-8, -1.4032328e-9, 1.1133360e+2
-0.234, 1.0512154e-8, -1.4112129e-9, 1.1166693e+2
-0.235, 1.0561441e-8, -1.4156064e-9, 1.1200027e+2
-0.236, 1.0606095e-8, -1.4221407e-9, 1.1233360e+2
-0.237, 1.0650573e-8, -1.4277485e-9, 1.1266694e+2
-0.238, 1.0696920e-8, -1.4359682e-9, 1.1300027e+2
-0.239, 1.0750456e-8, -1.4450746e-9, 1.1333361e+2
-0.240, 1.0788903e-8, -1.4556589e-9, 1.1366695e+2
-0.241, 1.0851633e-8, -1.4673376e-9, 1.1400028e+2
-0.242, 1.0891447e-8, -1.4712117e-9, 1.1433362e+2
-0.243, 1.0943880e-8, -1.4741194e-9, 1.1466695e+2
-0.244, 1.0988973e-8, -1.4952480e-9, 1.1500029e+2
-0.245, 1.1045474e-8, -1.5011273e-9, 1.1533363e+2
-0.246, 1.1081045e-8, -1.5096427e-9, 1.1566696e+2
-0.247, 1.1143319e-8, -1.5231426e-9, 1.1600030e+2
-0.248, 1.1174953e-8, -1.5286225e-9, 1.1633363e+2
-0.249, 1.1249409e-8, -1.5435763e-9, 1.1666697e+2
-0.250, 1.1268406e-8, -1.5552549e-9, 1.1700031e+2
-0.251, 1.1339301e-8, -1.5700409e-9, 1.1733364e+2
-0.252, 1.1383658e-8, -1.5821987e-9, 1.1766698e+2
-0.253, 1.1438018e-8, -1.5973203e-9, 1.1800031e+2
-0.254, 1.1486211e-8, -1.6095342e-9, 1.1833365e+2
-0.255, 1.1539683e-8, -1.6229382e-9, 1.1866698e+2
-0.256, 1.1580359e-8, -1.6337941e-9, 1.1900032e+2
-0.257, 1.1663946e-8, -1.6501298e-9, 1.1933366e+2
-0.258, 1.1691752e-8, -1.6650357e-9, 1.1966699e+2
-0.259, 1.1729145e-8, -1.6798536e-9, 1.2000033e+2
-0.260, 1.1800263e-8, -1.6949272e-9, 1.2033366e+2
-0.261, 1.1835676e-8, -1.7112229e-9, 1.2066700e+2
-0.262, 1.1906089e-8, -1.7294999e-9, 1.2100034e+2
-0.263, 1.1953292e-8, -1.7442540e-9, 1.2133367e+2
-0.264, 1.1987457e-8, -1.7565795e-9, 1.2166701e+2
-0.265, 1.2027973e-8, -1.7720925e-9, 1.2200034e+2
-0.266, 1.2070157e-8, -1.7906250e-9, 1.2233368e+2
-0.267, 1.2119405e-8, -1.8022875e-9, 1.2266702e+2
-0.268, 1.2157413e-8, -1.8164027e-9, 1.2300035e+2
-0.269, 1.2199405e-8, -1.8322910e-9, 1.2333369e+2
-0.270, 1.2259796e-8, -1.8490660e-9, 1.2366702e+2
-0.271, 1.2286564e-8, -1.8637643e-9, 1.2400036e+2
-0.272, 1.2314571e-8, -1.8753950e-9, 1.2433369e+2
-0.273, 1.2363554e-8, -1.8970985e-9, 1.2466703e+2
-0.274, 1.2410037e-8, -1.9073954e-9, 1.2500037e+2
-0.275, 1.2449794e-8, -1.9242583e-9, 1.2533370e+2
-0.276, 1.2484135e-8, -1.9366317e-9, 1.2566704e+2
-0.277, 1.2516694e-8, -1.9523685e-9, 1.2600037e+2
-0.278, 1.2556508e-8, -1.9660282e-9, 1.2633371e+2
-0.279, 1.2593245e-8, -1.9756459e-9, 1.2666705e+2
-0.280, 1.2618463e-8, -1.9940025e-9, 1.2700038e+2
-0.281, 1.2659035e-8, -2.0018949e-9, 1.2733372e+2
-0.282, 1.2687289e-8, -2.0197564e-9, 1.2766705e+2
-0.283, 1.2715582e-8, -2.0293101e-9, 1.2800038e+2
-0.284, 1.2752375e-8, -2.0404536e-9, 1.2833371e+2
-0.285, 1.2792843e-8, -2.0512454e-9, 1.2866704e+2
-0.286, 1.2826137e-8, -2.0627564e-9, 1.2900037e+2
-0.287, 1.2852340e-8, -2.0757849e-9, 1.2933369e+2
-0.288, 1.2858522e-8, -2.0836692e-9, 1.2966702e+2
-0.289, 1.2929441e-8, -2.0986310e-9, 1.3000035e+2
-0.290, 1.2930399e-8, -2.1059801e-9, 1.3033368e+2
-0.291, 1.2965402e-8, -2.1184177e-9, 1.3066701e+2
-0.292, 1.2994735e-8, -2.1286344e-9, 1.3100034e+2
-0.293, 1.3019978e-8, -2.1372295e-9, 1.3133366e+2
-0.294, 1.3047609e-8, -2.1487405e-9, 1.3166699e+2
-0.295, 1.3071445e-8, -2.1573356e-9, 1.3200032e+2
-0.296, 1.3090801e-8, -2.1666340e-9, 1.3233365e+2
-0.297, 1.3131372e-8, -2.1733040e-9, 1.3266698e+2
-0.298, 1.3136685e-8, -2.1837685e-9, 1.3300031e+2
-0.299, 1.3163660e-8, -2.1954951e-9, 1.3333363e+2
-0.300, 1.3197186e-8, -2.1983628e-9, 1.3366696e+2
-0.301, 1.3214369e-8, -2.2039304e-9, 1.3400029e+2
-0.302, 1.3245323e-8, -2.2169191e-9, 1.3433362e+2
-0.303, 1.3271189e-8, -2.2267126e-9, 1.3466695e+2
-0.304, 1.3284249e-8, -2.2304032e-9, 1.3500027e+2
-0.305, 1.3323000e-8, -2.2386788e-9, 1.3533360e+2
-0.306, 1.3340661e-8, -2.2483684e-9, 1.3566693e+2
-0.307, 1.3379939e-8, -2.2543594e-9, 1.3600026e+2
-0.308, 1.3402825e-8, -2.2591125e-9, 1.3633359e+2
-0.309, 1.3417987e-8, -2.2683786e-9, 1.3666692e+2
-0.310, 1.3440018e-8, -2.2777007e-9, 1.3700024e+2
-0.311, 1.3457919e-8, -2.2864000e-9, 1.3733357e+2
-0.312, 1.3468343e-8, -2.2835083e-9, 1.3766690e+2
-0.313, 1.3513620e-8, -2.2899227e-9, 1.3800023e+2
-0.314, 1.3522374e-8, -2.2989810e-9, 1.3833356e+2
-0.315, 1.3552059e-8, -2.3063143e-9, 1.3866689e+2
-0.316, 1.3576207e-8, -2.3090223e-9, 1.3900021e+2
-0.317, 1.3581623e-8, -2.3158280e-9, 1.3933354e+2
-0.318, 1.3623120e-8, -2.3239999e-9, 1.3966687e+2
-0.319, 1.3630597e-8, -2.3289366e-9, 1.4000020e+2
-0.320, 1.3645624e-8, -2.3332660e-9, 1.4033353e+2
-0.321, 1.3688240e-8, -2.3396407e-9, 1.4066685e+2
-0.322, 1.3727046e-8, -2.3430438e-9, 1.4100018e+2
-0.323, 1.3726750e-8, -2.3515430e-9, 1.4133351e+2
-0.324, 1.3772842e-8, -2.3545226e-9, 1.4166684e+2
-0.325, 1.3780104e-8, -2.3574542e-9, 1.4200017e+2
-0.326, 1.3806904e-8, -2.3706745e-9, 1.4233350e+2
-0.327, 1.3828632e-8, -2.3696203e-9, 1.4266682e+2
-0.328, 1.3833456e-8, -2.3785269e-9, 1.4300015e+2
-0.329, 1.3853827e-8, -2.3838229e-9, 1.4333348e+2
-0.330, 1.3879444e-8, -2.3872979e-9, 1.4366681e+2
-0.331, 1.3892089e-8, -2.3879767e-9, 1.4400014e+2
-0.332, 1.3926885e-8, -2.3969395e-9, 1.4433347e+2
-0.333, 1.3933716e-8, -2.3985052e-9, 1.4466679e+2
-0.334, 1.3973808e-8, -2.4038651e-9, 1.4500012e+2
-0.335, 1.3989800e-8, -2.4100639e-9, 1.4533345e+2
-0.336, 1.3989321e-8, -2.4182518e-9, 1.4566678e+2
-0.337, 1.4032129e-8, -2.4155997e-9, 1.4600011e+2
-0.338, 1.4039470e-8, -2.4212474e-9, 1.4633344e+2
-0.339, 1.4074490e-8, -2.4286604e-9, 1.4666676e+2
-0.340, 1.4087878e-8, -2.4367364e-9, 1.4700009e+2
-0.341, 1.4105564e-8, -2.4323108e-9, 1.4733342e+2
-0.342, 1.4123801e-8, -2.4423679e-9, 1.4766675e+2
-0.343, 1.4169244e-8, -2.4424798e-9, 1.4800008e+2
-0.344, 1.4163773e-8, -2.4463140e-9, 1.4833340e+2
-0.345, 1.4178926e-8, -2.4483671e-9, 1.4866673e+2
-0.346, 1.4210025e-8, -2.4561475e-9, 1.4900006e+2
-0.347, 1.4221400e-8, -2.4524969e-9, 1.4933339e+2
-0.348, 1.4239941e-8, -2.4632889e-9, 1.4966672e+2
-0.349, 1.4255246e-8, -2.4672908e-9, 1.5000005e+2
-0.350, 1.4276382e-8, -2.4742726e-9, 1.5033337e+2
-0.351, 1.4312552e-8, -2.4743205e-9, 1.5066670e+2
-0.352, 1.4299571e-8, -2.4818132e-9, 1.5100003e+2
-0.353, 1.4361559e-8, -2.4809506e-9, 1.5133336e+2
-0.354, 1.4365761e-8, -2.4869657e-9, 1.5166669e+2
-0.355, 1.4362086e-8, -2.4922617e-9, 1.5200002e+2
-0.356, 1.4400725e-8, -2.4896816e-9, 1.5233334e+2
-0.357, 1.4407578e-8, -2.4970228e-9, 1.5266667e+2
-0.358, 1.4420872e-8, -2.5012004e-9, 1.5300000e+2
-0.359, 1.4455916e-8, -2.5040603e-9, 1.5333333e+2
-0.360, 1.4467218e-8, -2.5065203e-9, 1.5366666e+2
-0.361, 1.4486501e-8, -2.5098119e-9, 1.5399998e+2
-0.362, 1.4511297e-8, -2.5136540e-9, 1.5433331e+2
-0.363, 1.4522423e-8, -2.5209790e-9, 1.5466664e+2
-0.364, 1.4531347e-8, -2.5278568e-9, 1.5499997e+2
-0.365, 1.4564482e-8, -2.5285678e-9, 1.5533330e+2
-0.366, 1.4583668e-8, -2.5352618e-9, 1.5566663e+2
-0.367, 1.4599150e-8, -2.5375626e-9, 1.5599995e+2
-0.368, 1.4614328e-8, -2.5418601e-9, 1.5633328e+2
-0.369, 1.4652255e-8, -2.5440408e-9, 1.5666661e+2
-0.370, 1.4659260e-8, -2.5482267e-9, 1.5699994e+2
-0.371, 1.4667065e-8, -2.5584754e-9, 1.5733327e+2
-0.372, 1.4700911e-8, -2.5652092e-9, 1.5766660e+2
-0.373, 1.4706119e-8, -2.5695708e-9, 1.5799992e+2
-0.374, 1.4712989e-8, -2.5717837e-9, 1.5833325e+2
-0.375, 1.4754558e-8, -2.5776548e-9, 1.5866658e+2
-0.376, 1.4761341e-8, -2.5818327e-9, 1.5899991e+2
-0.377, 1.4779586e-8, -2.5858269e-9, 1.5933324e+2
-0.378, 1.4797103e-8, -2.5903402e-9, 1.5966656e+2
-0.379, 1.4810692e-8, -2.5947093e-9, 1.5999989e+2
-0.380, 1.4818776e-8, -2.5952687e-9, 1.6033322e+2
-0.381, 1.4823033e-8, -2.5996940e-9, 1.6066655e+2
-0.382, 1.4868838e-8, -2.6025218e-9, 1.6099988e+2
-0.383, 1.4869803e-8, -2.6083931e-9, 1.6133321e+2
-0.384, 1.4891387e-8, -2.6112610e-9, 1.6166653e+2
-0.385, 1.4918548e-8, -2.6152229e-9, 1.6199986e+2
-0.386, 1.4910160e-8, -2.6207188e-9, 1.6233319e+2
-0.387, 1.4925545e-8, -2.6228517e-9, 1.6266652e+2
-0.388, 1.4962922e-8, -2.6312870e-9, 1.6299985e+2
-0.389, 1.4959399e-8, -2.6305842e-9, 1.6333318e+2
-0.390, 1.4979696e-8, -2.6371902e-9, 1.6366650e+2
-0.391, 1.5011313e-8, -2.6379332e-9, 1.6399983e+2
-0.392, 1.5005410e-8, -2.6415916e-9, 1.6433316e+2
-0.393, 1.5022913e-8, -2.6469440e-9, 1.6466649e+2
-0.394, 1.5026842e-8, -2.6502189e-9, 1.6499982e+2
-0.395, 1.5053226e-8, -2.6526474e-9, 1.6533315e+2
-0.396, 1.5052516e-8, -2.6637668e-9, 1.6566647e+2
-0.397, 1.5068949e-8, -2.6594931e-9, 1.6599980e+2
-0.398, 1.5098056e-8, -2.6702613e-9, 1.6633313e+2
-0.399, 1.5107418e-8, -2.6694864e-9, 1.6666646e+2
-0.400, 1.5104016e-8, -2.6760925e-9, 1.6699979e+2
-0.401, 1.5148741e-8, -2.6773546e-9, 1.6733311e+2
-0.402, 1.5149181e-8, -2.6822433e-9, 1.6766644e+2
-0.403, 1.5157600e-8, -2.6815883e-9, 1.6799977e+2
-0.404, 1.5189185e-8, -2.6857663e-9, 1.6833310e+2
-0.405, 1.5167865e-8, -2.6903033e-9, 1.6866643e+2
-0.406, 1.5194496e-8, -2.6906950e-9, 1.6899976e+2
-0.407, 1.5209491e-8, -2.6952158e-9, 1.6933308e+2
-0.408, 1.5205297e-8, -2.6954396e-9, 1.6966641e+2
-0.409, 1.5252738e-8, -2.7035878e-9, 1.6999974e+2
-0.410, 1.5249608e-8, -2.7013909e-9, 1.7033307e+2
-0.411, 1.5260184e-8, -2.7123903e-9, 1.7066640e+2
-0.412, 1.5267037e-8, -2.7103457e-9, 1.7099973e+2
-0.413, 1.5272837e-8, -2.7134528e-9, 1.7133305e+2
-0.414, 1.5301099e-8, -2.7203069e-9, 1.7166638e+2
-0.415, 1.5307537e-8, -2.7225515e-9, 1.7199971e+2
-0.416, 1.5306355e-8, -2.7282470e-9, 1.7233304e+2
-0.417, 1.5350562e-8, -2.7299323e-9, 1.7266637e+2
-0.418, 1.5355745e-8, -2.7316580e-9, 1.7299969e+2
-0.419, 1.5357111e-8, -2.7378646e-9, 1.7333302e+2
-0.420, 1.5391988e-8, -2.7402209e-9, 1.7366635e+2
-0.421, 1.5381003e-8, -2.7403808e-9, 1.7399968e+2
-0.422, 1.5399399e-8, -2.7501263e-9, 1.7433301e+2
-0.423, 1.5416703e-8, -2.7486327e-9, 1.7466634e+2
-0.424, 1.5441083e-8, -2.7586975e-9, 1.7499966e+2
-0.425, 1.5445005e-8, -2.7596163e-9, 1.7533299e+2
-0.426, 1.5452274e-8, -2.7696574e-9, 1.7566632e+2
-0.427, 1.5472484e-8, -2.7707279e-9, 1.7599965e+2
-0.428, 1.5492430e-8, -2.7815517e-9, 1.7633298e+2
-0.429, 1.5492606e-8, -2.7787399e-9, 1.7666631e+2
-0.430, 1.5512352e-8, -2.7859290e-9, 1.7699963e+2
-0.431, 1.5526723e-8, -2.7914411e-9, 1.7733296e+2
-0.432, 1.5533578e-8, -2.7908977e-9, 1.7766629e+2
-0.433, 1.5572056e-8, -2.7978635e-9, 1.7799962e+2
-0.434, 1.5568252e-8, -2.8025127e-9, 1.7833295e+2
-0.435, 1.5579493e-8, -2.8044056e-9, 1.7866628e+2
-0.436, 1.5612148e-8, -2.8120504e-9, 1.7899960e+2
-0.437, 1.5603641e-8, -2.8130489e-9, 1.7933293e+2
-0.438, 1.5635480e-8, -2.8223950e-9, 1.7966626e+2
-0.439, 1.5645403e-8, -2.8260296e-9, 1.7999959e+2
-0.440, 1.5644181e-8, -2.8301992e-9, 1.8033292e+2
-0.441, 1.5677971e-8, -2.8333225e-9, 1.8066624e+2
-0.442, 1.5686046e-8, -2.8379399e-9, 1.8099957e+2
-0.443, 1.5700490e-8, -2.8468785e-9, 1.8133290e+2
-0.444, 1.5734550e-8, -2.8491949e-9, 1.8166623e+2
-0.445, 1.5731699e-8, -2.8421896e-9, 1.8199956e+2
-0.446, 1.5757180e-8, -2.8852376e-9, 1.8233289e+2
-0.447, 1.5769874e-8, -2.8655547e-9, 1.8266621e+2
-0.448, 1.5791610e-8, -2.8694209e-9, 1.8299954e+2
-0.449, 1.5820470e-8, -2.8942242e-9, 1.8333287e+2
-0.450, 1.5868926e-8, -2.9061662e-9, 1.8366620e+2
-0.451, 1.5803959e-8, -2.9254019e-9, 1.8399953e+2
-0.452, 1.5942920e-8, -2.8954943e-9, 1.8433286e+2
-0.453, 1.5848844e-8, -2.8472140e-9, 1.8466618e+2
-0.454, 1.5954839e-8, -2.9205052e-9, 1.8499951e+2
-0.455, 1.5954550e-8, -2.9136433e-9, 1.8533284e+2
-0.456, 1.5946867e-8, -2.9173419e-9, 1.8566617e+2
-0.457, 1.5980520e-8, -2.9333498e-9, 1.8599950e+2
-0.458, 1.5998614e-8, -2.9310414e-9, 1.8633282e+2
-0.459, 1.6030038e-8, -2.9368727e-9, 1.8666615e+2
-0.460, 1.6047917e-8, -2.9411864e-9, 1.8699948e+2
-0.461, 1.6072896e-8, -2.9445255e-9, 1.8733281e+2
-0.462, 1.6094917e-8, -2.9533762e-9, 1.8766614e+2
-0.463, 1.6124401e-8, -2.9627463e-9, 1.8799947e+2
-0.464, 1.6135827e-8, -2.9683380e-9, 1.8833279e+2
-0.465, 1.6185121e-8, -2.9711658e-9, 1.8866612e+2
-0.466, 1.6192956e-8, -2.9759428e-9, 1.8899945e+2
-0.467, 1.6225149e-8, -2.9845777e-9, 1.8933278e+2
-0.468, 1.6276296e-8, -2.9931411e-9, 1.8966611e+2
-0.469, 1.6282623e-8, -2.9969756e-9, 1.8999944e+2
-0.470, 1.6323506e-8, -3.0071443e-9, 1.9033276e+2
-0.471, 1.6338213e-8, -3.0131992e-9, 1.9066609e+2
-0.472, 1.6368519e-8, -3.0195337e-9, 1.9099942e+2
-0.473, 1.6407910e-8, -3.0276579e-9, 1.9133275e+2
-0.474, 1.6429189e-8, -3.0316918e-9, 1.9166608e+2
-0.475, 1.6468404e-8, -3.0385854e-9, 1.9199940e+2
-0.476, 1.6512706e-8, -3.0459186e-9, 1.9233273e+2
-0.477, 1.6530263e-8, -3.0551690e-9, 1.9266606e+2
-0.478, 1.6574692e-8, -3.0606089e-9, 1.9299939e+2
-0.479, 1.6607435e-8, -3.0713767e-9, 1.9333272e+2
-0.480, 1.6629516e-8, -3.0764573e-9, 1.9366605e+2
-0.481, 1.6699667e-8, -3.0833271e-9, 1.9399937e+2
-0.482, 1.6719781e-8, -3.0809464e-9, 1.9433270e+2
-0.483, 1.6773470e-8, -3.0985683e-9, 1.9466603e+2
-0.484, 1.6816749e-8, -3.1007892e-9, 1.9499936e+2
-0.485, 1.6907112e-8, -3.1515697e-9, 1.9533269e+2
-0.486, 1.6909706e-8, -3.1281164e-9, 1.9566602e+2
-0.487, 1.6995747e-8, -3.2297014e-9, 1.9599934e+2
-0.488, 1.6949384e-8, -3.0916505e-9, 1.9633267e+2
-0.489, 1.7018905e-8, -3.2442320e-9, 1.9666600e+2
-0.490, 1.6942787e-8, -3.2026777e-9, 1.9699933e+2
-0.491, 1.7059341e-8, -3.1974774e-9, 1.9733266e+2
-0.492, 1.7127734e-8, -3.2036922e-9, 1.9766599e+2
-0.493, 1.7162012e-8, -3.2031648e-9, 1.9799931e+2
-0.494, 1.7218792e-8, -3.2198042e-9, 1.9833264e+2
-0.495, 1.7261943e-8, -3.2276246e-9, 1.9866597e+2
-0.496, 1.7314976e-8, -3.2402379e-9, 1.9899930e+2
-0.497, 1.7359470e-8, -3.2491603e-9, 1.9933263e+2
-0.498, 1.7411992e-8, -3.2649130e-9, 1.9966595e+2
-0.499, 1.7322604e-8, -3.2741472e-9, 1.9999928e+2
-0.500, 1.5450876e-8, -3.2654164e-9, 2.0033261e+2
-0.499, 1.4528958e-8, -3.2524037e-9, 2.0066594e+2
-0.498, 1.3755652e-8, -3.2362200e-9, 2.0099927e+2
-0.497, 1.3131956e-8, -3.2229515e-9, 2.0133260e+2
-0.496, 1.2541337e-8, -3.2171359e-9, 2.0166592e+2
-0.495, 1.2007499e-8, -3.2002889e-9, 2.0199925e+2
-0.494, 1.1518905e-8, -3.1858145e-9, 2.0233258e+2
-0.493, 1.1076596e-8, -3.1763887e-9, 2.0266591e+2
-0.492, 1.0650908e-8, -3.1666991e-9, 2.0299924e+2
-0.491, 1.0268685e-8, -3.1543175e-9, 2.0333257e+2
-0.490, 9.8934585e-9, -3.1433818e-9, 2.0366589e+2
-0.489, 9.5409662e-9, -3.1298657e-9, 2.0399922e+2
-0.488, 9.2228074e-9, -3.1254086e-9, 2.0433255e+2
-0.487, 8.8786711e-9, -3.1222374e-9, 2.0466588e+2
-0.486, 8.5773983e-9, -3.1080103e-9, 2.0499921e+2
-0.485, 8.2961371e-9, -3.0961720e-9, 2.0533253e+2
-0.484, 8.0129094e-9, -3.0920262e-9, 2.0566586e+2
-0.483, 7.7514271e-9, -3.0818255e-9, 2.0599919e+2
-0.482, 7.4747417e-9, -3.0801159e-9, 2.0633252e+2
-0.481, 7.2304176e-9, -3.0678302e-9, 2.0666585e+2
-0.480, 6.9961654e-9, -3.0700669e-9, 2.0699918e+2
-0.479, 6.7302253e-9, -3.0564631e-9, 2.0733250e+2
-0.478, 6.5315042e-9, -3.0513108e-9, 2.0766583e+2
-0.477, 6.3088357e-9, -3.0425957e-9, 2.0799916e+2
-0.476, 6.0873968e-9, -3.0368441e-9, 2.0833249e+2
-0.475, 5.8906173e-9, -3.0313883e-9, 2.0866582e+2
-0.474, 5.6956750e-9, -3.0314600e-9, 2.0899915e+2
-0.473, 5.5071796e-9, -3.0156437e-9, 2.0933247e+2
-0.472, 5.2945595e-9, -3.0126401e-9, 2.0966580e+2
-0.471, 5.1471627e-9, -3.0133831e-9, 2.0999913e+2
-0.470, 4.9424189e-9, -3.0324188e-9, 2.1033246e+2
-0.469, 4.7867386e-9, -2.9539833e-9, 2.1066579e+2
-0.468, 4.5062913e-9, -2.9776042e-9, 2.1099911e+2
-0.467, 4.4903392e-9, -2.9954017e-9, 2.1133244e+2
-0.466, 4.2305652e-9, -2.9879248e-9, 2.1166577e+2
-0.465, 4.1507642e-9, -2.9967198e-9, 2.1199910e+2
-0.464, 3.9781090e-9, -2.9800644e-9, 2.1233243e+2
-0.463, 3.8143120e-9, -2.9776921e-9, 2.1266576e+2
-0.462, 3.6760377e-9, -2.9732428e-9, 2.1299908e+2
-0.461, 3.5365730e-9, -2.9723641e-9, 2.1333241e+2
-0.460, 3.3855816e-9, -2.9658775e-9, 2.1366574e+2
-0.459, 3.2619414e-9, -2.9652787e-9, 2.1399907e+2
-0.458, 3.1367198e-9, -2.9575062e-9, 2.1433240e+2
-0.457, 3.0044522e-9, -2.9573384e-9, 2.1466573e+2
-0.456, 2.8748210e-9, -2.9494860e-9, 2.1499905e+2
-0.455, 2.7338385e-9, -2.9498775e-9, 2.1533238e+2
-0.454, 2.6204630e-9, -2.9410747e-9, 2.1566571e+2
-0.453, 2.4798323e-9, -2.9395806e-9, 2.1599904e+2
-0.452, 2.3764899e-9, -2.9377594e-9, 2.1633237e+2
-0.451, 2.2634978e-9, -2.9327270e-9, 2.1666570e+2
-0.450, 2.1463840e-9, -2.9302107e-9, 2.1699902e+2
-0.449, 2.0467881e-9, -2.9308977e-9, 2.1733235e+2
-0.448, 1.9345789e-9, -2.9304024e-9, 2.1766568e+2
-0.447, 1.8265556e-9, -2.9224940e-9, 2.1799901e+2
-0.446, 1.7337735e-9, -2.9233169e-9, 2.1833234e+2
-0.445, 1.6366379e-9, -2.9193870e-9, 2.1866566e+2
-0.444, 1.5340463e-9, -2.9200340e-9, 2.1899899e+2
-0.443, 1.4402339e-9, -2.9148335e-9, 2.1933232e+2
-0.442, 1.3293427e-9, -2.9138190e-9, 2.1966565e+2
-0.441, 1.2675546e-9, -2.9091858e-9, 2.1999898e+2
-0.440, 1.1476209e-9, -2.9055354e-9, 2.2033231e+2
-0.439, 1.0705196e-9, -2.9078520e-9, 2.2066563e+2
-0.438, 9.9051845e-10, -2.9010541e-9, 2.2099896e+2
-0.437, 8.9683377e-10, -2.9015095e-9, 2.2133229e+2
-0.436, 8.0272572e-10, -2.8958058e-9, 2.2166562e+2
-0.435, 7.3328493e-10, -2.8953584e-9, 2.2199895e+2
-0.434, 6.3175587e-10, -2.8969800e-9, 2.2233228e+2
-0.433, 5.7162924e-10, -2.8908451e-9, 2.2266560e+2
-0.432, 5.0592697e-10, -2.8953024e-9, 2.2299893e+2
-0.431, 4.0107481e-10, -2.8906855e-9, 2.2333226e+2
-0.430, 3.4834521e-10, -2.8906055e-9, 2.2366559e+2
-0.429, 2.6427821e-10, -2.8866753e-9, 2.2399892e+2
-0.428, 1.7900499e-10, -2.8864597e-9, 2.2433224e+2
-0.427, 1.1950943e-10, -2.8835838e-9, 2.2466557e+2
-0.426, 3.5761945e-11, -2.8831606e-9, 2.2499890e+2
-0.425, -2.3685673e-11, -2.8808922e-9, 2.2533223e+2
-0.424, -9.2750994e-11, -2.8791585e-9, 2.2566556e+2
-0.423, -1.5814178e-10, -2.8759393e-9, 2.2599889e+2
-0.422, -2.3040235e-10, -2.8718494e-9, 2.2633221e+2
-0.421, -2.9358840e-10, -2.8760352e-9, 2.2666554e+2
-0.420, -3.5108694e-10, -2.8761071e-9, 2.2699887e+2
-0.419, -4.1476822e-10, -2.8799174e-9, 2.2733220e+2
-0.418, -5.0618432e-10, -2.8754201e-9, 2.2766553e+2
-0.417, -5.5056637e-10, -2.8758993e-9, 2.2799886e+2
-0.416, -6.1348882e-10, -2.8683427e-9, 2.2833218e+2
-0.415, -6.8269790e-10, -2.8676956e-9, 2.2866551e+2
-0.414, -7.2874939e-10, -2.8686142e-9, 2.2899884e+2
-0.413, -7.7827578e-10, -2.8665772e-9, 2.2933217e+2
-0.412, -8.5715851e-10, -2.8635978e-9, 2.2966550e+2
-0.411, -8.9900032e-10, -2.8641727e-9, 2.2999883e+2
-0.410, -9.6356834e-10, -2.8598193e-9, 2.3033215e+2
-0.409, -1.0417641e-9, -2.8562086e-9, 2.3066548e+2
-0.408, -1.0748029e-9, -2.8620959e-9, 2.3099881e+2
-0.407, -1.1342026e-9, -2.8514240e-9, 2.3133214e+2
-0.406, -1.1808453e-9, -2.8573590e-9, 2.3166547e+2
-0.405, -1.2512207e-9, -2.8463834e-9, 2.3199879e+2
-0.404, -1.3049568e-9, -2.8541878e-9, 2.3233212e+2
-0.403, -1.3406157e-9, -2.8486999e-9, 2.3266545e+2
-0.402, -1.4028112e-9, -2.8471741e-9, 2.3299878e+2
-0.401, -1.4483995e-9, -2.8423732e-9, 2.3333211e+2
-0.400, -1.4969354e-9, -2.8426927e-9, 2.3366544e+2
-0.399, -1.5635723e-9, -2.8398011e-9, 2.3399876e+2
-0.398, -1.5999422e-9, -2.8401685e-9, 2.3433209e+2
-0.397, -1.6454266e-9, -2.8400167e-9, 2.3466542e+2
-0.396, -1.7015351e-9, -2.8335703e-9, 2.3499875e+2
-0.395, -1.7446230e-9, -2.8330271e-9, 2.3533208e+2
-0.394, -1.7930710e-9, -2.8289691e-9, 2.3566541e+2
-0.393, -1.8409918e-9, -2.8229541e-9, 2.3599873e+2
-0.392, -1.8839121e-9, -2.8250151e-9, 2.3633206e+2
-0.391, -1.9297399e-9, -2.8248475e-9, 2.3666539e+2
-0.390, -1.9862558e-9, -2.8271798e-9, 2.3699872e+2
-0.389, -2.0326349e-9, -2.8202383e-9, 2.3733205e+2
-0.388, -2.0601461e-9, -2.8185367e-9, 2.3766537e+2
-0.387, -2.0951498e-9, -2.8136000e-9, 2.3799870e+2
-0.386, -2.1700546e-9, -2.8133922e-9, 2.3833203e+2
-0.385, -2.1986282e-9, -2.8112834e-9, 2.3866536e+2
-0.384, -2.2323938e-9, -2.8074172e-9, 2.3899869e+2
-0.383, -2.2874003e-9, -2.8055160e-9, 2.3933202e+2
-0.382, -2.3306479e-9, -2.8033273e-9, 2.3966534e+2
-0.381, -2.3643576e-9, -2.8038067e-9, 2.3999867e+2
-0.380, -2.4348528e-9, -2.7995888e-9, 2.4033200e+2
-0.379, -2.4454212e-9, -2.7966094e-9, 2.4066533e+2
-0.378, -2.4933979e-9, -2.7967373e-9, 2.4099866e+2
-0.377, -2.5310618e-9, -2.7918723e-9, 2.4133199e+2
-0.376, -2.5827371e-9, -2.7882618e-9, 2.4166531e+2
-0.375, -2.6233087e-9, -2.7864482e-9, 2.4199864e+2
-0.374, -2.6293958e-9, -2.7866960e-9, 2.4233197e+2
-0.373, -2.6816618e-9, -2.7847389e-9, 2.4266530e+2
-0.372, -2.7228566e-9, -2.7796028e-9, 2.4299863e+2
-0.371, -2.7583560e-9, -2.7826619e-9, 2.4333195e+2
-0.370, -2.8157747e-9, -2.7753368e-9, 2.4366528e+2
-0.369, -2.8249769e-9, -2.7717262e-9, 2.4399861e+2
-0.368, -2.8749265e-9, -2.7731641e-9, 2.4433194e+2
-0.367, -2.9143241e-9, -2.7668217e-9, 2.4466527e+2
-0.366, -2.9351090e-9, -2.7655433e-9, 2.4499860e+2
-0.365, -2.9761842e-9, -2.7614295e-9, 2.4533192e+2
-0.364, -3.0229943e-9, -2.7674445e-9, 2.4566525e+2
-0.363, -3.0329397e-9, -2.7645528e-9, 2.4599858e+2
-0.362, -3.0740785e-9, -2.7645850e-9, 2.4633191e+2
-0.361, -3.1106802e-9, -2.7622604e-9, 2.4666524e+2
-0.360, -3.1533689e-9, -2.7547835e-9, 2.4699857e+2
-0.359, -3.1710303e-9, -2.7553508e-9, 2.4733189e+2
-0.358, -3.2112344e-9, -2.7471150e-9, 2.4766522e+2
-0.357, -3.2426442e-9, -2.7500704e-9, 2.4799855e+2
-0.356, -3.2746286e-9, -2.7486247e-9, 2.4833188e+2
-0.355, -3.3071159e-9, -2.7484888e-9, 2.4866521e+2
-0.354, -3.3541261e-9, -2.7450142e-9, 2.4899854e+2
-0.353, -3.3612038e-9, -2.7426177e-9, 2.4933186e+2
-0.352, -3.4000420e-9, -2.7444469e-9, 2.4966519e+2
-0.351, -3.4572449e-9, -2.7387514e-9, 2.4999852e+2
-0.350, -3.4723264e-9, -2.7370497e-9, 2.5033185e+2
-0.349, -3.5051655e-9, -2.7361873e-9, 2.5066518e+2
-0.348, -3.5447547e-9, -2.7346376e-9, 2.5099850e+2
-0.347, -3.5548517e-9, -2.7334630e-9, 2.5133183e+2
-0.346, -3.5938259e-9, -2.7319773e-9, 2.5166516e+2
-0.345, -3.6116794e-9, -2.7238773e-9, 2.5199849e+2
-0.344, -3.6519234e-9, -2.7264335e-9, 2.5233182e+2
-0.343, -3.6533292e-9, -2.7175668e-9, 2.5266515e+2
-0.342, -3.6923753e-9, -2.7195719e-9, 2.5299847e+2
-0.341, -3.7287453e-9, -2.7213212e-9, 2.5333180e+2
-0.340, -3.7497063e-9, -2.7213212e-9, 2.5366513e+2
-0.339, -3.7644843e-9, -2.7183578e-9, 2.5399846e+2
-0.338, -3.8329824e-9, -2.7119431e-9, 2.5433179e+2
-0.337, -3.8501966e-9, -2.7104254e-9, 2.5466512e+2
-0.336, -3.8625623e-9, -2.7092912e-9, 2.5499844e+2
-0.335, -3.8996748e-9, -2.7076137e-9, 2.5533177e+2
-0.334, -3.9278971e-9, -2.6983873e-9, 2.5566510e+2
-0.333, -3.9506394e-9, -2.6983553e-9, 2.5599843e+2
-0.332, -3.9872488e-9, -2.6950961e-9, 2.5633176e+2
-0.331, -3.9783181e-9, -2.6961504e-9, 2.5666510e+2
-0.330, -4.0292187e-9, -2.6560023e-9, 2.5699844e+2
-0.329, -4.0723784e-9, -2.6797031e-9, 2.5733179e+2
-0.328, -4.0369033e-9, -2.7116478e-9, 2.5766513e+2
-0.327, -4.0644141e-9, -2.5889102e-9, 2.5799847e+2
-0.326, -4.1188533e-9, -2.7201552e-9, 2.5833182e+2
-0.325, -4.2037112e-9, -2.7128539e-9, 2.5866516e+2
-0.324, -4.2105728e-9, -2.7602074e-9, 2.5899850e+2
-0.323, -4.1835251e-9, -2.6497236e-9, 2.5933185e+2
-0.322, -4.3346842e-9, -2.6971971e-9, 2.5966519e+2
-0.321, -4.2748374e-9, -2.6701972e-9, 2.5999854e+2
-0.320, -4.2985460e-9, -2.6793596e-9, 2.6033188e+2
-0.319, -4.3314410e-9, -2.6681122e-9, 2.6066522e+2
-0.318, -4.3464752e-9, -2.6616498e-9, 2.6099857e+2
-0.317, -4.3703272e-9, -2.6630878e-9, 2.6133191e+2
-0.316, -4.4053392e-9, -2.6612026e-9, 2.6166525e+2
-0.315, -4.4084389e-9, -2.6504745e-9, 2.6199860e+2
-0.314, -4.4435065e-9, -2.6500031e-9, 2.6233194e+2
-0.313, -4.4820974e-9, -2.6465203e-9, 2.6266528e+2
-0.312, -4.4867061e-9, -2.6446512e-9, 2.6299863e+2
-0.311, -4.5204800e-9, -2.6439082e-9, 2.6333197e+2
-0.310, -4.5293471e-9, -2.6407689e-9, 2.6366531e+2
-0.309, -4.5644866e-9, -2.6340350e-9, 2.6399866e+2
-0.308, -4.6177995e-9, -2.6282516e-9, 2.6433200e+2
-0.307, -4.6247250e-9, -2.6269575e-9, 2.6466534e+2
-0.306, -4.6637552e-9, -2.6249125e-9, 2.6499869e+2
-0.305, -4.6785491e-9, -2.6148474e-9, 2.6533203e+2
-0.304, -4.7032005e-9, -2.6143363e-9, 2.6566537e+2
-0.303, -4.7404010e-9, -2.6101905e-9, 2.6599872e+2
-0.302, -4.7544284e-9, -2.6048863e-9, 2.6633206e+2
-0.301, -4.7768429e-9, -2.6036084e-9, 2.6666541e+2
-0.300, -4.8155613e-9, -2.5952447e-9, 2.6699875e+2
-0.299, -4.8398614e-9, -2.5899405e-9, 2.6733209e+2
-0.298, -4.8652478e-9, -2.5850597e-9, 2.6766544e+2
-0.297, -4.8855213e-9, -2.5821441e-9, 2.6799878e+2
-0.296, -4.9130802e-9, -2.5762010e-9, 2.6833212e+2
-0.295, -4.9398965e-9, -2.5666871e-9, 2.6866547e+2
-0.294, -4.9714659e-9, -2.5642029e-9, 2.6899881e+2
-0.293, -5.0035460e-9, -2.5488416e-9, 2.6933215e+2
-0.292, -5.0329421e-9, -2.5454627e-9, 2.6966550e+2
-0.291, -5.0464983e-9, -2.5396634e-9, 2.6999884e+2
-0.290, -5.0914633e-9, -2.5316351e-9, 2.7033218e+2
-0.289, -5.1161622e-9, -2.5250531e-9, 2.7066553e+2
-0.288, -5.1674220e-9, -2.5207314e-9, 2.7099887e+2
-0.287, -5.1845492e-9, -2.5044038e-9, 2.7133221e+2
-0.286, -5.2170441e-9, -2.4969906e-9, 2.7166556e+2
-0.285, -5.2584870e-9, -2.4917026e-9, 2.7199890e+2
-0.284, -5.3109450e-9, -2.4824365e-9, 2.7233224e+2
-0.283, -5.3208820e-9, -2.4718521e-9, 2.7266559e+2
-0.282, -5.3710631e-9, -2.4625699e-9, 2.7299893e+2
-0.281, -5.3967213e-9, -2.4462823e-9, 2.7333228e+2
-0.280, -5.4428844e-9, -2.4380624e-9, 2.7366562e+2
-0.279, -5.4838156e-9, -2.4272704e-9, 2.7399896e+2
-0.278, -5.5153371e-9, -2.4094009e-9, 2.7433231e+2
-0.277, -5.5614762e-9, -2.3956614e-9, 2.7466565e+2
-0.276, -5.5986451e-9, -2.3892230e-9, 2.7499899e+2
-0.275, -5.6423564e-9, -2.3778879e-9, 2.7533234e+2
-0.274, -5.6976659e-9, -2.3548341e-9, 2.7566568e+2
-0.273, -5.7346825e-9, -2.3440341e-9, 2.7599902e+2
-0.272, -5.7804628e-9, -2.3277225e-9, 2.7633237e+2
-0.271, -5.8393677e-9, -2.3076963e-9, 2.7666571e+2
-0.270, -5.8640026e-9, -2.2815509e-9, 2.7699905e+2
-0.269, -5.9130816e-9, -2.2646243e-9, 2.7733240e+2
-0.268, -6.0131811e-9, -2.2201623e-9, 2.7766574e+2
-0.267, -5.9601719e-9, -2.2203619e-9, 2.7799908e+2
-0.266, -6.0422658e-9, -2.2453011e-9, 2.7833243e+2
-0.265, -6.1612009e-9, -2.0904511e-9, 2.7866577e+2
-0.264, -6.2425118e-9, -2.2492870e-9, 2.7899911e+2
-0.263, -6.3320988e-9, -2.1000528e-9, 2.7933246e+2
-0.262, -6.3592505e-9, -2.1608186e-9, 2.7966580e+2
-0.261, -6.3850041e-9, -2.1174191e-9, 2.7999915e+2
-0.260, -6.4439325e-9, -2.1013149e-9, 2.8033249e+2
-0.259, -6.4575283e-9, -2.0710000e-9, 2.8066583e+2
-0.258, -6.5412276e-9, -2.0484736e-9, 2.8099918e+2
-0.257, -6.5543841e-9, -2.0240380e-9, 2.8133252e+2
-0.256, -6.6177219e-9, -2.0050581e-9, 2.8166586e+2
-0.255, -6.6943442e-9, -1.9770676e-9, 2.8199921e+2
-0.254, -6.7468022e-9, -1.9544213e-9, 2.8233255e+2
-0.253, -6.7846417e-9, -1.9330213e-9, 2.8266589e+2
-0.252, -6.8702106e-9, -1.9072195e-9, 2.8299924e+2
-0.251, -6.8902448e-9, -1.8848210e-9, 2.8333258e+2
-0.250, -6.9547168e-9, -1.8638120e-9, 2.8366592e+2
-0.249, -7.0125830e-9, -1.8401674e-9, 2.8399927e+2
-0.248, -7.0612551e-9, -1.8146133e-9, 2.8433261e+2
-0.247, -7.1126500e-9, -1.7945151e-9, 2.8466595e+2
-0.246, -7.1426696e-9, -1.7707904e-9, 2.8499930e+2
-0.245, -7.2259940e-9, -1.7526414e-9, 2.8533264e+2
-0.244, -7.2542639e-9, -1.7285493e-9, 2.8566599e+2
-0.243, -7.2993727e-9, -1.7098092e-9, 2.8599933e+2
-0.242, -7.3578059e-9, -1.6944159e-9, 2.8633267e+2
-0.241, -7.3971873e-9, -1.6687103e-9, 2.8666602e+2
-0.240, -7.4274387e-9, -1.6540280e-9, 2.8699936e+2
-0.239, -7.4785307e-9, -1.6289134e-9, 2.8733270e+2
-0.238, -7.5239024e-9, -1.6161483e-9, 2.8766605e+2
-0.237, -7.5527717e-9, -1.5992934e-9, 2.8799939e+2
-0.236, -7.6154869e-9, -1.5835169e-9, 2.8833273e+2
-0.235, -7.6280680e-9, -1.5625001e-9, 2.8866608e+2
-0.234, -7.6744948e-9, -1.5353006e-9, 2.8899942e+2
-0.233, -7.6811890e-9, -1.5280872e-9, 2.8933276e+2
-0.232, -7.7253075e-9, -1.4726338e-9, 2.8966611e+2
-0.231, -7.7503577e-9, -1.5031802e-9, 2.8999945e+2
-0.230, -7.7858013e-9, -1.3889980e-9, 2.9033279e+2
-0.229, -7.9262730e-9, -1.4651887e-9, 2.9066614e+2
-0.228, -7.8735116e-9, -1.3988474e-9, 2.9099948e+2
-0.227, -8.0021278e-9, -1.5443511e-9, 2.9133282e+2
-0.226, -7.9657019e-9, -1.4557068e-9, 2.9166617e+2
-0.225, -7.9562756e-9, -1.4411204e-9, 2.9199951e+2
-0.224, -7.9909768e-9, -1.4216375e-9, 2.9233286e+2
-0.223, -8.0211482e-9, -1.4099908e-9, 2.9266620e+2
-0.222, -8.0328020e-9, -1.4041276e-9, 2.9299954e+2
-0.221, -8.0518063e-9, -1.3915782e-9, 2.9333289e+2
-0.220, -8.1052622e-9, -1.3795242e-9, 2.9366623e+2
-0.219, -8.1052303e-9, -1.3692674e-9, 2.9399957e+2
-0.218, -8.1150482e-9, -1.3609918e-9, 2.9433292e+2
-0.217, -8.1337639e-9, -1.3550405e-9, 2.9466626e+2
-0.216, -8.1624414e-9, -1.3385850e-9, 2.9499960e+2
-0.215, -8.1462899e-9, -1.3696109e-9, 2.9533295e+2
-0.214, -8.2283202e-9, -1.3472521e-9, 2.9566629e+2
-0.213, -8.2461806e-9, -1.3271380e-9, 2.9599963e+2
-0.212, -8.2495362e-9, -1.3236712e-9, 2.9633298e+2
-0.211, -8.2625649e-9, -1.3183272e-9, 2.9666632e+2
-0.210, -8.3089358e-9, -1.3094523e-9, 2.9699966e+2
-0.209, -8.3024654e-9, -1.3055063e-9, 2.9733301e+2
-0.208, -8.3117078e-9, -1.2973103e-9, 2.9766635e+2
-0.207, -8.3332514e-9, -1.2712611e-9, 2.9799969e+2
-0.206, -8.3572473e-9, -1.2873411e-9, 2.9833304e+2
-0.205, -8.2551201e-9, -1.2418967e-9, 2.9866638e+2
-0.204, -8.3942249e-9, -1.2766690e-9, 2.9899973e+2
-0.203, -8.3555545e-9, -1.3537544e-9, 2.9933307e+2
-0.202, -8.4541680e-9, -1.2859512e-9, 2.9966641e+2
-0.201, -8.4673806e-9, -1.2984847e-9, 2.9999976e+2
-0.200, -8.4587448e-9, -1.2670992e-9, 3.0033310e+2
-0.199, -8.4704235e-9, -1.2602055e-9, 3.0066644e+2
-0.198, -8.4725640e-9, -1.2588716e-9, 3.0099979e+2
-0.197, -8.4994847e-9, -1.2551170e-9, 3.0133313e+2
-0.196, -8.5108596e-9, -1.2484470e-9, 3.0166647e+2
-0.195, -8.5119698e-9, -1.2410420e-9, 3.0199982e+2
-0.194, -8.5473095e-9, -1.2398039e-9, 3.0233316e+2
-0.193, -8.5488114e-9, -1.2352267e-9, 3.0266650e+2
-0.192, -8.5571186e-9, -1.2373994e-9, 3.0299985e+2
-0.191, -8.5816820e-9, -1.2307773e-9, 3.0333319e+2
-0.190, -8.5704670e-9, -1.2305855e-9, 3.0366653e+2
-0.189, -8.5964285e-9, -1.2215750e-9, 3.0399988e+2
-0.188, -8.5909724e-9, -1.2156158e-9, 3.0433322e+2
-0.187, -8.6220542e-9, -1.2054070e-9, 3.0466656e+2
-0.186, -8.5918108e-9, -1.1788784e-9, 3.0499991e+2
-0.185, -8.6781711e-9, -1.1768654e-9, 3.0533325e+2
-0.184, -8.6278531e-9, -1.1361020e-9, 3.0566660e+2
-0.183, -8.7640188e-9, -1.2521775e-9, 3.0599994e+2
-0.182, -8.6065493e-9, -1.2960643e-9, 3.0633328e+2
-0.181, -8.6937471e-9, -1.1548502e-9, 3.0666663e+2
-0.180, -8.7696508e-9, -1.2611401e-9, 3.0699997e+2
-0.179, -8.7207068e-9, -1.1987209e-9, 3.0733331e+2
-0.178, -8.7459098e-9, -1.2117176e-9, 3.0766666e+2
-0.177, -8.7360608e-9, -1.1819699e-9, 3.0800000e+2
-0.176, -8.7395353e-9, -1.1923864e-9, 3.0833334e+2
-0.175, -8.7543537e-9, -1.1861796e-9, 3.0866669e+2
-0.174, -8.7558796e-9, -1.1884562e-9, 3.0900003e+2
-0.173, -8.7909875e-9, -1.1839190e-9, 3.0933337e+2
-0.172, -8.7968024e-9, -1.1821376e-9, 3.0966672e+2
-0.171, -8.7932879e-9, -1.1782234e-9, 3.1000006e+2
-0.170, -8.7972261e-9, -1.1792939e-9, 3.1033340e+2
-0.169, -8.8055412e-9, -1.1715453e-9, 3.1066675e+2
-0.168, -8.8060848e-9, -1.1733506e-9, 3.1100009e+2
-0.167, -8.8205594e-9, -1.1686456e-9, 3.1133344e+2
-0.166, -8.8286667e-9, -1.1682783e-9, 3.1166678e+2
-0.165, -8.8529273e-9, -1.1638688e-9, 3.1200012e+2
-0.164, -8.8395788e-9, -1.1683901e-9, 3.1233347e+2
-0.163, -8.8569525e-9, -1.1616081e-9, 3.1266681e+2
-0.162, -8.8854941e-9, -1.1595153e-9, 3.1300015e+2
-0.161, -8.8788088e-9, -1.1617679e-9, 3.1333350e+2
-0.160, -8.8715870e-9, -1.1591798e-9, 3.1366684e+2
-0.159, -8.8958467e-9, -1.1523179e-9, 3.1400018e+2
-0.158, -8.8960945e-9, -1.1546983e-9, 3.1433353e+2
-0.157, -8.8940979e-9, -1.1554732e-9, 3.1466687e+2
-0.156, -8.9180068e-9, -1.1505605e-9, 3.1500021e+2
-0.155, -8.9103773e-9, -1.1499854e-9, 3.1533356e+2
-0.154, -8.9382324e-9, -1.1449129e-9, 3.1566690e+2
-0.153, -8.9428731e-9, -1.1464306e-9, 3.1600024e+2
-0.152, -8.9492875e-9, -1.1395769e-9, 3.1633359e+2
-0.151, -8.9531058e-9, -1.1349757e-9, 3.1666693e+2
-0.150, -8.9459329e-9, -1.1395689e-9, 3.1700027e+2
-0.149, -8.9882297e-9, -1.1360781e-9, 3.1733362e+2
-0.148, -8.9854097e-9, -1.1310934e-9, 3.1766696e+2
-0.147, -8.9823029e-9, -1.1300311e-9, 3.1800031e+2
-0.146, -8.9981826e-9, -1.1276107e-9, 3.1833365e+2
-0.145, -8.9991099e-9, -1.1275387e-9, 3.1866699e+2
-0.144, -9.0142631e-9, -1.1268437e-9, 3.1900034e+2
-0.143, -9.0377963e-9, -1.1262926e-9, 3.1933368e+2
-0.142, -9.0263965e-9, -1.1230414e-9, 3.1966702e+2
-0.141, -9.0360945e-9, -1.1200698e-9, 3.2000037e+2
-0.140, -9.0437551e-9, -1.1189195e-9, 3.2033371e+2
-0.139, -9.0495540e-9, -1.1208128e-9, 3.2066705e+2
-0.138, -9.0509129e-9, -1.1147657e-9, 3.2100040e+2
-0.137, -9.0729362e-9, -1.1182485e-9, 3.2133374e+2
-0.136, -9.0690060e-9, -1.1186080e-9, 3.2166708e+2
-0.135, -9.0874819e-9, -1.1118181e-9, 3.2200043e+2
-0.134, -9.0875707e-9, -1.1109794e-9, 3.2233377e+2
-0.133, -9.1041370e-9, -1.1111232e-9, 3.2266711e+2
-0.132, -9.0969881e-9, -1.1126410e-9, 3.2300046e+2
-0.131, -9.1109840e-9, -1.1069614e-9, 3.2333380e+2
-0.130, -9.1365298e-9, -1.1052439e-9, 3.2366714e+2
-0.129, -9.1363450e-9, -1.1054516e-9, 3.2400049e+2
-0.128, -9.1395647e-9, -1.1002433e-9, 3.2433383e+2
-0.127, -9.1823411e-9, -1.1012019e-9, 3.2466718e+2
-0.126, -9.1657579e-9, -1.0993327e-9, 3.2500052e+2
-0.125, -9.1798009e-9, -1.0988374e-9, 3.2533386e+2
-0.124, -9.1900656e-9, -1.0972239e-9, 3.2566721e+2
-0.123, -9.1868380e-9, -1.0928624e-9, 3.2600055e+2
-0.122, -9.2216670e-9, -1.0932537e-9, 3.2633389e+2
-0.121, -9.2232719e-9, -1.0906895e-9, 3.2666724e+2
-0.120, -9.2332018e-9, -1.0921115e-9, 3.2700058e+2
-0.119, -9.2375467e-9, -1.0904180e-9, 3.2733392e+2
-0.118, -9.2450643e-9, -1.0917599e-9, 3.2766727e+2
-0.117, -9.2736938e-9, -1.0900905e-9, 3.2800061e+2
-0.116, -9.2714965e-9, -1.0863360e-9, 3.2833395e+2
-0.115, -9.2790780e-9, -1.0826615e-9, 3.2866730e+2
-0.114, -9.3058290e-9, -1.0825018e-9, 3.2900064e+2
-0.113, -9.2955883e-9, -1.0797139e-9, 3.2933398e+2
-0.112, -9.3330135e-9, -1.0795301e-9, 3.2966733e+2
-0.111, -9.3403942e-9, -1.0758636e-9, 3.3000067e+2
-0.110, -9.3483106e-9, -1.0764067e-9, 3.3033401e+2
-0.109, -9.3626014e-9, -1.0769021e-9, 3.3066736e+2
-0.108, -9.3841930e-9, -1.0719654e-9, 3.3100070e+2
-0.107, -9.3920054e-9, -1.0739544e-9, 3.3133405e+2
-0.106, -9.4111368e-9, -1.0703918e-9, 3.3166739e+2
-0.105, -9.4307477e-9, -1.0719334e-9, 3.3200073e+2
-0.104, -9.4342543e-9, -1.0675959e-9, 3.3233408e+2
-0.103, -9.4792041e-9, -1.0672364e-9, 3.3266742e+2
-0.102, -9.4822790e-9, -1.0638495e-9, 3.3300076e+2
-0.101, -9.4946611e-9, -1.0634260e-9, 3.3333411e+2
-0.100, -9.5020178e-9, -1.0639053e-9, 3.3366745e+2
-0.099, -9.5279793e-9, -1.0631864e-9, 3.3400079e+2
-0.098, -9.5667696e-9, -1.0621879e-9, 3.3433414e+2
-0.097, -9.5740464e-9, -1.0615329e-9, 3.3466748e+2
-0.096, -9.5826422e-9, -1.0640652e-9, 3.3500082e+2
-0.095, -9.6285255e-9, -1.0603426e-9, 3.3533417e+2
-0.094, -9.6232293e-9, -1.0612293e-9, 3.3566751e+2
-0.093, -9.6574189e-9, -1.0502057e-9, 3.3600085e+2
-0.092, -9.6912807e-9, -1.0531055e-9, 3.3633420e+2
-0.091, -9.6885246e-9, -1.0559013e-9, 3.3666754e+2
-0.090, -9.7261328e-9, -1.0530495e-9, 3.3700089e+2
-0.089, -9.7476764e-9, -1.0583456e-9, 3.3733423e+2
-0.088, -9.7739017e-9, -1.0482087e-9, 3.3766757e+2
-0.087, -9.7879207e-9, -1.0465951e-9, 3.3800092e+2
-0.086, -9.8223492e-9, -1.0462436e-9, 3.3833426e+2
-0.085, -9.8484554e-9, -1.0507889e-9, 3.3866760e+2
-0.084, -9.8774997e-9, -1.0465072e-9, 3.3900095e+2
-0.083, -9.8908162e-9, -1.0495268e-9, 3.3933429e+2
-0.082, -9.9364517e-9, -1.0450054e-9, 3.3966763e+2
-0.081, -9.9324335e-9, -1.0442626e-9, 3.4000098e+2
-0.080, -9.9728146e-9, -1.0402685e-9, 3.4033432e+2
-0.079, -1.0008441e-8, -1.0509806e-9, 3.4066766e+2
-0.078, -1.0028715e-8, -1.0336064e-9, 3.4100101e+2
-0.077, -1.0069047e-8, -1.0425850e-9, 3.4133435e+2
-0.076, -1.0118549e-8, -1.0389745e-9, 3.4166769e+2
-0.075, -1.0125492e-8, -1.0343494e-9, 3.4200104e+2
-0.074, -1.0161669e-8, -1.0411871e-9, 3.4233438e+2
-0.073, -1.0199645e-8, -1.0454129e-9, 3.4266772e+2
-0.072, -1.0219519e-8, -1.0345730e-9, 3.4300107e+2
-0.071, -1.0254148e-8, -1.0339899e-9, 3.4333441e+2
-0.070, -1.0286013e-8, -1.0365221e-9, 3.4366776e+2
-0.069, -1.0324610e-8, -1.0308585e-9, 3.4400110e+2
-0.068, -1.0350796e-8, -1.0309703e-9, 3.4433444e+2
-0.067, -1.0385145e-8, -1.0315375e-9, 3.4466779e+2
-0.066, -1.0414190e-8, -1.0312738e-9, 3.4500113e+2
-0.065, -1.0448291e-8, -1.0302355e-9, 3.4533447e+2
-0.064, -1.0492042e-8, -1.0274716e-9, 3.4566782e+2
-0.063, -1.0553479e-8, -1.0260337e-9, 3.4600116e+2
-0.062, -1.0559861e-8, -1.0274716e-9, 3.4633450e+2
-0.061, -1.0606160e-8, -1.0278790e-9, 3.4666785e+2
-0.060, -1.0642889e-8, -1.0242444e-9, 3.4700119e+2
-0.059, -1.0685794e-8, -1.0234376e-9, 3.4733453e+2
-0.058, -1.0714719e-8, -1.0226068e-9, 3.4766788e+2
-0.057, -1.0770324e-8, -1.0212488e-9, 3.4800122e+2
-0.056, -1.0802757e-8, -1.0236372e-9, 3.4833456e+2
-0.055, -1.0848487e-8, -1.0185568e-9, 3.4866791e+2
-0.054, -1.0856700e-8, -1.0177100e-9, 3.4900125e+2
-0.053, -1.0925421e-8, -1.0254425e-9, 3.4933459e+2
-0.052, -1.0959211e-8, -1.0223271e-9, 3.4966794e+2
-0.051, -1.1001508e-8, -1.0246917e-9, 3.5000128e+2
-0.050, -1.1053608e-8, -1.0208094e-9, 3.5033463e+2
-0.049, -1.1093332e-8, -1.0171349e-9, 3.5066797e+2
-0.048, -1.1134822e-8, -1.0216242e-9, 3.5100131e+2
-0.047, -1.1194638e-8, -1.0199707e-9, 3.5133466e+2
-0.046, -1.1214999e-8, -1.0188204e-9, 3.5166800e+2
-0.045, -1.1270628e-8, -1.0163840e-9, 3.5200134e+2
-0.044, -1.1310321e-8, -1.0101933e-9, 3.5233469e+2
-0.043, -1.1344646e-8, -1.0173745e-9, 3.5266803e+2
-0.042, -1.1396145e-8, -1.0125017e-9, 3.5300137e+2
-0.041, -1.1440902e-8, -1.0149143e-9, 3.5333472e+2
-0.040, -1.1485501e-8, -1.0123101e-9, 3.5366806e+2
-0.039, -1.1518109e-8, -1.0113195e-9, 3.5400140e+2
-0.038, -1.1548551e-8, -1.0110159e-9, 3.5433475e+2
-0.037, -1.1614254e-8, -1.0100255e-9, 3.5466809e+2
-0.036, -1.1661391e-8, -1.0079965e-9, 3.5500143e+2
-0.035, -1.1702170e-8, -1.0054563e-9, 3.5533478e+2
-0.034, -1.1765884e-8, -1.0097938e-9, 3.5566812e+2
-0.033, -1.1789409e-8, -1.0063349e-9, 3.5600146e+2
-0.032, -1.1829445e-8, -1.0100015e-9, 3.5633481e+2
-0.031, -1.1879475e-8, -1.0040024e-9, 3.5666815e+2
-0.030, -1.1901387e-8, -1.0002960e-9, 3.5700150e+2
-0.029, -1.1955866e-8, -1.0004956e-9, 3.5733484e+2
-0.028, -1.2016335e-8, -1.0001042e-9, 3.5766818e+2
-0.027, -1.2042641e-8, -1.0036270e-9, 3.5800153e+2
-0.026, -1.2094108e-8, -9.9669328e-10, 3.5833487e+2
-0.025, -1.2125478e-8, -9.9436881e-10, 3.5866821e+2
-0.024, -1.2168342e-8, -9.9900188e-10, 3.5900156e+2
-0.023, -1.2212708e-8, -9.9669328e-10, 3.5933490e+2
-0.022, -1.2250180e-8, -9.9857056e-10, 3.5966824e+2
-0.021, -1.2294307e-8, -9.9055841e-10, 3.6000159e+2
-0.020, -1.2323207e-8, -1.0015181e-9, 3.6033493e+2
-0.019, -1.2365872e-8, -9.9634978e-10, 3.6066827e+2
-0.018, -1.2418090e-8, -9.9162878e-10, 3.6100162e+2
-0.017, -1.2423339e-8, -9.9162090e-10, 3.6133496e+2
-0.016, -1.2463671e-8, -9.9035868e-10, 3.6166830e+2
-0.015, -1.2515505e-8, -9.9257935e-10, 3.6200165e+2
-0.014, -1.2524269e-8, -9.8917652e-10, 3.6233499e+2
-0.013, -1.2561486e-8, -9.9015895e-10, 3.6266833e+2
-0.012, -1.2598885e-8, -9.8576558e-10, 3.6300168e+2
-0.011, -1.2611427e-8, -9.8138808e-10, 3.6333502e+2
-0.010, -1.2649140e-8, -9.8560582e-10, 3.6366837e+2
-0.009, -1.2673079e-8, -9.8659636e-10, 3.6400171e+2
-0.008, -1.2702308e-8, -9.8694775e-10, 3.6433505e+2
-0.007, -1.2725625e-8, -9.8264219e-10, 3.6466840e+2
-0.006, -1.2734780e-8, -9.8012598e-10, 3.6500174e+2
-0.005, -1.2774921e-8, -9.8191533e-10, 3.6533508e+2
-0.004, -1.2797734e-8, -9.8067710e-10, 3.6566843e+2
-0.003, -1.2809060e-8, -9.8149189e-10, 3.6600177e+2
-0.002, -1.2861695e-8, -9.8099662e-10, 3.6633511e+2
-0.001, -1.2859826e-8, -9.8255437e-10, 3.6666846e+2
-0.000, -1.2866032e-8, -9.8001407e-10, 3.6700180e+2
0.001, -1.2903640e-8, -9.7913544e-10, 3.6733514e+2
0.002, -1.2910214e-8, -9.7925523e-10, 3.6766849e+2
0.003, -1.2915415e-8, -9.8063713e-10, 3.6800183e+2
0.004, -1.2949013e-8, -9.7980635e-10, 3.6833517e+2
0.005, -1.2948319e-8, -9.7752983e-10, 3.6866852e+2
0.006, -1.2964854e-8, -9.7766550e-10, 3.6900186e+2
0.007, -1.2991358e-8, -9.7622777e-10, 3.6933521e+2
0.008, -1.2999258e-8, -9.7613184e-10, 3.6966855e+2
0.009, -1.3014620e-8, -9.7541297e-10, 3.7000189e+2
0.010, -1.3015450e-8, -9.7451036e-10, 3.7033524e+2
0.011, -1.3047323e-8, -9.7409492e-10, 3.7066858e+2
0.012, -1.3055518e-8, -9.7726616e-10, 3.7100192e+2
0.013, -1.3061782e-8, -9.7438246e-10, 3.7133527e+2
0.014, -1.3093534e-8, -9.7635555e-10, 3.7166861e+2
0.015, -1.3096354e-8, -9.7684283e-10, 3.7200195e+2
0.016, -1.3104542e-8, -9.7043629e-10, 3.7233530e+2
0.017, -1.3152734e-8, -9.7418273e-10, 3.7266864e+2
0.018, -1.3141767e-8, -9.7539687e-10, 3.7300198e+2
0.019, -1.3149874e-8, -9.7081176e-10, 3.7333533e+2
0.020, -1.3202876e-8, -9.7166653e-10, 3.7366867e+2
0.021, -1.3194888e-8, -9.7332009e-10, 3.7400201e+2
0.022, -1.3208403e-8, -9.7022068e-10, 3.7433536e+2
0.023, -1.3223724e-8, -9.7186614e-10, 3.7466870e+2
0.024, -1.3235675e-8, -9.7016473e-10, 3.7500204e+2
0.025, -1.3260966e-8, -9.6939790e-10, 3.7533539e+2
0.026, -1.3263154e-8, -9.6547570e-10, 3.7566873e+2
0.027, -1.3303686e-8, -9.6279973e-10, 3.7600208e+2
0.028, -1.3307073e-8, -9.6386210e-10, 3.7633542e+2
0.029, -1.3309365e-8, -9.6663400e-10, 3.7666876e+2
0.030, -1.3358268e-8, -9.6243225e-10, 3.7700211e+2
0.031, -1.3361752e-8, -9.6406982e-10, 3.7733545e+2
0.032, -1.3395757e-8, -9.6244823e-10, 3.7766879e+2
0.033, -1.3415280e-8, -9.6029140e-10, 3.7800214e+2
0.034, -1.3437535e-8, -9.6537989e-10, 3.7833548e+2
0.035, -1.3453886e-8, -9.6285557e-10, 3.7866882e+2
0.036, -1.3485559e-8, -9.5748764e-10, 3.7900217e+2
0.037, -1.3496918e-8, -9.6167330e-10, 3.7933551e+2
0.038, -1.3534965e-8, -9.5588992e-10, 3.7966885e+2
0.039, -1.3548610e-8, -9.5938080e-10, 3.8000220e+2
0.040, -1.3578909e-8, -9.5898933e-10, 3.8033554e+2
0.041, -1.3603544e-8, -9.5754349e-10, 3.8066888e+2
0.042, -1.3637654e-8, -9.5505925e-10, 3.8100223e+2
0.043, -1.3671555e-8, -9.5504316e-10, 3.8133557e+2
0.044, -1.3689624e-8, -9.5644115e-10, 3.8166891e+2
0.045, -1.3719492e-8, -9.5250297e-10, 3.8200226e+2
0.046, -1.3770176e-8, -9.5525887e-10, 3.8233560e+2
0.047, -1.3774218e-8, -9.5251096e-10, 3.8266895e+2
0.048, -1.3798870e-8, -9.4984287e-10, 3.8300229e+2
0.049, -1.3857583e-8, -9.5275865e-10, 3.8333563e+2
0.050, -1.3877976e-8, -9.4906805e-10, 3.8366898e+2
0.051, -1.3915137e-8, -9.4727870e-10, 3.8400232e+2
0.052, -1.3953352e-8, -9.5183994e-10, 3.8433566e+2
0.053, -1.3985663e-8, -9.4646391e-10, 3.8466901e+2
0.054, -1.4022665e-8, -9.4787789e-10, 3.8500235e+2
0.055, -1.4061143e-8, -9.4480246e-10, 3.8533569e+2
0.056, -1.4091020e-8, -9.4929176e-10, 3.8566904e+2
0.057, -1.4138812e-8, -9.4824526e-10, 3.8600238e+2
0.058, -1.4162418e-8, -9.3919483e-10, 3.8633572e+2
0.059, -1.4233168e-8, -9.4465069e-10, 3.8666907e+2
0.060, -1.4263635e-8, -9.3795660e-10, 3.8700241e+2
0.061, -1.4293670e-8, -9.4387587e-10, 3.8733575e+2
0.062, -1.4369494e-8, -9.3755725e-10, 3.8766910e+2
0.063, -1.4377290e-8, -9.3803654e-10, 3.8800244e+2
0.064, -1.4434061e-8, -9.3417030e-10, 3.8833578e+2
0.065, -1.4511354e-8, -9.3881936e-10, 3.8866913e+2
0.066, -1.4528992e-8, -9.3568797e-10, 3.8900247e+2
0.067, -1.4584574e-8, -9.3525665e-10, 3.8933582e+2
0.068, -1.4650595e-8, -9.3494512e-10, 3.8966916e+2
0.069, -1.4686502e-8, -9.3345132e-10, 3.9000250e+2
0.070, -1.4755064e-8, -9.3453767e-10, 3.9033585e+2
0.071, -1.4800229e-8, -9.3079128e-10, 3.9066919e+2
0.072, -1.4867497e-8, -9.3421015e-10, 3.9100253e+2
0.073, -1.4922511e-8, -9.3059954e-10, 3.9133588e+2
0.074, -1.4978587e-8, -9.3036795e-10, 3.9166922e+2
0.075, -1.5055386e-8, -9.2893804e-10, 3.9200256e+2
0.076, -1.5111151e-8, -9.2698099e-10, 3.9233591e+2
0.077, -1.5174432e-8, -9.2351404e-10, 3.9266925e+2
0.078, -1.5255408e-8, -9.2357799e-10, 3.9300259e+2
0.079, -1.5301284e-8, -9.3105484e-10, 3.9333594e+2
0.080, -1.5359717e-8, -9.2549518e-10, 3.9366928e+2
0.081, -1.5455415e-8, -9.2233987e-10, 3.9400262e+2
0.082, -1.5508832e-8, -9.2352209e-10, 3.9433597e+2
0.083, -1.5591390e-8, -9.2553509e-10, 3.9466931e+2
0.084, -1.5657378e-8, -9.1959190e-10, 3.9500266e+2
0.085, -1.5730869e-8, -9.2215613e-10, 3.9533600e+2
0.086, -1.5811750e-8, -9.1891295e-10, 3.9566934e+2
0.087, -1.5882277e-8, -9.2009517e-10, 3.9600269e+2
0.088, -1.5956831e-8, -9.1839375e-10, 3.9633603e+2
0.089, -1.6053734e-8, -9.1820201e-10, 3.9666937e+2
0.090, -1.6128919e-8, -9.1792240e-10, 3.9700272e+2
0.091, -1.6215868e-8, -9.1771468e-10, 3.9733606e+2
0.092, -1.6294535e-8, -9.1802627e-10, 3.9766940e+2
0.093, -1.6368034e-8, -9.1250640e-10, 3.9800275e+2
0.094, -1.6468780e-8, -9.1098873e-10, 3.9833609e+2
0.095, -1.6551649e-8, -9.1060526e-10, 3.9866943e+2
0.096, -1.6633143e-8, -9.0883195e-10, 3.9900278e+2
0.097, -1.6731333e-8, -9.1169966e-10, 3.9933612e+2
0.098, -1.6803419e-8, -9.0998226e-10, 3.9966946e+2
0.099, -1.6744211e-8, -9.0706653e-10, 4.0000281e+2
