Dec. 20, 2005   22:59:29
Square Wave Voltammetry
File: d:\ida_biofilms\12_10_18_dphzstar\a_760b\10um_pyo\a_10um_pyo_swvfast_3_3.txt
Data Source:  Experiment
Instrument Model:  CHI760E
Header: 
Note: 

Init E (V) = 0.1
Final E (V) = -0.5
Incr E (V) = 0.001
Amplitude (V) = 0.025
Frequency (Hz) = 300
Quiet Time (sec) = 2
Sensitivity (A/V) = 1e-6
Sens 2 (A/V) = 1e-6

Potential/V, i1/A, i2/A

0.099, 1.5975299e-6, 1.9583322e-6
0.098, 1.5130805e-6, 1.9911161e-6
0.097, 1.5558578e-6, 1.9717556e-6
0.096, 1.5150431e-6, 1.9941997e-6
0.095, 1.5534666e-6, 2.0586458e-6
0.094, 1.5563195e-6, 2.1040285e-6
0.093, 1.5508447e-6, 2.1064361e-6
0.092, 1.5691328e-6, 2.0887580e-6
0.091, 1.5346011e-6, 2.0807599e-6
0.090, 1.5750036e-6, 2.0428147e-6
0.089, 1.5418241e-6, 2.0647803e-6
0.088, 1.5626190e-6, 2.0832995e-6
0.087, 1.5769990e-6, 2.1251367e-6
0.086, 1.5451221e-6, 2.1135436e-6
0.085, 1.5881467e-6, 2.0784514e-6
0.084, 1.5416426e-6, 2.0613338e-6
0.083, 1.5631301e-6, 2.0523134e-6
0.082, 1.5533017e-6, 2.0540779e-6
0.081, 1.5419560e-6, 2.0572936e-6
0.080, 1.5721837e-6, 2.1141705e-6
0.079, 1.5333148e-6, 2.1166934e-6
0.078, 1.5715075e-6, 2.0745429e-6
0.077, 1.5385424e-6, 2.0558589e-6
0.076, 1.5661810e-6, 2.0340085e-6
0.075, 1.5691164e-6, 2.0527752e-6
0.074, 1.5389712e-6, 2.0835305e-6
0.073, 1.5647463e-6, 2.0828379e-6
0.072, 1.5208313e-6, 2.1136591e-6
0.071, 1.5629818e-6, 2.1031051e-6
0.070, 1.5518669e-6, 2.0715745e-6
0.069, 1.5526915e-6, 2.0056113e-6
0.068, 1.5747727e-6, 2.0275938e-6
0.067, 1.5258609e-6, 2.0626696e-6
0.066, 1.5547034e-6, 2.0890384e-6
0.065, 1.5232883e-6, 2.1066176e-6
0.064, 1.5459468e-6, 2.0426828e-6
0.063, 1.5538624e-6, 2.0843056e-6
0.062, 1.5355245e-6, 2.0276761e-6
0.061, 1.5597002e-6, 2.0066009e-6
0.060, 1.5100297e-6, 2.0480093e-6
0.059, 1.5550497e-6, 2.0869111e-6
0.058, 1.5258775e-6, 2.0972839e-6
0.057, 1.5368438e-6, 2.0476793e-6
0.056, 1.5425662e-6, 2.0696123e-6
0.055, 1.5091393e-6, 2.0263240e-6
0.054, 1.5497892e-6, 2.0225145e-6
0.053, 1.5096834e-6, 2.0462942e-6
0.052, 1.5366790e-6, 2.0442328e-6
0.051, 1.5374870e-6, 2.1261096e-6
0.050, 1.5183412e-6, 2.0279563e-6
0.049, 1.5471505e-6, 2.0517527e-6
0.048, 1.5121076e-6, 2.0124221e-6
0.047, 1.5503992e-6, 2.0115317e-6
0.046, 1.5122561e-6, 2.0592395e-6
0.045, 1.5199737e-6, 2.0636921e-6
0.044, 1.5379652e-6, 2.1117626e-6
0.043, 1.5139710e-6, 2.0565844e-6
0.042, 1.5559237e-6, 2.0465418e-6
0.041, 1.4989480e-6, 1.9696449e-6
0.040, 1.5308248e-6, 1.9983554e-6
0.039, 1.5214084e-6, 2.0711293e-6
0.038, 1.5108214e-6, 2.0142031e-6
0.037, 1.5309402e-6, 2.0991802e-6
0.036, 1.4971340e-6, 2.0293251e-6
0.035, 1.5458148e-6, 2.0349155e-6
0.034, 1.5083313e-6, 2.0127684e-6
0.033, 1.5110193e-6, 1.9869440e-6
0.032, 1.5240964e-6, 2.0660502e-6
0.031, 1.4933081e-6, 2.0110369e-6
0.030, 1.5387568e-6, 2.0699749e-6
0.029, 1.4909335e-6, 2.0407203e-6
0.028, 1.5333808e-6, 2.0482730e-6
0.027, 1.5197429e-6, 2.0093219e-6
0.026, 1.5131136e-6, 1.9609706e-6
0.025, 1.5286809e-6, 2.0562875e-6
0.024, 1.4737170e-6, 2.0385105e-6
0.023, 1.5358544e-6, 2.0598166e-6
0.022, 1.4922362e-6, 2.0215580e-6
0.021, 1.5344032e-6, 2.0176992e-6
0.020, 1.5317482e-6, 2.0191999e-6
0.019, 1.5061545e-6, 1.9621089e-6
0.018, 1.5255807e-6, 2.0155883e-6
0.017, 1.4748879e-6, 2.0139723e-6
0.016, 1.5180608e-6, 2.0495922e-6
0.015, 1.4947923e-6, 2.0524949e-6
0.014, 1.4932091e-6, 1.9985698e-6
0.013, 1.5187534e-6, 2.0283192e-6
0.012, 1.4798021e-6, 1.9622405e-6
0.011, 1.5126353e-6, 2.0245593e-6
0.010, 1.4677804e-6, 1.9973165e-6
0.009, 1.5075891e-6, 2.0367625e-6
0.008, 1.5095845e-6, 2.0445627e-6
0.007, 1.4914283e-6, 1.9968381e-6
0.006, 1.5217054e-6, 1.9875210e-6
0.005, 1.4726946e-6, 1.9587114e-6
0.004, 1.5132125e-6, 2.0335467e-6
0.003, 1.4842218e-6, 2.0172870e-6
0.002, 1.4975299e-6, 2.0045065e-6
0.001, 1.5151254e-6, 2.0333489e-6
-0.000, 1.4790601e-6, 1.9987019e-6
-0.001, 1.5067482e-6, 2.0337777e-6
-0.002, 1.4724308e-6, 1.9545723e-6
-0.003, 1.5101452e-6, 2.0069801e-6
-0.004, 1.4925495e-6, 2.0202717e-6
-0.005, 1.4868108e-6, 2.0168252e-6
-0.006, 1.4998385e-6, 2.0162645e-6
-0.007, 1.4625527e-6, 1.9781212e-6
-0.008, 1.5168240e-6, 1.9935896e-6
-0.009, 1.4817645e-6, 1.9560071e-6
-0.010, 1.5038293e-6, 1.9957333e-6
-0.011, 1.4956827e-6, 2.0224320e-6
-0.012, 1.4668569e-6, 2.0141701e-6
-0.013, 1.4980246e-6, 2.0278903e-6
-0.014, 1.4663127e-6, 1.9794240e-6
-0.015, 1.4973814e-6, 1.9872241e-6
-0.016, 1.4901914e-6, 1.9680288e-6
-0.017, 1.4767348e-6, 1.9823760e-6
-0.018, 1.4928133e-6, 1.9921549e-6
-0.019, 1.4622724e-6, 2.0144505e-6
-0.020, 1.4900265e-6, 2.0297375e-6
-0.021, 1.4658674e-6, 1.9875540e-6
-0.022, 1.4770482e-6, 1.9840579e-6
-0.023, 1.5035325e-6, 1.9533190e-6
-0.024, 1.4721174e-6, 2.0007960e-6
-0.025, 1.5064677e-6, 1.9981246e-6
-0.026, 1.4563523e-6, 1.9983720e-6
-0.027, 1.4931431e-6, 2.0122407e-6
-0.028, 1.4841393e-6, 2.0064854e-6
-0.029, 1.4794558e-6, 1.9688368e-6
-0.030, 1.4848979e-6, 1.9599483e-6
-0.031, 1.4580673e-6, 1.9697441e-6
-0.032, 1.4919559e-6, 2.0186062e-6
-0.033, 1.4728100e-6, 1.9879167e-6
-0.034, 1.4734202e-6, 2.0235368e-6
-0.035, 1.4866130e-6, 1.9985532e-6
-0.036, 1.4610027e-6, 1.9706179e-6
-0.037, 1.4986017e-6, 1.9453046e-6
-0.038, 1.4523450e-6, 1.9299682e-6
-0.039, 1.4795878e-6, 1.9939030e-6
-0.040, 1.4751023e-6, 2.0139064e-6
-0.041, 1.4736017e-6, 2.0111029e-6
-0.042, 1.4920054e-6, 2.0069801e-6
-0.043, 1.4562697e-6, 1.9801660e-6
-0.044, 1.4885753e-6, 1.9401100e-6
-0.045, 1.4626353e-6, 1.9505651e-6
-0.046, 1.4794889e-6, 1.9802978e-6
-0.047, 1.4811544e-6, 2.0045559e-6
-0.048, 1.4574900e-6, 2.0090911e-6
-0.049, 1.4911643e-6, 1.9983554e-6
-0.050, 1.4535487e-6, 1.9640052e-6
-0.051, 1.4848648e-6, 1.9859874e-6
-0.052, 1.4702046e-6, 1.9368283e-6
-0.053, 1.4594360e-6, 1.9718714e-6
-0.054, 1.4879156e-6, 1.9859378e-6
-0.055, 1.4433244e-6, 1.9920560e-6
-0.056, 1.4789612e-6, 2.0041932e-6
-0.057, 1.4482057e-6, 1.9565841e-6
-0.058, 1.4736016e-6, 1.9739821e-6
-0.059, 1.4797198e-6, 1.9342392e-6
-0.060, 1.4542579e-6, 1.9714425e-6
-0.061, 1.4772791e-6, 1.9664128e-6
-0.062, 1.4421207e-6, 1.9864985e-6
-0.063, 1.4800496e-6, 2.0083819e-6
-0.064, 1.4590568e-6, 1.9814192e-6
-0.065, 1.4679453e-6, 1.9544734e-6
-0.066, 1.4852276e-6, 1.9332497e-6
-0.067, 1.4406201e-6, 1.9435070e-6
-0.068, 1.4807092e-6, 1.9801166e-6
-0.069, 1.4303957e-6, 1.9882632e-6
-0.070, 1.4703364e-6, 2.0146483e-6
-0.071, 1.4649934e-6, 1.9717063e-6
-0.072, 1.4553134e-6, 1.9598988e-6
-0.073, 1.4760423e-6, 1.9460467e-6
-0.074, 1.4376187e-6, 1.9228769e-6
-0.075, 1.4728760e-6, 1.9758454e-6
-0.076, 1.4366786e-6, 1.9790941e-6
-0.077, 1.4563852e-6, 1.9705519e-6
-0.078, 1.4686379e-6, 1.9964261e-6
-0.079, 1.4377176e-6, 1.9578870e-6
-0.080, 1.4790435e-6, 1.9718711e-6
-0.081, 1.4323252e-6, 1.9162642e-6
-0.082, 1.4648285e-6, 1.9714259e-6
-0.083, 1.4553957e-6, 1.9928145e-6
-0.084, 1.4502177e-6, 1.9601957e-6
-0.085, 1.4685389e-6, 1.9791273e-6
-0.086, 1.4268007e-6, 1.9477452e-6
-0.087, 1.4793239e-6, 1.9721022e-6
-0.088, 1.4412632e-6, 1.9074910e-6
-0.089, 1.4573582e-6, 1.9095196e-6
-0.090, 1.4624704e-6, 1.9959643e-6
-0.091, 1.4406035e-6, 1.9781871e-6
-0.092, 1.4751023e-6, 2.0113832e-6
-0.093, 1.4322592e-6, 1.9739821e-6
-0.094, 1.4650263e-6, 1.9590909e-6
-0.095, 1.4722824e-6, 1.9719701e-6
-0.096, 1.4479421e-6, 1.8811552e-6
-0.097, 1.4707157e-6, 1.9738500e-6
-0.098, 1.4279057e-6, 1.9489655e-6
-0.099, 1.4746076e-6, 1.9887414e-6
-0.100, 1.4340072e-6, 1.9657200e-6
-0.101, 1.4571109e-6, 1.9397471e-6
-0.102, 1.4717547e-6, 1.9734707e-6
-0.103, 1.4430112e-6, 1.8874218e-6
-0.104, 1.4725297e-6, 1.9139884e-6
-0.105, 1.4236509e-6, 1.9466734e-6
-0.106, 1.4585786e-6, 1.9693316e-6
-0.107, 1.4477275e-6, 2.0117955e-6
-0.108, 1.4455672e-6, 1.9339589e-6
-0.109, 1.4757289e-6, 1.9544075e-6
-0.110, 1.4356727e-6, 1.9321449e-6
-0.111, 1.4695944e-6, 1.9157530e-6
-0.112, 1.4356727e-6, 1.9478441e-6
-0.113, 1.4651582e-6, 1.9500867e-6
-0.114, 1.4632124e-6, 1.9960962e-6
-0.115, 1.4374867e-6, 1.9627189e-6
-0.116, 1.4681597e-6, 1.9400111e-6
-0.117, 1.4353266e-6, 1.9363995e-6
-0.118, 1.4724473e-6, 1.9263402e-6
-0.119, 1.4468865e-6, 1.9341237e-6
-0.120, 1.4357388e-6, 1.9327385e-6
-0.121, 1.4658510e-6, 1.9461290e-6
-0.122, 1.4289280e-6, 1.9851300e-6
-0.123, 1.4668403e-6, 1.9652418e-6
-0.124, 1.4268501e-6, 1.9292095e-6
-0.125, 1.4526088e-6, 1.9290776e-6
-0.126, 1.4520317e-6, 1.9143017e-6
-0.127, 1.4389875e-6, 1.9492788e-6
-0.128, 1.4568469e-6, 1.9459312e-6
-0.129, 1.4313027e-6, 1.9529232e-6
-0.130, 1.4659499e-6, 2.0063205e-6
-0.131, 1.4402573e-6, 1.9438862e-6
-0.132, 1.4501518e-6, 1.9142028e-6
-0.133, 1.4595679e-6, 1.9067327e-6
-0.134, 1.4255968e-6, 1.9083816e-6
-0.135, 1.4690338e-6, 1.9582167e-6
-0.136, 1.4092381e-6, 1.9373397e-6
-0.137, 1.4582322e-6, 1.9823592e-6
-0.138, 1.4494921e-6, 1.9760105e-6
-0.139, 1.4421207e-6, 1.9320294e-6
-0.140, 1.4639545e-6, 1.9408685e-6
-0.141, 1.4250527e-6, 1.8756804e-6
-0.142, 1.4706663e-6, 1.9613665e-6
-0.143, 1.4251516e-6, 1.9477782e-6
-0.144, 1.4537468e-6, 1.9358883e-6
-0.145, 1.4555771e-6, 1.9801660e-6
-0.146, 1.4193140e-6, 1.9230256e-6
-0.147, 1.4722164e-6, 1.9426659e-6
-0.148, 1.4178297e-6, 1.8838764e-6
-0.149, 1.4529717e-6, 1.9028242e-6
-0.150, 1.4530872e-6, 1.9673691e-6
-0.151, 1.4332156e-6, 1.9364820e-6
-0.152, 1.4578363e-6, 1.9840086e-6
-0.153, 1.4185058e-6, 1.9502188e-6
-0.154, 1.4700561e-6, 1.9426825e-6
-0.155, 1.4301813e-6, 1.9429629e-6
-0.156, 1.4510257e-6, 1.8856408e-6
-0.157, 1.4619097e-6, 1.9738995e-6
-0.158, 1.4372558e-6, 1.9339918e-6
-0.159, 1.4613490e-6, 1.9597173e-6
-0.160, 1.4192644e-6, 1.9464755e-6
-0.161, 1.4515699e-6, 1.9227452e-6
-0.162, 1.4431926e-6, 1.9475804e-6
-0.163, 1.4433740e-6, 1.8749218e-6
-0.164, 1.4695779e-6, 1.9146646e-6
-0.165, 1.4194788e-6, 1.9335796e-6
-0.166, 1.4648780e-6, 1.9555123e-6
-0.167, 1.4327375e-6, 1.9661159e-6
-0.168, 1.4456991e-6, 1.9140875e-6
-0.169, 1.4683080e-6, 1.9534841e-6
-0.170, 1.4372393e-6, 1.8815181e-6
-0.171, 1.4606069e-6, 1.8907695e-6
-0.172, 1.4162136e-6, 1.9264060e-6
-0.173, 1.4418897e-6, 1.9530221e-6
-0.174, 1.4435060e-6, 1.9644340e-6
-0.175, 1.4289610e-6, 1.9257300e-6
-0.176, 1.4685554e-6, 1.9382135e-6
-0.177, 1.4287467e-6, 1.9238996e-6
-0.178, 1.4630309e-6, 1.8838105e-6
-0.179, 1.4327538e-6, 1.9034838e-6
-0.180, 1.4567975e-6, 1.9298691e-6
-0.181, 1.4641194e-6, 1.9668414e-6
-0.182, 1.4341886e-6, 1.9656707e-6
-0.183, 1.4619757e-6, 1.9359543e-6
-0.184, 1.4208310e-6, 1.9201395e-6
-0.185, 1.4597495e-6, 1.9055286e-6
-0.186, 1.4382288e-6, 1.8812873e-6
-0.187, 1.4397625e-6, 1.9193644e-6
-0.188, 1.4664942e-6, 1.9319966e-6
-0.189, 1.4289445e-6, 1.9507961e-6
-0.190, 1.4650428e-6, 1.9488996e-6
-0.191, 1.4278561e-6, 1.9009938e-6
-0.192, 1.4599802e-6, 1.9212280e-6
-0.193, 1.4583312e-6, 1.9057761e-6
-0.194, 1.4339248e-6, 1.9282365e-6
-0.195, 1.4664117e-6, 1.9248889e-6
-0.196, 1.4205177e-6, 1.9352451e-6
-0.197, 1.4587930e-6, 1.9564027e-6
-0.198, 1.4411972e-6, 1.9243942e-6
-0.199, 1.4501848e-6, 1.9026097e-6
-0.200, 1.4641689e-6, 1.8907365e-6
-0.201, 1.4245086e-6, 1.8814521e-6
-0.202, 1.4621735e-6, 1.9282695e-6
-0.203, 1.4223317e-6, 1.9261092e-6
-0.204, 1.4638885e-6, 1.9607069e-6
-0.205, 1.4544557e-6, 1.9288962e-6
-0.206, 1.4453364e-6, 1.9178638e-6
-0.207, 1.4681926e-6, 1.9008289e-6
-0.208, 1.4226450e-6, 1.8713763e-6
-0.209, 1.4705344e-6, 1.9384938e-6
-0.210, 1.4221339e-6, 1.9165941e-6
-0.211, 1.4528562e-6, 1.9322770e-6
-0.212, 1.4550660e-6, 1.9511092e-6
-0.213, 1.4261907e-6, 1.9226627e-6
-0.214, 1.4735685e-6, 1.9293250e-6
-0.215, 1.4180275e-6, 1.8647470e-6
-0.216, 1.4620581e-6, 1.9239160e-6
-0.217, 1.4461609e-6, 1.9395493e-6
-0.218, 1.4468865e-6, 1.9297040e-6
-0.219, 1.4506136e-6, 1.9540446e-6
-0.220, 1.4284664e-6, 1.8966073e-6
-0.221, 1.4687864e-6, 1.9250042e-6
-0.222, 1.4306927e-6, 1.8754660e-6
-0.223, 1.4440831e-6, 1.8601130e-6
-0.224, 1.4577045e-6, 1.9454531e-6
-0.225, 1.4343040e-6, 1.9314523e-6
-0.226, 1.4767350e-6, 1.9637578e-6
-0.227, 1.4177967e-6, 1.9302154e-6
-0.228, 1.4769987e-6, 1.9223990e-6
-0.229, 1.4541095e-6, 1.9424847e-6
-0.230, 1.4364313e-6, 1.8674680e-6
-0.231, 1.4679124e-6, 1.9532035e-6
-0.232, 1.4251352e-6, 1.9130157e-6
-0.233, 1.4745085e-6, 1.9698098e-6
-0.234, 1.4395481e-6, 1.9305949e-6
-0.235, 1.4629320e-6, 1.8950076e-6
-0.236, 1.4668404e-6, 1.9353770e-6
-0.237, 1.4352274e-6, 1.8518841e-6
-0.238, 1.4737170e-6, 1.9151594e-6
-0.239, 1.4244260e-6, 1.8995754e-6
-0.240, 1.4674999e-6, 1.9508291e-6
-0.241, 1.4488983e-6, 1.9651595e-6
-0.242, 1.4421537e-6, 1.8865478e-6
-0.243, 1.4771306e-6, 1.9378176e-6
-0.244, 1.4297856e-6, 1.8669073e-6
-0.245, 1.4688853e-6, 1.8856904e-6
-0.246, 1.4335949e-6, 1.9082991e-6
-0.247, 1.4688028e-6, 1.9234378e-6
-0.248, 1.4727277e-6, 1.9862018e-6
-0.249, 1.4427474e-6, 1.9201229e-6
-0.250, 1.4711940e-6, 1.8966073e-6
-0.251, 1.4349637e-6, 1.8977780e-6
-0.252, 1.4721010e-6, 1.8833485e-6
-0.253, 1.4537138e-6, 1.9253011e-6
-0.254, 1.4502341e-6, 1.8973823e-6
-0.255, 1.4828859e-6, 1.9579695e-6
-0.256, 1.4336445e-6, 1.9361355e-6
-0.257, 1.4736676e-6, 1.9118447e-6
-0.258, 1.4355738e-6, 1.9000702e-6
-0.259, 1.4637732e-6, 1.8494270e-6
-0.260, 1.4723319e-6, 1.9441006e-6
-0.261, 1.4363653e-6, 1.9195788e-6
-0.262, 1.4699242e-6, 1.9266699e-6
-0.263, 1.4344359e-6, 1.9535169e-6
-0.264, 1.4771966e-6, 1.9423526e-6
-0.265, 1.4467876e-6, 1.9176496e-6
-0.266, 1.4573252e-6, 1.8615973e-6
-0.267, 1.4662633e-6, 1.9001527e-6
-0.268, 1.4369425e-6, 1.9297372e-6
-0.269, 1.4742449e-6, 1.9181771e-6
-0.270, 1.4246569e-6, 1.9388401e-6
-0.271, 1.4638720e-6, 1.9237675e-6
-0.272, 1.4646801e-6, 1.9294735e-6
-0.273, 1.4575066e-6, 1.9012906e-6
-0.274, 1.4672032e-6, 1.8673854e-6
-0.275, 1.4315995e-6, 1.9136091e-6
-0.276, 1.4738325e-6, 1.9244931e-6
-0.277, 1.4401088e-6, 1.9330187e-6
-0.278, 1.4595514e-6, 1.9517688e-6
-0.279, 1.4651254e-6, 1.9329034e-6
-0.280, 1.4340567e-6, 1.9149120e-6
-0.281, 1.4804453e-6, 1.8644171e-6
-0.282, 1.4228594e-6, 1.8831508e-6
-0.283, 1.4589908e-6, 1.9197603e-6
-0.284, 1.4541259e-6, 1.9516206e-6
-0.285, 1.4460290e-6, 1.9377353e-6
-0.286, 1.4648450e-6, 1.9311060e-6
-0.287, 1.4301979e-6, 1.9039126e-6
-0.288, 1.4685390e-6, 1.8800340e-6
-0.289, 1.4294392e-6, 1.8625371e-6
-0.290, 1.4476946e-6, 1.9061717e-6
-0.291, 1.4592877e-6, 1.9389390e-6
-0.292, 1.4343535e-6, 1.9220029e-6
-0.293, 1.4778561e-6, 1.9294073e-6
-0.294, 1.4274437e-6, 1.8936882e-6
-0.295, 1.4658344e-6, 1.8997569e-6
-0.296, 1.4586609e-6, 1.8743610e-6
-0.297, 1.4514545e-6, 1.8891203e-6
-0.298, 1.4683080e-6, 1.9221020e-6
-0.299, 1.4365138e-6, 1.9271481e-6
-0.300, 1.4683905e-6, 1.9399615e-6
-0.301, 1.4342711e-6, 1.8866137e-6
-0.302, 1.4648781e-6, 1.8987510e-6
-0.303, 1.4685389e-6, 1.8831342e-6
-0.304, 1.4523944e-6, 1.8672536e-6
-0.305, 1.4721669e-6, 1.9073757e-6
-0.306, 1.4159993e-6, 1.9115973e-6
-0.307, 1.4604749e-6, 1.9746417e-6
-0.308, 1.4541259e-6, 1.9266699e-6
-0.309, 1.4450395e-6, 1.8846349e-6
-0.310, 1.4626847e-6, 1.8968217e-6
-0.311, 1.4196437e-6, 1.8529727e-6
-0.312, 1.4577211e-6, 1.9234049e-6
-0.313, 1.4251847e-6, 1.8897636e-6
-0.314, 1.4659004e-6, 1.9232893e-6
-0.315, 1.4621075e-6, 1.9460961e-6
-0.316, 1.4420712e-6, 1.9042259e-6
-0.317, 1.4670383e-6, 1.9013895e-6
-0.318, 1.4208146e-6, 1.8455021e-6
-0.319, 1.4716063e-6, 1.9410829e-6
-0.320, 1.4502177e-6, 1.9054628e-6
-0.321, 1.4465072e-6, 1.9023296e-6
-0.322, 1.4790435e-6, 1.9305617e-6
-0.323, 1.4287466e-6, 1.8830847e-6
-0.324, 1.4571438e-6, 1.9100637e-6
-0.325, 1.4243271e-6, 1.8483056e-6
-0.326, 1.4545052e-6, 1.8569633e-6
-0.327, 1.4589743e-6, 1.9380982e-6
-0.328, 1.4336608e-6, 1.9046381e-6
-0.329, 1.4607222e-6, 1.9609213e-6
-0.330, 1.4228758e-6, 1.8911981e-6
-0.331, 1.4791260e-6, 1.9070624e-6
-0.332, 1.4319788e-6, 1.8802813e-6
-0.333, 1.4536148e-6, 1.8440016e-6
-0.334, 1.4639710e-6, 1.9278573e-6
-0.335, 1.4185388e-6, 1.9048031e-6
-0.336, 1.4624703e-6, 1.9317163e-6
-0.337, 1.4222493e-6, 1.9169568e-6
-0.338, 1.4552309e-6, 1.8993283e-6
-0.339, 1.4552968e-6, 1.9214258e-6
-0.340, 1.4463423e-6, 1.8530385e-6
-0.341, 1.4636578e-6, 1.8913796e-6
-0.342, 1.4176154e-6, 1.9079198e-6
-0.343, 1.4637071e-6, 1.9436720e-6
-0.344, 1.4326056e-6, 1.9598165e-6
-0.345, 1.4489314e-6, 1.8868776e-6
-0.346, 1.4607883e-6, 1.9390379e-6
-0.347, 1.4265534e-6, 1.8707331e-6
-0.348, 1.4696933e-6, 1.8661158e-6
-0.349, 1.4266523e-6, 1.9075571e-6
-0.350, 1.4511081e-6, 1.9130484e-6
-0.351, 1.4560553e-6, 1.9624881e-6
-0.352, 1.4390533e-6, 1.9043907e-6
-0.353, 1.4684729e-6, 1.9184574e-6
-0.354, 1.4302968e-6, 1.9109375e-6
-0.355, 1.4695449e-6, 1.8716567e-6
-0.356, 1.4412797e-6, 1.9184081e-6
-0.357, 1.4398615e-6, 1.9337444e-6
-0.358, 1.4685224e-6, 1.9661654e-6
-0.359, 1.4310058e-6, 1.9093216e-6
-0.360, 1.4749373e-6, 1.9060565e-6
-0.361, 1.4180441e-6, 1.9149284e-6
-0.362, 1.4612006e-6, 1.8769831e-6
-0.363, 1.4497889e-6, 1.9060894e-6
-0.364, 1.4430937e-6, 1.9112674e-6
-0.365, 1.4659333e-6, 1.9492459e-6
-0.366, 1.4282848e-6, 1.9629827e-6
-0.367, 1.4682915e-6, 1.9215577e-6
-0.368, 1.4434070e-6, 1.9015379e-6
-0.369, 1.4608213e-6, 1.9001527e-6
-0.370, 1.4792084e-6, 1.8996251e-6
-0.371, 1.4444788e-6, 1.9058585e-6
-0.372, 1.4629981e-6, 1.9171382e-6
-0.373, 1.4363984e-6, 1.9347999e-6
-0.374, 1.4547361e-6, 1.9705849e-6
-0.375, 1.4417249e-6, 1.9231738e-6
-0.376, 1.4496900e-6, 1.9120591e-6
-0.377, 1.4913787e-6, 1.8648952e-6
-0.378, 1.4261906e-6, 1.9264062e-6
-0.379, 1.4616624e-6, 1.9366139e-6
-0.380, 1.4419063e-6, 1.9219042e-6
-0.381, 1.4628661e-6, 1.9463928e-6
-0.382, 1.4773780e-6, 1.9269009e-6
-0.383, 1.4490304e-6, 1.9274451e-6
-0.384, 1.4774769e-6, 1.8735694e-6
-0.385, 1.4345679e-6, 1.8774779e-6
-0.386, 1.4786808e-6, 1.9540776e-6
-0.387, 1.4534993e-6, 1.9241138e-6
-0.388, 1.4609532e-6, 1.9478935e-6
-0.389, 1.4762895e-6, 1.9627846e-6
-0.390, 1.4391688e-6, 1.9327222e-6
-0.391, 1.4769987e-6, 1.9402419e-6
-0.392, 1.4369920e-6, 1.8875537e-6
-0.393, 1.4822923e-6, 1.9542260e-6
-0.394, 1.4711114e-6, 1.9706013e-6
-0.395, 1.4598318e-6, 1.9441172e-6
-0.396, 1.4839250e-6, 1.9523131e-6
-0.397, 1.4336939e-6, 1.9124714e-6
-0.398, 1.4881631e-6, 1.9612016e-6
-0.399, 1.4538291e-6, 1.8873064e-6
-0.400, 1.4761412e-6, 1.8711453e-6
-0.401, 1.4824572e-6, 1.9536983e-6
-0.402, 1.4398614e-6, 1.9410993e-6
-0.403, 1.4784499e-6, 2.0040611e-6
-0.404, 1.4455342e-6, 1.9200900e-6
-0.405, 1.4797361e-6, 1.9483389e-6
-0.406, 1.4783510e-6, 1.9440513e-6
-0.407, 1.4705179e-6, 1.8782364e-6
-0.408, 1.4886742e-6, 1.9534673e-6
-0.409, 1.4498219e-6, 1.9344041e-6
-0.410, 1.4876847e-6, 1.9815677e-6
-0.411, 1.4630311e-6, 1.9652089e-6
-0.412, 1.4820778e-6, 1.9360696e-6
-0.413, 1.4970351e-6, 1.9720526e-6
-0.414, 1.4666260e-6, 1.8958981e-6
-0.415, 1.4954190e-6, 1.9396482e-6
-0.416, 1.4484202e-6, 1.9557101e-6
-0.417, 1.4901914e-6, 1.9657366e-6
-0.418, 1.4915602e-6, 2.0174023e-6
-0.419, 1.4757288e-6, 1.9674517e-6
-0.420, 1.4997396e-6, 1.9649615e-6
-0.421, 1.4592216e-6, 1.9129825e-6
-0.422, 1.5081168e-6, 1.9222505e-6
-0.423, 1.4744592e-6, 1.9778738e-6
-0.424, 1.4743766e-6, 1.9443646e-6
-0.425, 1.5126848e-6, 2.0062052e-6
-0.426, 1.4838754e-6, 1.9519998e-6
-0.427, 1.5128827e-6, 1.9551824e-6
-0.428, 1.4580178e-6, 1.9451727e-6
-0.429, 1.4987006e-6, 1.9261588e-6
-0.430, 1.5014546e-6, 1.9827880e-6
-0.431, 1.4906036e-6, 1.9500208e-6
-0.432, 1.5159994e-6, 2.0083819e-6
-0.433, 1.4720515e-6, 2.0070956e-6
-0.434, 1.5152574e-6, 1.9743779e-6
-0.435, 1.4856894e-6, 1.9644503e-6
-0.436, 1.5162632e-6, 1.9144998e-6
-0.437, 1.5202870e-6, 1.9406048e-6
-0.438, 1.4858707e-6, 1.9523297e-6
-0.439, 1.5193966e-6, 1.9682598e-6
-0.440, 1.4791094e-6, 1.9922372e-6
-0.441, 1.5141525e-6, 2.0102455e-6
-0.442, 1.5242614e-6, 1.9781705e-6
-0.443, 1.5046868e-6, 1.9293250e-6
-0.444, 1.5314019e-6, 1.9284510e-6
-0.445, 1.4929783e-6, 1.9841073e-6
-0.446, 1.5297858e-6, 1.9959807e-6
-0.447, 1.4949408e-6, 1.9908521e-6
-0.448, 1.5165601e-6, 2.0168745e-6
-0.449, 1.5260424e-6, 2.0059247e-6
-0.450, 1.5042910e-6, 1.9755321e-6
-0.451, 1.5406367e-6, 1.9294569e-6
-0.452, 1.4959137e-6, 1.9580684e-6
-0.453, 1.5318142e-6, 2.0150442e-6
-0.454, 1.5080674e-6, 1.9937875e-6
-0.455, 1.5118108e-6, 2.0283028e-6
-0.456, 1.5370912e-6, 2.0262084e-6
-0.457, 1.5082818e-6, 1.9899123e-6
-0.458, 1.5475299e-6, 2.0017692e-6
-0.459, 1.5059236e-6, 1.9507465e-6
-0.460, 1.5421870e-6, 2.0035666e-6
-0.461, 1.5263391e-6, 2.0224816e-6
-0.462, 1.5178299e-6, 2.0087116e-6
-0.463, 1.5481071e-6, 2.0371090e-6
-0.464, 1.5096668e-6, 1.9911158e-6
-0.465, 1.5525926e-6, 2.0117955e-6
-0.466, 1.5165931e-6, 1.9730751e-6
-0.467, 1.5335952e-6, 1.9377517e-6
-0.468, 1.5403564e-6, 2.0335963e-6
-0.469, 1.4971999e-6, 2.0127850e-6
-0.470, 1.5650926e-6, 2.0575244e-6
-0.471, 1.5077210e-6, 2.0265547e-6
-0.472, 1.5452047e-6, 2.0083983e-6
-0.473, 1.5442482e-6, 2.0305620e-6
-0.474, 1.5448584e-6, 1.9368447e-6
-0.475, 1.5554619e-6, 2.0265218e-6
-0.476, 1.5168076e-6, 2.0165942e-6
-0.477, 1.5705675e-6, 2.0522475e-6
-0.478, 1.5378993e-6, 2.0419407e-6
-0.479, 1.5438360e-6, 2.0057105e-6
-0.480, 1.5657687e-6, 2.0451562e-6
-0.481, 1.5400101e-6, 1.9610532e-6
-0.482, 1.5771639e-6, 1.9856082e-6
-0.483, 1.5146472e-6, 2.0199584e-6
-0.484, 1.5531863e-6, 2.0354432e-6
-0.485, 1.5584138e-6, 2.0979435e-6
-0.486, 1.5485523e-6, 2.0237512e-6
-0.487, 1.5656698e-6, 2.0357072e-6
-0.488, 1.5326881e-6, 2.0252851e-6
-0.489, 1.5761085e-6, 1.9960303e-6
-0.490, 1.5496572e-6, 2.0339096e-6
-0.491, 1.5534666e-6, 2.0101299e-6
-0.492, 1.5793075e-6, 2.0756809e-6
-0.493, 1.5468372e-6, 2.0360533e-6
-0.494, 1.5773122e-6, 2.0269506e-6
-0.495, 1.5448419e-6, 2.0336788e-6
-0.496, 1.5732061e-6, 1.9926333e-6
-0.497, 1.5565173e-6, 2.0111192e-6
-0.498, 1.5521639e-6, 2.0287314e-6
-0.499, 1.5810721e-6, 2.0656710e-6
-0.500, 1.5451387e-6, 2.1044407e-6
