Dec. 20, 2005   22:50:31
Square Wave Voltammetry
File: d:\ida_biofilms\12_10_18_dphzstar\a_760b\10um_pyo\a_10um_pyo_swvfast_2_3.txt
Data Source:  Experiment
Instrument Model:  CHI760E
Header: 
Note: 

Init E (V) = 0.1
Final E (V) = -0.5
Incr E (V) = 0.001
Amplitude (V) = 0.025
Frequency (Hz) = 300
Quiet Time (sec) = 2
Sensitivity (A/V) = 1e-6
Sens 2 (A/V) = 1e-6

Potential/V, i1/A, i2/A

0.099, 1.6024442e-6, 1.9840579e-6
0.098, 1.5254487e-6, 2.0582829e-6
0.097, 1.5379817e-6, 2.0540779e-6
0.096, 1.5585952e-6, 2.0301663e-6
0.095, 1.5256136e-6, 2.0823265e-6
0.094, 1.5859040e-6, 2.1019341e-6
0.093, 1.5553630e-6, 2.1141702e-6
0.092, 1.5559237e-6, 2.1547708e-6
0.091, 1.5738162e-6, 2.1288472e-6
0.090, 1.5377509e-6, 2.1289791e-6
0.089, 1.5774112e-6, 2.0806610e-6
0.088, 1.5404883e-6, 2.0708490e-6
0.087, 1.5704356e-6, 2.1221354e-6
0.086, 1.5598321e-6, 2.1566836e-6
0.085, 1.5600958e-6, 2.1548367e-6
0.084, 1.5747562e-6, 2.1344208e-6
0.083, 1.5458643e-6, 2.1073267e-6
0.082, 1.5900266e-6, 2.1189526e-6
0.081, 1.5486843e-6, 2.0905720e-6
0.080, 1.5549342e-6, 2.1194803e-6
0.079, 1.5738327e-6, 2.1445464e-6
0.078, 1.5517021e-6, 2.1557435e-6
0.077, 1.5777575e-6, 2.1371420e-6
0.076, 1.5335786e-6, 2.1031547e-6
0.075, 1.5782193e-6, 2.1229764e-6
0.074, 1.5592218e-6, 2.0904731e-6
0.073, 1.5627509e-6, 2.0988832e-6
0.072, 1.5638889e-6, 2.1397145e-6
0.071, 1.5285655e-6, 2.1366473e-6
0.070, 1.5804289e-6, 2.1660176e-6
0.069, 1.5395483e-6, 2.1081182e-6
0.068, 1.5694297e-6, 2.0974323e-6
0.067, 1.5701388e-6, 2.0904235e-6
0.066, 1.5396308e-6, 2.0864659e-6
0.065, 1.5622066e-6, 2.1174519e-6
0.064, 1.5186051e-6, 2.1081346e-6
0.063, 1.5606565e-6, 2.1673036e-6
0.062, 1.5483544e-6, 2.1293913e-6
0.061, 1.5402575e-6, 2.0806281e-6
0.060, 1.5700233e-6, 2.0783853e-6
0.059, 1.5321934e-6, 2.0463108e-6
0.058, 1.5635094e-6, 2.1246256e-6
0.057, 1.5270484e-6, 2.0814362e-6
0.056, 1.5668077e-6, 2.1296057e-6
0.055, 1.5613491e-6, 2.1243618e-6
0.054, 1.5369098e-6, 2.0935731e-6
0.053, 1.5627345e-6, 2.0629830e-6
0.052, 1.5211446e-6, 2.0387743e-6
0.051, 1.5558742e-6, 2.1174192e-6
0.050, 1.5311711e-6, 2.1116143e-6
0.049, 1.5349474e-6, 2.0945629e-6
0.048, 1.5598650e-6, 2.1113174e-6
0.047, 1.5137897e-6, 2.0788141e-6
0.046, 1.5636908e-6, 2.1030392e-6
0.045, 1.5097000e-6, 2.0226794e-6
0.044, 1.5521803e-6, 2.0861196e-6
0.043, 1.5485358e-6, 2.1056776e-6
0.042, 1.5238492e-6, 2.1086626e-6
0.041, 1.5628829e-6, 2.0896484e-6
0.040, 1.5075067e-6, 2.0638074e-6
0.039, 1.5553960e-6, 2.0978446e-6
0.038, 1.5153728e-6, 2.0380157e-6
0.037, 1.5285490e-6, 2.0239327e-6
0.036, 1.5470681e-6, 2.0967395e-6
0.035, 1.5050166e-6, 2.1010767e-6
0.034, 1.5484368e-6, 2.1333326e-6
0.033, 1.4984862e-6, 2.0874058e-6
0.032, 1.5382950e-6, 2.0674520e-6
0.031, 1.5322759e-6, 2.0694968e-6
0.030, 1.5182092e-6, 2.0523958e-6
0.029, 1.5340074e-6, 2.0755656e-6
0.028, 1.4924506e-6, 2.0697112e-6
0.027, 1.5491295e-6, 2.1127025e-6
0.026, 1.5083477e-6, 2.0932107e-6
0.025, 1.5220351e-6, 2.0551499e-6
0.024, 1.5370088e-6, 2.0912976e-6
0.023, 1.4910818e-6, 2.0288305e-6
0.022, 1.5431103e-6, 2.0803807e-6
0.021, 1.4870911e-6, 2.0448429e-6
0.020, 1.5295384e-6, 2.0919408e-6
0.019, 1.5271638e-6, 2.1096848e-6
0.018, 1.5166590e-6, 2.0472507e-6
0.017, 1.5408347e-6, 2.0696286e-6
0.016, 1.4925661e-6, 2.0068153e-6
0.015, 1.5469197e-6, 2.0612349e-6
0.014, 1.5018668e-6, 2.0786988e-6
0.013, 1.5176320e-6, 2.0706841e-6
0.012, 1.5230576e-6, 2.1097508e-6
0.011, 1.4971506e-6, 2.0401760e-6
0.010, 1.5303301e-6, 2.0568318e-6
0.009, 1.4844361e-6, 2.0052651e-6
0.008, 1.5249869e-6, 2.0164130e-6
0.007, 1.5190668e-6, 2.0767857e-6
0.006, 1.5026584e-6, 2.0585471e-6
0.005, 1.5268338e-6, 2.1214428e-6
0.004, 1.4791261e-6, 2.0331181e-6
0.003, 1.5349640e-6, 2.0498233e-6
0.002, 1.4961446e-6, 2.0176331e-6
0.001, 1.5114974e-6, 1.9988668e-6
-0.000, 1.5294561e-6, 2.0921880e-6
-0.001, 1.4901419e-6, 2.0344044e-6
-0.002, 1.5233709e-6, 2.0683754e-6
-0.003, 1.4827044e-6, 2.0421880e-6
-0.004, 1.5183412e-6, 2.0520165e-6
-0.005, 1.5031860e-6, 2.0596847e-6
-0.006, 1.4925827e-6, 1.9803474e-6
-0.007, 1.5238326e-6, 2.0778082e-6
-0.008, 1.4748384e-6, 2.0436062e-6
-0.009, 1.5221669e-6, 2.0681280e-6
-0.010, 1.4777243e-6, 2.0377356e-6
-0.011, 1.5131960e-6, 2.0335303e-6
-0.012, 1.5172034e-6, 2.0645825e-6
-0.013, 1.4991128e-6, 1.9804299e-6
-0.014, 1.5273781e-6, 2.0342559e-6
-0.015, 1.4724967e-6, 2.0313371e-6
-0.016, 1.5234534e-6, 2.0760767e-6
-0.017, 1.4917744e-6, 2.0948926e-6
-0.018, 1.4969196e-6, 2.0371253e-6
-0.019, 1.5249705e-6, 2.0564526e-6
-0.020, 1.4823747e-6, 1.9864326e-6
-0.021, 1.5229750e-6, 2.0273462e-6
-0.022, 1.4794394e-6, 2.0361028e-6
-0.023, 1.5023782e-6, 2.0208654e-6
-0.024, 1.5101452e-6, 2.0954699e-6
-0.025, 1.4852442e-6, 2.0430127e-6
-0.026, 1.5161148e-6, 2.0332830e-6
-0.027, 1.4607883e-6, 2.0123725e-6
-0.028, 1.5108212e-6, 2.0051825e-6
-0.029, 1.4759598e-6, 2.0405882e-6
-0.030, 1.4890865e-6, 2.0154068e-6
-0.031, 1.5113822e-6, 2.0663306e-6
-0.032, 1.4555442e-6, 2.0449420e-6
-0.033, 1.5085620e-6, 2.0341240e-6
-0.034, 1.4639381e-6, 2.0154894e-6
-0.035, 1.4989480e-6, 1.9852287e-6
-0.036, 1.5034996e-6, 2.0545067e-6
-0.037, 1.4769657e-6, 2.0238501e-6
-0.038, 1.5034335e-6, 2.0431939e-6
-0.039, 1.4517677e-6, 2.0453542e-6
-0.040, 1.5111841e-6, 2.0213438e-6
-0.041, 1.4868438e-6, 2.0246912e-6
-0.042, 1.4889215e-6, 1.9671052e-6
-0.043, 1.5064018e-6, 2.0330356e-6
-0.044, 1.4535818e-6, 2.0295888e-6
-0.045, 1.4983543e-6, 2.0553641e-6
-0.046, 1.4604420e-6, 2.0558423e-6
-0.047, 1.4919394e-6, 2.0120099e-6
-0.048, 1.4860027e-6, 2.0390053e-6
-0.049, 1.4877178e-6, 1.9595525e-6
-0.050, 1.5010588e-6, 1.9742954e-6
-0.051, 1.4556267e-6, 2.0240977e-6
-0.052, 1.4994262e-6, 2.0521154e-6
-0.053, 1.4760258e-6, 2.0685404e-6
-0.054, 1.4759598e-6, 2.0258622e-6
-0.055, 1.5075232e-6, 2.0411326e-6
-0.056, 1.4652408e-6, 1.9768845e-6
-0.057, 1.5090075e-6, 1.9855586e-6
-0.058, 1.4482553e-6, 2.0187874e-6
-0.059, 1.4934732e-6, 2.0231082e-6
-0.060, 1.4862665e-6, 2.0635107e-6
-0.061, 1.4762896e-6, 2.0232731e-6
-0.062, 1.4963589e-6, 2.0443483e-6
-0.063, 1.4539116e-6, 1.9944966e-6
-0.064, 1.5016855e-6, 1.9686720e-6
-0.065, 1.4714083e-6, 2.0214757e-6
-0.066, 1.4859038e-6, 2.0004168e-6
-0.067, 1.4917415e-6, 2.0607731e-6
-0.068, 1.4567975e-6, 2.0051002e-6
-0.069, 1.4972165e-6, 2.0173034e-6
-0.070, 1.4549505e-6, 1.9902750e-6
-0.071, 1.4855409e-6, 1.9933423e-6
-0.072, 1.4767018e-6, 2.0250541e-6
-0.073, 1.4632618e-6, 1.9930617e-6
-0.074, 1.4912304e-6, 2.0553148e-6
-0.075, 1.4490304e-6, 2.0365151e-6
-0.076, 1.4932751e-6, 2.0066998e-6
-0.077, 1.4477935e-6, 2.0091900e-6
-0.078, 1.4906036e-6, 1.9595361e-6
-0.079, 1.4967877e-6, 2.0354928e-6
-0.080, 1.4561379e-6, 2.0041107e-6
-0.081, 1.4977606e-6, 2.0235204e-6
-0.082, 1.4494592e-6, 2.0520001e-6
-0.083, 1.4880641e-6, 2.0195957e-6
-0.084, 1.4733378e-6, 2.0038306e-6
-0.085, 1.4758443e-6, 1.9434081e-6
-0.086, 1.4992943e-6, 1.9984709e-6
-0.087, 1.4426319e-6, 2.0102618e-6
-0.088, 1.4907356e-6, 2.0258785e-6
-0.089, 1.4458476e-6, 2.0285831e-6
-0.090, 1.4780707e-6, 2.0124880e-6
-0.091, 1.4784334e-6, 2.0282203e-6
-0.092, 1.4589907e-6, 1.9598658e-6
-0.093, 1.4848649e-6, 1.9603276e-6
-0.094, 1.4336114e-6, 2.0022637e-6
-0.095, 1.4891524e-6, 2.0202388e-6
-0.096, 1.4509268e-6, 2.0524783e-6
-0.097, 1.4704025e-6, 2.0113832e-6
-0.098, 1.4918239e-6, 2.0076232e-6
-0.099, 1.4415270e-6, 2.0032369e-6
-0.100, 1.4867283e-6, 1.9866141e-6
-0.101, 1.4289940e-6, 1.9978772e-6
-0.102, 1.4727935e-6, 2.0026762e-6
-0.103, 1.4774605e-6, 2.0692494e-6
-0.104, 1.4631300e-6, 2.0097341e-6
-0.105, 1.4888886e-6, 1.9728607e-6
-0.106, 1.4516194e-6, 1.9867130e-6
-0.107, 1.4936214e-6, 1.9670724e-6
-0.108, 1.4595350e-6, 1.9989327e-6
-0.109, 1.4642019e-6, 1.9921549e-6
-0.110, 1.4768998e-6, 2.0351299e-6
-0.111, 1.4348977e-6, 2.0170892e-6
-0.112, 1.4797856e-6, 1.9972010e-6
-0.113, 1.4424339e-6, 1.9800341e-6
-0.114, 1.4731070e-6, 1.9586291e-6
-0.115, 1.4739151e-6, 2.0265877e-6
-0.116, 1.4638225e-6, 1.9674021e-6
-0.117, 1.4822263e-6, 2.0135599e-6
-0.118, 1.4300329e-6, 1.9988665e-6
-0.119, 1.4893999e-6, 1.9933586e-6
-0.120, 1.4513555e-6, 1.9962115e-6
-0.121, 1.4675660e-6, 1.9428473e-6
-0.122, 1.4863324e-6, 2.0067164e-6
-0.123, 1.4437368e-6, 1.9832169e-6
-0.124, 1.4909170e-6, 2.0140546e-6
-0.125, 1.4374043e-6, 2.0288799e-6
-0.126, 1.4779058e-6, 1.9870263e-6
-0.127, 1.4703530e-6, 2.0104599e-6
-0.128, 1.4540601e-6, 1.9258455e-6
-0.129, 1.4728595e-6, 1.9708489e-6
-0.130, 1.4371404e-6, 1.9809906e-6
-0.131, 1.4838095e-6, 2.0199088e-6
-0.132, 1.4447922e-6, 2.0264722e-6
-0.133, 1.4815996e-6, 1.9878507e-6
-0.134, 1.4917580e-6, 2.0079037e-6
-0.135, 1.4588422e-6, 1.9187214e-6
-0.136, 1.4885918e-6, 1.9392196e-6
-0.137, 1.4290764e-6, 1.9853278e-6
-0.138, 1.4688028e-6, 2.0087612e-6
-0.139, 1.4655541e-6, 2.0272969e-6
-0.140, 1.4549175e-6, 1.9633619e-6
-0.141, 1.4834467e-6, 1.9992294e-6
-0.142, 1.4428133e-6, 1.9585466e-6
-0.143, 1.4937368e-6, 1.9323263e-6
-0.144, 1.4472823e-6, 1.9731244e-6
-0.145, 1.4739479e-6, 1.9796055e-6
-0.146, 1.4809896e-6, 2.0219868e-6
-0.147, 1.4448087e-6, 1.9989986e-6
-0.148, 1.4798351e-6, 1.9627519e-6
-0.149, 1.4403727e-6, 1.9674849e-6
-0.150, 1.4713753e-6, 1.9539293e-6
-0.151, 1.4607058e-6, 1.9967229e-6
-0.152, 1.4549505e-6, 1.9635597e-6
-0.153, 1.4831003e-6, 2.0001198e-6
-0.154, 1.4430935e-6, 1.9756476e-6
-0.155, 1.4765204e-6, 1.9761260e-6
-0.156, 1.4438853e-6, 1.9625868e-6
-0.157, 1.4674340e-6, 1.9212939e-6
-0.158, 1.4763391e-6, 2.0064031e-6
-0.159, 1.4474967e-6, 1.9760598e-6
-0.160, 1.4821769e-6, 1.9930783e-6
-0.161, 1.4309729e-6, 1.9906872e-6
-0.162, 1.4893174e-6, 1.9735699e-6
-0.163, 1.4500363e-6, 1.9865481e-6
-0.164, 1.4597163e-6, 1.8963599e-6
-0.165, 1.4838258e-6, 1.9752354e-6
-0.166, 1.4349472e-6, 1.9889392e-6
-0.167, 1.4793238e-6, 2.0030554e-6
-0.168, 1.4317313e-6, 2.0109874e-6
-0.169, 1.4720185e-6, 1.9607728e-6
-0.170, 1.4752177e-6, 1.9941999e-6
-0.171, 1.4606069e-6, 1.9209310e-6
-0.172, 1.4698253e-6, 1.9255485e-6
-0.173, 1.4515534e-6, 1.9650606e-6
-0.174, 1.4791424e-6, 1.9911820e-6
-0.175, 1.4479584e-6, 2.0247737e-6
-0.176, 1.4659993e-6, 1.9844701e-6
-0.177, 1.4820118e-6, 1.9992294e-6
-0.178, 1.4306926e-6, 1.9521317e-6
-0.179, 1.4798352e-6, 1.9652421e-6
-0.180, 1.4404386e-6, 1.9562544e-6
-0.181, 1.4652574e-6, 1.9607728e-6
-0.182, 1.4640864e-6, 2.0351463e-6
-0.183, 1.4561543e-6, 1.9612182e-6
-0.184, 1.4929783e-6, 1.9562710e-6
-0.185, 1.4373219e-6, 1.9710303e-6
-0.186, 1.4857553e-6, 1.9321615e-6
-0.187, 1.4442479e-6, 1.9882962e-6
-0.188, 1.4596999e-6, 1.9815348e-6
-0.189, 1.4803134e-6, 2.0149946e-6
-0.190, 1.4467381e-6, 1.9887248e-6
-0.191, 1.4956497e-6, 1.9739491e-6
-0.192, 1.4417578e-6, 1.9757961e-6
-0.193, 1.4789282e-6, 1.9291601e-6
-0.194, 1.4767679e-6, 1.9830024e-6
-0.195, 1.4603100e-6, 1.9545560e-6
-0.196, 1.4768998e-6, 2.0239656e-6
-0.197, 1.4326056e-6, 1.9826398e-6
-0.198, 1.4881300e-6, 1.9762083e-6
-0.199, 1.4528891e-6, 1.9589424e-6
-0.200, 1.4739975e-6, 1.9117292e-6
-0.201, 1.4885259e-6, 1.9918086e-6
-0.202, 1.4570119e-6, 1.9460467e-6
-0.203, 1.4789775e-6, 1.9977783e-6
-0.204, 1.4347822e-6, 2.0004004e-6
-0.205, 1.4831663e-6, 1.9706015e-6
-0.206, 1.4603760e-6, 1.9690515e-6
-0.207, 1.4594360e-6, 1.8950901e-6
-0.208, 1.4869097e-6, 1.9855750e-6
-0.209, 1.4376021e-6, 1.9735203e-6
-0.210, 1.4818964e-6, 1.9910171e-6
-0.211, 1.4506794e-6, 2.0004993e-6
-0.212, 1.4845350e-6, 1.9741469e-6
-0.213, 1.4848649e-6, 1.9843383e-6
-0.214, 1.4572593e-6, 1.9236850e-6
-0.215, 1.4933412e-6, 1.9248394e-6
-0.216, 1.4448912e-6, 1.9610368e-6
-0.217, 1.4846175e-6, 1.9821946e-6
-0.218, 1.4625857e-6, 2.0090415e-6
-0.219, 1.4639215e-6, 1.9473000e-6
-0.220, 1.4991624e-6, 1.9560894e-6
-0.221, 1.4509268e-6, 1.9337774e-6
-0.222, 1.4899110e-6, 1.9156378e-6
-0.223, 1.4498714e-6, 1.9590746e-6
-0.224, 1.4667249e-6, 1.9578047e-6
-0.225, 1.4776749e-6, 2.0052817e-6
-0.226, 1.4599636e-6, 1.9839258e-6
-0.227, 1.4883939e-6, 1.9524946e-6
-0.228, 1.4430276e-6, 1.9635434e-6
-0.229, 1.4914941e-6, 1.9214094e-6
-0.230, 1.4653727e-6, 1.9764884e-6
-0.231, 1.4674175e-6, 1.9507299e-6
-0.232, 1.4844030e-6, 2.0082830e-6
-0.233, 1.4523450e-6, 2.0107400e-6
-0.234, 1.4924342e-6, 1.9715578e-6
-0.235, 1.4479419e-6, 1.9432928e-6
-0.236, 1.4858377e-6, 1.9170393e-6
-0.237, 1.4784334e-6, 1.9496415e-6
-0.238, 1.4660159e-6, 1.9643844e-6
-0.239, 1.4912138e-6, 1.9668250e-6
-0.240, 1.4603430e-6, 2.0044406e-6
-0.241, 1.5146472e-6, 1.9895988e-6
-0.242, 1.4696603e-6, 1.9672702e-6
-0.243, 1.4918405e-6, 1.9418085e-6
-0.244, 1.4971010e-6, 1.9351132e-6
-0.245, 1.4619096e-6, 1.9887248e-6
-0.246, 1.4937204e-6, 1.9714589e-6
-0.247, 1.4536972e-6, 1.9878507e-6
-0.248, 1.4944626e-6, 1.9856907e-6
-0.249, 1.4877342e-6, 1.9791601e-6
-0.250, 1.4846670e-6, 1.9494603e-6
-0.251, 1.5050496e-6, 1.9289455e-6
-0.252, 1.4520316e-6, 1.9611030e-6
-0.253, 1.4961115e-6, 1.9905224e-6
-0.254, 1.4666425e-6, 1.9905553e-6
-0.255, 1.4817645e-6, 2.0258456e-6
-0.256, 1.4990799e-6, 1.9788963e-6
-0.257, 1.4729585e-6, 1.9759939e-6
-0.258, 1.5095185e-6, 1.9479430e-6
-0.259, 1.4588259e-6, 1.9226957e-6
-0.260, 1.5006135e-6, 1.9839756e-6
-0.261, 1.4831663e-6, 1.9877189e-6
-0.262, 1.4968041e-6, 1.9698923e-6
-0.263, 1.4941162e-6, 2.0209313e-6
-0.264, 1.4607554e-6, 1.9666272e-6
-0.265, 1.5160160e-6, 1.9946779e-6
-0.266, 1.4719030e-6, 1.9190843e-6
-0.267, 1.4919394e-6, 1.9594866e-6
-0.268, 1.5040437e-6, 1.9999220e-6
-0.269, 1.4709797e-6, 1.9869931e-6
-0.270, 1.5089415e-6, 2.0062712e-6
-0.271, 1.4544887e-6, 1.9420063e-6
-0.272, 1.4987172e-6, 1.9830850e-6
-0.273, 1.4930113e-6, 1.9361851e-6
-0.274, 1.4752836e-6, 1.9089093e-6
-0.275, 1.5033510e-6, 2.0104596e-6
-0.276, 1.4580837e-6, 1.9727781e-6
-0.277, 1.5030377e-6, 2.0193647e-6
-0.278, 1.4600625e-6, 1.9670395e-6
-0.279, 1.5015864e-6, 1.9524946e-6
-0.280, 1.5073254e-6, 1.9846516e-6
-0.281, 1.4600462e-6, 1.9164952e-6
-0.282, 1.5157686e-6, 1.9698427e-6
-0.283, 1.4551979e-6, 1.9559575e-6
-0.284, 1.5022792e-6, 1.9989657e-6
-0.285, 1.4828531e-6, 1.9861193e-6
-0.286, 1.4826880e-6, 1.9361687e-6
-0.287, 1.5078531e-6, 1.9561060e-6
-0.288, 1.4634268e-6, 1.9092392e-6
-0.289, 1.4996572e-6, 1.9433587e-6
-0.290, 1.4577539e-6, 1.9494601e-6
-0.291, 1.4741953e-6, 1.9799845e-6
-0.292, 1.4865140e-6, 2.0349155e-6
-0.293, 1.4469360e-6, 1.9478441e-6
-0.294, 1.4965569e-6, 1.9655058e-6
-0.295, 1.4525428e-6, 1.9252352e-6
-0.296, 1.5026254e-6, 1.9194965e-6
-0.297, 1.4681266e-6, 1.9675176e-6
-0.298, 1.4653068e-6, 1.9250538e-6
-0.299, 1.4923846e-6, 1.9956510e-6
-0.300, 1.4492612e-6, 1.9733388e-6
-0.301, 1.4988655e-6, 1.9564193e-6
-0.302, 1.4476286e-6, 1.9387742e-6
-0.303, 1.4842216e-6, 1.8970194e-6
-0.304, 1.4866293e-6, 1.9770987e-6
-0.305, 1.4642513e-6, 1.9440677e-6
-0.306, 1.4827210e-6, 1.9764557e-6
-0.307, 1.4468370e-6, 1.9651593e-6
-0.308, 1.4872394e-6, 1.9552156e-6
-0.309, 1.4666425e-6, 1.9548363e-6
-0.310, 1.4782686e-6, 1.8905550e-6
-0.311, 1.4871571e-6, 1.9525769e-6
-0.312, 1.4376682e-6, 1.9570789e-6
-0.313, 1.4907356e-6, 1.9818810e-6
-0.314, 1.4476286e-6, 1.9901761e-6
-0.315, 1.4730904e-6, 1.9729266e-6
-0.316, 1.4788293e-6, 1.9692986e-6
-0.317, 1.4689513e-6, 1.8895986e-6
-0.318, 1.4774935e-6, 1.9319964e-6
-0.319, 1.4458311e-6, 1.9547701e-6
-0.320, 1.4818306e-6, 1.9599649e-6
-0.321, 1.4582322e-6, 2.0098826e-6
-0.322, 1.4639049e-6, 1.9591898e-6
-0.323, 1.4843372e-6, 1.9661325e-6
-0.324, 1.4615632e-6, 1.9391534e-6
-0.325, 1.4924835e-6, 1.9059245e-6
-0.326, 1.4455343e-6, 1.9561226e-6
-0.327, 1.4767843e-6, 1.9624056e-6
-0.328, 1.4740468e-6, 1.9880488e-6
-0.329, 1.4606068e-6, 1.9618283e-6
-0.330, 1.4833477e-6, 1.9652418e-6
-0.331, 1.4547527e-6, 1.9446613e-6
-0.332, 1.4942316e-6, 1.9090248e-6
-0.333, 1.4524769e-6, 1.9606246e-6
-0.334, 1.4702044e-6, 1.9488004e-6
-0.335, 1.4883115e-6, 1.9911656e-6
-0.336, 1.4536806e-6, 1.9547867e-6
-0.337, 1.4825397e-6, 1.9427980e-6
-0.338, 1.4474308e-6, 1.9379497e-6
-0.339, 1.4848483e-6, 1.9024119e-6
-0.340, 1.4710786e-6, 1.9417096e-6
-0.341, 1.4492117e-6, 1.9372242e-6
-0.342, 1.4861675e-6, 1.9957829e-6
-0.343, 1.4482223e-6, 1.9890051e-6
-0.344, 1.4855575e-6, 1.9550175e-6
-0.345, 1.4533343e-6, 1.9379002e-6
-0.346, 1.4802145e-6, 1.9015545e-6
-0.347, 1.4853761e-6, 1.9359049e-6
-0.348, 1.4412961e-6, 1.9535830e-6
-0.349, 1.4863656e-6, 1.9562378e-6
-0.350, 1.4440831e-6, 1.9803804e-6
-0.351, 1.4794393e-6, 1.9912479e-6
-0.352, 1.4750692e-6, 1.9634115e-6
-0.353, 1.4633938e-6, 1.8885432e-6
-0.354, 1.4934071e-6, 1.9022966e-6
-0.355, 1.4534169e-6, 1.9562049e-6
-0.356, 1.4870086e-6, 1.9712445e-6
-0.357, 1.4524603e-6, 1.9535828e-6
-0.358, 1.4696274e-6, 1.9608883e-6
-0.359, 1.4749209e-6, 1.9700738e-6
-0.360, 1.4623714e-6, 1.9292920e-6
-0.361, 1.4819624e-6, 1.9012741e-6
-0.362, 1.4407849e-6, 1.9593713e-6
-0.363, 1.4860357e-6, 1.9634940e-6
-0.364, 1.4543568e-6, 1.9840083e-6
-0.365, 1.4701881e-6, 1.9461620e-6
-0.366, 1.4968703e-6, 1.9701067e-6
-0.367, 1.4487335e-6, 1.9593713e-6
-0.368, 1.4915765e-6, 1.9108058e-6
-0.369, 1.4433905e-6, 1.9574748e-6
-0.370, 1.4794559e-6, 1.9645493e-6
-0.371, 1.4891029e-6, 2.0110203e-6
-0.372, 1.4622394e-6, 1.9662807e-6
-0.373, 1.4801320e-6, 1.9554793e-6
-0.374, 1.4515369e-6, 1.9372405e-6
-0.375, 1.4963755e-6, 1.9297536e-6
-0.376, 1.4720845e-6, 1.9707004e-6
-0.377, 1.4778068e-6, 1.9442161e-6
-0.378, 1.4900595e-6, 1.9933918e-6
-0.379, 1.4462929e-6, 1.9876529e-6
-0.380, 1.4996572e-6, 1.9584807e-6
-0.381, 1.4556101e-6, 1.9486192e-6
-0.382, 1.4748880e-6, 1.9191666e-6
-0.383, 1.4810555e-6, 2.0038306e-6
-0.384, 1.4716227e-6, 1.9411489e-6
-0.385, 1.5027078e-6, 2.0028906e-6
-0.386, 1.4498548e-6, 1.9820625e-6
-0.387, 1.4920548e-6, 1.9872571e-6
-0.388, 1.4696933e-6, 1.9730751e-6
-0.389, 1.4746405e-6, 1.9123891e-6
-0.390, 1.5087764e-6, 2.0153575e-6
-0.391, 1.4647131e-6, 1.9838105e-6
-0.392, 1.5099804e-6, 2.0091898e-6
-0.393, 1.4548847e-6, 2.0043581e-6
-0.394, 1.4938853e-6, 1.9724152e-6
-0.395, 1.4964248e-6, 2.0003013e-6
-0.396, 1.4898285e-6, 1.9056276e-6
-0.397, 1.5092546e-6, 1.9702882e-6
-0.398, 1.4623218e-6, 1.9841239e-6
-0.399, 1.5125033e-6, 2.0058092e-6
-0.400, 1.4720680e-6, 1.9936556e-6
-0.401, 1.4864810e-6, 1.9657530e-6
-0.402, 1.5046869e-6, 2.0033356e-6
-0.403, 1.4800826e-6, 1.9036652e-6
-0.404, 1.5299507e-6, 1.9891372e-6
-0.405, 1.4666755e-6, 1.9654726e-6
-0.406, 1.5023120e-6, 2.0101463e-6
-0.407, 1.4981069e-6, 2.0203213e-6
-0.408, 1.4727607e-6, 1.9664128e-6
-0.409, 1.5218372e-6, 2.0069638e-6
-0.410, 1.4754156e-6, 1.9281540e-6
-0.411, 1.5206499e-6, 1.9840086e-6
-0.412, 1.4764216e-6, 1.9796219e-6
-0.413, 1.5113491e-6, 2.0071120e-6
-0.414, 1.5185061e-6, 2.0248397e-6
-0.415, 1.4852442e-6, 1.9765712e-6
-0.416, 1.5278564e-6, 1.9961292e-6
-0.417, 1.4763557e-6, 1.9289953e-6
-0.418, 1.5251683e-6, 2.0133621e-6
-0.419, 1.5009599e-6, 2.0165778e-6
-0.420, 1.5019330e-6, 1.9979432e-6
-0.421, 1.5338919e-6, 2.0332500e-6
-0.422, 1.4822757e-6, 1.9843383e-6
-0.423, 1.5338920e-6, 2.0077057e-6
-0.424, 1.4823418e-6, 1.9297208e-6
-0.425, 1.5183082e-6, 1.9875044e-6
-0.426, 1.5250034e-6, 2.0294735e-6
-0.427, 1.4946768e-6, 2.0276925e-6
-0.428, 1.5279057e-6, 2.0182597e-6
-0.429, 1.4848155e-6, 1.9951233e-6
-0.430, 1.5421869e-6, 2.0140053e-6
-0.431, 1.5094031e-6, 1.9579036e-6
-0.432, 1.5175991e-6, 2.0005157e-6
-0.433, 1.5287469e-6, 2.0235698e-6
-0.434, 1.4993768e-6, 2.0279235e-6
-0.435, 1.5460291e-6, 2.0499551e-6
-0.436, 1.4877671e-6, 2.0123891e-6
-0.437, 1.5355411e-6, 2.0152750e-6
-0.438, 1.5366459e-6, 1.9767690e-6
-0.439, 1.5209798e-6, 1.9979268e-6
-0.440, 1.5354420e-6, 2.0167593e-6
-0.441, 1.5101452e-6, 2.0325078e-6
-0.442, 1.5548849e-6, 2.0442822e-6
-0.443, 1.5190503e-6, 2.0127520e-6
-0.444, 1.5320285e-6, 2.0158027e-6
-0.445, 1.5476619e-6, 1.9901101e-6
-0.446, 1.5139216e-6, 2.0271814e-6
-0.447, 1.5563360e-6, 2.0321286e-6
-0.448, 1.5133279e-6, 2.0381476e-6
-0.449, 1.5489316e-6, 2.0544408e-6
-0.450, 1.5360688e-6, 2.0418252e-6
-0.451, 1.5430940e-6, 2.0148959e-6
-0.452, 1.5580511e-6, 1.9819802e-6
-0.453, 1.5195615e-6, 2.0127850e-6
-0.454, 1.5601948e-6, 2.0521154e-6
-0.455, 1.5314349e-6, 2.0528082e-6
-0.456, 1.5426816e-6, 2.0632301e-6
-0.457, 1.5597166e-6, 2.0490481e-6
-0.458, 1.5275596e-6, 2.0404400e-6
-0.459, 1.5768011e-6, 1.9900110e-6
-0.460, 1.5262568e-6, 2.0306443e-6
-0.461, 1.5637074e-6, 2.0410666e-6
-0.462, 1.5547857e-6, 2.0838272e-6
-0.463, 1.5505807e-6, 2.0564030e-6
-0.464, 1.5631796e-6, 2.0533357e-6
-0.465, 1.5333314e-6, 2.0417592e-6
-0.466, 1.5778564e-6, 2.0080849e-6
-0.467, 1.5394824e-6, 2.0374057e-6
-0.468, 1.5588425e-6, 2.0390712e-6
-0.469, 1.5789119e-6, 2.1025444e-6
-0.470, 1.5456499e-6, 2.0555290e-6
-0.471, 1.5790108e-6, 2.0448101e-6
-0.472, 1.5381465e-6, 2.0420066e-6
-0.473, 1.5771969e-6, 2.0148627e-6
-0.474, 1.5727114e-6, 2.0741472e-6
-0.475, 1.5590075e-6, 2.0415941e-6
-0.476, 1.5835128e-6, 2.1067494e-6
-0.477, 1.5372891e-6, 2.0941341e-6
-0.478, 1.5866131e-6, 2.0733391e-6
-0.479, 1.5583644e-6, 2.0451398e-6
-0.480, 1.5942978e-6, 2.0000539e-6
-0.481, 1.5870747e-6, 2.0798034e-6
-0.482, 1.5592877e-6, 2.0598002e-6
-0.483, 1.5948419e-6, 2.0691341e-6
-0.484, 1.5483049e-6, 2.0830521e-6
-0.485, 1.5798355e-6, 2.0861030e-6
-0.486, 1.5756797e-6, 2.0876532e-6
-0.487, 1.5720186e-6, 2.0074585e-6
-0.488, 1.6041099e-6, 2.0777586e-6
-0.489, 1.5482225e-6, 2.0700741e-6
-0.490, 1.6089747e-6, 2.0996915e-6
-0.491, 1.5690174e-6, 2.0925345e-6
-0.492, 1.5887238e-6, 2.0625871e-6
-0.493, 1.6009931e-6, 2.1030555e-6
-0.494, 1.5667911e-6, 2.0214095e-6
-0.495, 1.6028400e-6, 2.0595694e-6
-0.496, 1.5668902e-6, 2.0621089e-6
-0.497, 1.6130149e-6, 2.1207832e-6
-0.498, 1.5731401e-6, 2.1086789e-6
-0.499, 1.5900762e-6, 2.0589428e-6
-0.500, 1.6067813e-6, 2.0988668e-6
