Dec. 20, 2005   22:40:01
Square Wave Voltammetry
File: d:\ida_biofilms\12_10_18_dphzstar\a_760b\10um_pyo\a_10um_pyo_swvfast_1_2.txt
Data Source:  Experiment
Instrument Model:  CHI760E
Header: 
Note: 

Init E (V) = 0.1
Final E (V) = -0.5
Incr E (V) = 0.001
Amplitude (V) = 0.025
Frequency (Hz) = 300
Quiet Time (sec) = 2
Sensitivity (A/V) = 1e-6
Sens 2 (A/V) = 1e-6

Potential/V, i1/A, i2/A

0.099, 1.5575233e-6, 1.8569963e-6
0.098, 1.4541920e-6, 1.9687213e-6
0.097, 1.5032685e-6, 2.0111524e-6
0.096, 1.4684070e-6, 2.0330192e-6
0.095, 1.5042581e-6, 2.0488667e-6
0.094, 1.5173517e-6, 2.0595198e-6
0.093, 1.5024606e-6, 2.0518351e-6
0.092, 1.5272133e-6, 1.9969866e-6
0.091, 1.4870252e-6, 2.0509283e-6
0.090, 1.5224969e-6, 2.0700575e-6
0.089, 1.4998714e-6, 2.0945299e-6
0.088, 1.5054454e-6, 2.0624223e-6
0.087, 1.5321439e-6, 2.0630323e-6
0.086, 1.4901418e-6, 2.0662810e-6
0.085, 1.5364810e-6, 2.0214920e-6
0.084, 1.4870582e-6, 2.0524287e-6
0.083, 1.5206499e-6, 2.0571617e-6
0.082, 1.5139381e-6, 2.1038800e-6
0.081, 1.4946274e-6, 2.0684743e-6
0.080, 1.5297034e-6, 2.0438040e-6
0.079, 1.4896142e-6, 2.0448761e-6
0.078, 1.5354256e-6, 2.0209147e-6
0.077, 1.5041096e-6, 2.0617131e-6
0.076, 1.5137239e-6, 2.0514888e-6
0.075, 1.5163458e-6, 2.0954369e-6
0.074, 1.4797197e-6, 2.0598661e-6
0.073, 1.5294230e-6, 2.0622078e-6
0.072, 1.4831169e-6, 2.0415614e-6
0.071, 1.5105081e-6, 2.0065183e-6
0.070, 1.5119922e-6, 2.0762250e-6
0.069, 1.4985851e-6, 2.0308587e-6
0.068, 1.5205179e-6, 2.0656544e-6
0.067, 1.4850298e-6, 2.0692000e-6
0.066, 1.5295054e-6, 2.0536986e-6
0.065, 1.4921537e-6, 2.0452221e-6
0.064, 1.5031696e-6, 1.9906047e-6
0.063, 1.5189678e-6, 2.0636426e-6
0.062, 1.4855905e-6, 2.0397474e-6
0.061, 1.5236348e-6, 2.0702553e-6
0.060, 1.4735192e-6, 2.0436557e-6
0.059, 1.5115965e-6, 2.0317329e-6
0.058, 1.5062699e-6, 2.0575903e-6
0.057, 1.4913951e-6, 1.9765712e-6
0.056, 1.5264217e-6, 2.0444143e-6
0.055, 1.4711940e-6, 2.0357566e-6
0.054, 1.5214744e-6, 2.0744769e-6
0.053, 1.4805113e-6, 2.0498562e-6
0.052, 1.4913951e-6, 2.0170560e-6
0.051, 1.5088260e-6, 2.0581840e-6
0.050, 1.4767843e-6, 1.9669405e-6
0.049, 1.5179289e-6, 2.0416110e-6
0.048, 1.4632619e-6, 2.0228938e-6
0.047, 1.5085291e-6, 2.0511095e-6
0.046, 1.4926979e-6, 2.0577718e-6
0.045, 1.4800000e-6, 2.0000539e-6
0.044, 1.5084137e-6, 2.0466075e-6
0.043, 1.4704683e-6, 1.9786489e-6
0.042, 1.5073749e-6, 2.0379005e-6
0.041, 1.4726782e-6, 2.0009938e-6
0.040, 1.4985852e-6, 2.0410171e-6
0.039, 1.5053134e-6, 2.0598002e-6
0.038, 1.4769328e-6, 2.0019174e-6
0.037, 1.5010423e-6, 2.0161656e-6
0.036, 1.4597329e-6, 1.9574088e-6
0.035, 1.5016855e-6, 2.0485204e-6
0.034, 1.4779882e-6, 2.0191173e-6
0.033, 1.4774605e-6, 2.0198099e-6
0.032, 1.4958807e-6, 2.0492955e-6
0.031, 1.4657026e-6, 1.9891702e-6
0.030, 1.5005971e-6, 2.0221846e-6
0.029, 1.4617447e-6, 1.9490644e-6
0.028, 1.4947593e-6, 2.0194639e-6
0.027, 1.4935225e-6, 2.0257630e-6
0.026, 1.4687863e-6, 2.0264063e-6
0.025, 1.5003498e-6, 2.0251530e-6
0.024, 1.4550990e-6, 1.9882632e-6
0.023, 1.5047857e-6, 2.0273958e-6
0.022, 1.4684069e-6, 1.9678641e-6
0.021, 1.4791756e-6, 2.0048694e-6
0.020, 1.4961445e-6, 2.0089592e-6
0.019, 1.4641359e-6, 2.0435896e-6
0.018, 1.4950397e-6, 2.0293746e-6
0.017, 1.4538456e-6, 1.9798197e-6
0.016, 1.4894988e-6, 2.0076400e-6
0.015, 1.4846340e-6, 1.9704200e-6
0.014, 1.4680772e-6, 2.0173200e-6
0.013, 1.4883774e-6, 1.9966733e-6
0.012, 1.4409168e-6, 2.0086293e-6
0.011, 1.4917415e-6, 2.0180291e-6
0.010, 1.4619427e-6, 1.9966733e-6
0.009, 1.4617942e-6, 1.9831673e-6
0.008, 1.4815007e-6, 1.9712611e-6
0.007, 1.4414941e-6, 1.9970525e-6
0.006, 1.4861841e-6, 2.0036819e-6
0.005, 1.4364479e-6, 2.0276595e-6
0.004, 1.4764710e-6, 2.0069472e-6
0.003, 1.4830343e-6, 2.0091404e-6
0.002, 1.4678133e-6, 1.9594372e-6
0.001, 1.4768009e-6, 1.9516865e-6
-0.000, 1.4424504e-6, 2.0007135e-6
-0.001, 1.4801650e-6, 2.0014393e-6
-0.002, 1.4548020e-6, 2.0501202e-6
-0.003, 1.4628166e-6, 1.9996746e-6
-0.004, 1.4839413e-6, 2.0154564e-6
-0.005, 1.4437368e-6, 1.9637744e-6
-0.006, 1.4877837e-6, 1.9699582e-6
-0.007, 1.4332652e-6, 1.9847505e-6
-0.008, 1.4657519e-6, 1.9809906e-6
-0.009, 1.4695283e-6, 2.0454861e-6
-0.010, 1.4605245e-6, 1.9921879e-6
-0.011, 1.4779553e-6, 1.9889392e-6
-0.012, 1.4351451e-6, 1.9390709e-6
-0.013, 1.4837269e-6, 1.9579199e-6
-0.014, 1.4392183e-6, 1.9902091e-6
-0.015, 1.4489478e-6, 2.0135599e-6
-0.016, 1.4799011e-6, 2.0527257e-6
-0.017, 1.4550659e-6, 1.9994768e-6
-0.018, 1.4916920e-6, 1.9852946e-6
-0.019, 1.4346339e-6, 1.9288632e-6
-0.020, 1.4764216e-6, 1.9777419e-6
-0.021, 1.4602110e-6, 2.0116636e-6
-0.022, 1.4545052e-6, 1.9856245e-6
-0.023, 1.4690007e-6, 2.0366965e-6
-0.024, 1.4266853e-6, 1.9771812e-6
-0.025, 1.4826716e-6, 1.9867293e-6
-0.026, 1.4389379e-6, 1.9221020e-6
-0.027, 1.4570943e-6, 1.9647800e-6
-0.028, 1.4715401e-6, 2.0125872e-6
-0.029, 1.4429122e-6, 1.9810566e-6
-0.030, 1.4742448e-6, 2.0304135e-6
-0.031, 1.4201549e-6, 1.9600802e-6
-0.032, 1.4707653e-6, 1.9956674e-6
-0.033, 1.4572097e-6, 1.9402419e-6
-0.034, 1.4477605e-6, 1.9440679e-6
-0.035, 1.4668403e-6, 2.0041932e-6
-0.036, 1.4289610e-6, 1.9989986e-6
-0.037, 1.4750858e-6, 2.0082994e-6
-0.038, 1.4315831e-6, 1.9534016e-6
-0.039, 1.4690007e-6, 1.9781542e-6
-0.040, 1.4709136e-6, 1.9492788e-6
-0.041, 1.4529387e-6, 1.9699253e-6
-0.042, 1.4647296e-6, 1.9754661e-6
-0.043, 1.4264378e-6, 1.9912809e-6
-0.044, 1.4659829e-6, 2.0336129e-6
-0.045, 1.4385917e-6, 1.9803970e-6
-0.046, 1.4513720e-6, 1.9547042e-6
-0.047, 1.4722659e-6, 1.9342392e-6
-0.048, 1.4252506e-6, 1.9614324e-6
-0.049, 1.4629650e-6, 1.9817987e-6
-0.050, 1.4271800e-6, 1.9773461e-6
-0.051, 1.4605903e-6, 1.9920560e-6
-0.052, 1.4548186e-6, 1.9819306e-6
-0.053, 1.4302639e-6, 1.9706345e-6
-0.054, 1.4624538e-6, 1.9258289e-6
-0.055, 1.4348153e-6, 1.9702716e-6
-0.056, 1.4586279e-6, 1.9931442e-6
-0.057, 1.4344030e-6, 2.0050672e-6
-0.058, 1.4479749e-6, 1.9761587e-6
-0.059, 1.4670218e-6, 1.9765380e-6
-0.060, 1.4336443e-6, 1.9651429e-6
-0.061, 1.4663292e-6, 1.9337115e-6
-0.062, 1.4225461e-6, 1.9642193e-6
-0.063, 1.4529222e-6, 1.9730585e-6
-0.064, 1.4567811e-6, 2.0101793e-6
-0.065, 1.4396966e-6, 1.9814688e-6
-0.066, 1.4599967e-6, 1.9519832e-6
-0.067, 1.4227275e-6, 1.9557597e-6
-0.068, 1.4653068e-6, 1.9288466e-6
-0.069, 1.4390533e-6, 1.9793085e-6
-0.070, 1.4398944e-6, 1.9459146e-6
-0.071, 1.4525923e-6, 1.9988665e-6
-0.072, 1.4113489e-6, 1.9844042e-6
-0.073, 1.4625693e-6, 1.9759609e-6
-0.074, 1.4135255e-6, 1.9606741e-6
-0.075, 1.4510916e-6, 1.9136587e-6
-0.076, 1.4501517e-6, 1.9883785e-6
-0.077, 1.4312367e-6, 1.9521979e-6
-0.078, 1.4572097e-6, 1.9910831e-6
-0.079, 1.4123548e-6, 1.9773627e-6
-0.080, 1.4611346e-6, 1.9714259e-6
-0.081, 1.4320942e-6, 1.9643680e-6
-0.082, 1.4453364e-6, 1.9019832e-6
-0.083, 1.4567314e-6, 2.0039129e-6
-0.084, 1.4129155e-6, 1.9731906e-6
-0.085, 1.4580507e-6, 1.9855090e-6
-0.086, 1.4028560e-6, 1.9725640e-6
-0.087, 1.4540930e-6, 1.9574088e-6
-0.088, 1.4502011e-6, 1.9826396e-6
-0.089, 1.4373218e-6, 1.8977120e-6
-0.090, 1.4475792e-6, 1.9619274e-6
-0.091, 1.4114808e-6, 1.9498561e-6
-0.092, 1.4589414e-6, 1.9881147e-6
-0.093, 1.4233871e-6, 1.9693316e-6
-0.094, 1.4371404e-6, 1.9435729e-6
-0.095, 1.4563688e-6, 1.9771483e-6
-0.096, 1.4253332e-6, 1.8996086e-6
-0.097, 1.4686050e-6, 1.9825902e-6
-0.098, 1.3931924e-6, 1.9602287e-6
-0.099, 1.4505804e-6, 1.9890547e-6
-0.100, 1.4360521e-6, 1.9935073e-6
-0.101, 1.4314182e-6, 1.9325737e-6
-0.102, 1.4560225e-6, 1.9810566e-6
-0.103, 1.4158013e-6, 1.9080353e-6
-0.104, 1.4710786e-6, 1.9634278e-6
-0.105, 1.4286807e-6, 1.9439028e-6
-0.106, 1.4460620e-6, 1.9663139e-6
-0.107, 1.4498384e-6, 1.9919075e-6
-0.108, 1.4323582e-6, 1.9360202e-6
-0.109, 1.4554288e-6, 1.9583322e-6
-0.110, 1.4144326e-6, 1.8781045e-6
-0.111, 1.4551813e-6, 1.9786985e-6
-0.112, 1.4327373e-6, 1.9635600e-6
-0.113, 1.4289940e-6, 1.9512577e-6
-0.114, 1.4452539e-6, 2.0011425e-6
-0.115, 1.4088916e-6, 1.9427155e-6
-0.116, 1.4620911e-6, 1.9524946e-6
-0.117, 1.4194459e-6, 1.8781211e-6
-0.118, 1.4565830e-6, 1.9604927e-6
-0.119, 1.4468042e-6, 1.9683587e-6
-0.120, 1.4303298e-6, 1.9602287e-6
-0.121, 1.4598484e-6, 1.9570296e-6
-0.122, 1.4142017e-6, 1.9320955e-6
-0.123, 1.4547857e-6, 1.9678805e-6
-0.124, 1.4310224e-6, 1.9152089e-6
-0.125, 1.4380145e-6, 1.9487841e-6
-0.126, 1.4546042e-6, 1.9582662e-6
-0.127, 1.4180112e-6, 1.9681606e-6
-0.128, 1.4507784e-6, 1.9725969e-6
-0.129, 1.4056430e-6, 1.9282365e-6
-0.130, 1.4512731e-6, 1.9520658e-6
-0.131, 1.4552473e-6, 1.9168249e-6
-0.132, 1.4258773e-6, 1.9256145e-6
-0.133, 1.4496241e-6, 1.9500537e-6
-0.134, 1.4144161e-6, 1.9670724e-6
-0.135, 1.4522955e-6, 1.9868944e-6
-0.136, 1.4205012e-6, 1.9411984e-6
-0.137, 1.4361674e-6, 1.9349318e-6
-0.138, 1.4625034e-6, 1.8979761e-6
-0.139, 1.4252506e-6, 1.9427484e-6
-0.140, 1.4590732e-6, 1.9600639e-6
-0.141, 1.4053792e-6, 1.9520821e-6
-0.142, 1.4430276e-6, 1.9992294e-6
-0.143, 1.4371734e-6, 1.9652252e-6
-0.144, 1.4293238e-6, 1.9334475e-6
-0.145, 1.4488159e-6, 1.8894502e-6
-0.146, 1.4137401e-6, 1.9113995e-6
-0.147, 1.4610850e-6, 1.9470856e-6
-0.148, 1.4191489e-6, 1.9680947e-6
-0.149, 1.4458806e-6, 1.9530880e-6
-0.150, 1.4472989e-6, 1.9718218e-6
-0.151, 1.4115303e-6, 1.9437875e-6
-0.152, 1.4547526e-6, 1.9032860e-6
-0.153, 1.4008277e-6, 1.8989490e-6
-0.154, 1.4361345e-6, 1.9592394e-6
-0.155, 1.4366622e-6, 1.9764225e-6
-0.156, 1.4378990e-6, 1.9768513e-6
-0.157, 1.4502341e-6, 1.9594372e-6
-0.158, 1.4118106e-6, 1.9335300e-6
-0.159, 1.4611510e-6, 1.9501529e-6
-0.160, 1.4238983e-6, 1.8948922e-6
-0.161, 1.4388061e-6, 1.9367787e-6
-0.162, 1.4480574e-6, 1.9573758e-6
-0.163, 1.4171701e-6, 1.9870097e-6
-0.164, 1.4632124e-6, 1.9542260e-6
-0.165, 1.4087927e-6, 1.9135598e-6
-0.166, 1.4544229e-6, 1.9399286e-6
-0.167, 1.4332486e-6, 1.9154397e-6
-0.168, 1.4422690e-6, 1.9174022e-6
-0.169, 1.4494096e-6, 1.9450902e-6
-0.170, 1.4030541e-6, 1.9555123e-6
-0.171, 1.4554453e-6, 1.9576892e-6
-0.172, 1.4220680e-6, 1.9341896e-6
-0.173, 1.4379980e-6, 1.9305949e-6
-0.174, 1.4599638e-6, 1.9094700e-6
-0.175, 1.4308739e-6, 1.9244271e-6
-0.176, 1.4549011e-6, 1.9480256e-6
-0.177, 1.4092710e-6, 1.9405222e-6
-0.178, 1.4401747e-6, 1.9607894e-6
-0.179, 1.4389709e-6, 1.9393844e-6
-0.180, 1.4403727e-6, 1.9151594e-6
-0.181, 1.4485356e-6, 1.9070624e-6
-0.182, 1.4125692e-6, 1.9280221e-6
-0.183, 1.4603760e-6, 1.9525439e-6
-0.184, 1.4225791e-6, 1.9547042e-6
-0.185, 1.4500857e-6, 1.9711786e-6
-0.186, 1.4620911e-6, 1.9317656e-6
-0.187, 1.4320613e-6, 1.9155716e-6
-0.188, 1.4643833e-6, 1.9057102e-6
-0.189, 1.4182585e-6, 1.8659013e-6
-0.190, 1.4597822e-6, 1.9632962e-6
-0.191, 1.4453364e-6, 1.9521976e-6
-0.192, 1.4432586e-6, 1.9531872e-6
-0.193, 1.4588754e-6, 1.9644999e-6
-0.194, 1.4303133e-6, 1.9153904e-6
-0.195, 1.4658181e-6, 1.9215247e-6
-0.196, 1.4312038e-6, 1.8736025e-6
-0.197, 1.4619591e-6, 1.9418910e-6
-0.198, 1.4630971e-6, 1.9541931e-6
-0.199, 1.4382783e-6, 1.9537313e-6
-0.200, 1.4725957e-6, 1.9599813e-6
-0.201, 1.4318470e-6, 1.9162972e-6
-0.202, 1.4740963e-6, 1.9319634e-6
-0.203, 1.4524605e-6, 1.9082827e-6
-0.204, 1.4624703e-6, 1.9337774e-6
-0.205, 1.4761742e-6, 1.9521317e-6
-0.206, 1.4343041e-6, 1.9451727e-6
-0.207, 1.4763557e-6, 1.9706672e-6
-0.208, 1.4351615e-6, 1.9104264e-6
-0.209, 1.4729584e-6, 1.9335630e-6
-0.210, 1.4690997e-6, 1.9109377e-6
-0.211, 1.4509598e-6, 1.9245590e-6
-0.212, 1.4868107e-6, 1.9475308e-6
-0.213, 1.4408508e-6, 1.9555785e-6
-0.214, 1.4953530e-6, 2.0045559e-6
-0.215, 1.4653892e-6, 1.9755487e-6
-0.216, 1.4663786e-6, 1.9241468e-6
-0.217, 1.4871900e-6, 1.9272966e-6
-0.218, 1.4501187e-6, 1.9162642e-6
-0.219, 1.5009433e-6, 1.9803474e-6
-0.220, 1.4553134e-6, 1.9641700e-6
-0.221, 1.4953695e-6, 2.0165612e-6
-0.222, 1.4962106e-6, 2.0070624e-6
-0.223, 1.4902243e-6, 1.9603110e-6
-0.224, 1.5115634e-6, 1.9632794e-6
-0.225, 1.4683410e-6, 1.9309741e-6
-0.226, 1.5326057e-6, 1.9998231e-6
-0.227, 1.4844691e-6, 1.9842064e-6
-0.228, 1.5105411e-6, 2.0031378e-6
-0.229, 1.5205179e-6, 2.0098166e-6
-0.230, 1.4864645e-6, 1.9843549e-6
-0.231, 1.5369098e-6, 1.9975805e-6
-0.232, 1.4938689e-6, 1.9285169e-6
-0.233, 1.5386083e-6, 1.9950080e-6
-0.234, 1.5212930e-6, 2.0174684e-6
-0.235, 1.5215899e-6, 2.0064358e-6
-0.236, 1.5465569e-6, 2.0505158e-6
-0.237, 1.5154387e-6, 1.9895165e-6
-0.238, 1.5683743e-6, 2.0311227e-6
-0.239, 1.5362502e-6, 1.9843383e-6
-0.240, 1.5487832e-6, 1.9918086e-6
-0.241, 1.5673847e-6, 2.0469372e-6
-0.242, 1.5395319e-6, 2.0463108e-6
-0.243, 1.5863327e-6, 2.0811062e-6
-0.244, 1.5339415e-6, 2.0521318e-6
-0.245, 1.5871736e-6, 2.0330192e-6
-0.246, 1.5807093e-6, 2.0211128e-6
-0.247, 1.5774442e-6, 1.9889721e-6
-0.248, 1.6064350e-6, 2.0651269e-6
-0.249, 1.5568967e-6, 2.0500706e-6
-0.250, 1.6181765e-6, 2.0899454e-6
-0.251, 1.5774773e-6, 2.0734381e-6
-0.252, 1.5933908e-6, 2.0511425e-6
-0.253, 1.6231238e-6, 2.0648795e-6
-0.254, 1.5969692e-6, 1.9941997e-6
-0.255, 1.6345848e-6, 2.0971024e-6
-0.256, 1.5809896e-6, 2.0744112e-6
-0.257, 1.6275269e-6, 2.1133951e-6
-0.258, 1.6245419e-6, 2.1181777e-6
-0.259, 1.6164945e-6, 2.0661328e-6
-0.260, 1.6509273e-6, 2.1151598e-6
-0.261, 1.5973817e-6, 2.0477289e-6
-0.262, 1.6581007e-6, 2.0943978e-6
-0.263, 1.6164779e-6, 2.1081514e-6
-0.264, 1.6431601e-6, 2.0987513e-6
-0.265, 1.6509273e-6, 2.1664462e-6
-0.266, 1.6324082e-6, 2.0980260e-6
-0.267, 1.6658514e-6, 2.0962284e-6
-0.268, 1.6235690e-6, 2.0589921e-6
-0.269, 1.6500696e-6, 2.0745265e-6
-0.270, 1.6384107e-6, 2.1080357e-6
-0.271, 1.6371080e-6, 2.0896650e-6
-0.272, 1.6638561e-6, 2.1370265e-6
-0.273, 1.6229753e-6, 2.1222181e-6
-0.274, 1.6566495e-6, 2.1100807e-6
-0.275, 1.6254158e-6, 2.0836128e-6
-0.276, 1.6532194e-6, 2.0589096e-6
-0.277, 1.6669399e-6, 2.1286328e-6
-0.278, 1.6274773e-6, 2.1101466e-6
-0.279, 1.6585955e-6, 2.1195299e-6
-0.280, 1.6194792e-6, 2.1234218e-6
-0.281, 1.6586944e-6, 2.1017856e-6
-0.282, 1.6262405e-6, 2.1002356e-6
-0.283, 1.6349145e-6, 2.0370758e-6
-0.284, 1.6541924e-6, 2.0657535e-6
-0.285, 1.6149938e-6, 2.0886262e-6
-0.286, 1.6447595e-6, 2.1019011e-6
-0.287, 1.6087438e-6, 2.1247738e-6
-0.288, 1.6326389e-6, 2.0851796e-6
-0.289, 1.6321112e-6, 2.0998893e-6
-0.290, 1.6114152e-6, 2.0471352e-6
-0.291, 1.6281699e-6, 2.0225639e-6
-0.292, 1.5864812e-6, 2.0640055e-6
-0.293, 1.6219859e-6, 2.0686723e-6
-0.294, 1.5935557e-6, 2.0903740e-6
-0.295, 1.5969529e-6, 2.0453379e-6
-0.296, 1.6069628e-6, 2.0608886e-6
-0.297, 1.5723650e-6, 2.0572111e-6
-0.298, 1.6060887e-6, 2.0107070e-6
-0.299, 1.5557093e-6, 2.0272473e-6
-0.300, 1.5924838e-6, 2.0432931e-6
-0.301, 1.5727774e-6, 2.0693319e-6
-0.302, 1.5749541e-6, 2.0780885e-6
-0.303, 1.5845848e-6, 2.0403904e-6
-0.304, 1.5477937e-6, 2.0144669e-6
-0.305, 1.5886249e-6, 1.9903080e-6
-0.306, 1.5458972e-6, 1.9973661e-6
-0.307, 1.5515207e-6, 2.0308423e-6
-0.308, 1.5610689e-6, 2.0629993e-6
-0.309, 1.5145154e-6, 2.0739658e-6
-0.310, 1.5689679e-6, 2.0383786e-6
-0.311, 1.5161479e-6, 1.9951563e-6
-0.312, 1.5459963e-6, 2.0045725e-6
-0.313, 1.5399442e-6, 1.9728111e-6
-0.314, 1.5247890e-6, 1.9970032e-6
-0.315, 1.5263556e-6, 1.9914128e-6
-0.316, 1.4989810e-6, 2.0424188e-6
-0.317, 1.5461446e-6, 2.0145330e-6
-0.318, 1.5072758e-6, 1.9871088e-6
-0.319, 1.5234203e-6, 1.9727618e-6
-0.320, 1.5287138e-6, 1.9576892e-6
-0.321, 1.5033675e-6, 1.9852287e-6
-0.322, 1.5259600e-6, 1.9855752e-6
-0.323, 1.4784334e-6, 2.0025770e-6
-0.324, 1.5208312e-6, 2.0417099e-6
-0.325, 1.5056597e-6, 1.9842887e-6
-0.326, 1.5009763e-6, 1.9577881e-6
-0.327, 1.5137898e-6, 1.9554959e-6
-0.328, 1.4745581e-6, 1.9354925e-6
-0.329, 1.5226453e-6, 1.9884114e-6
-0.330, 1.4766524e-6, 1.9748068e-6
-0.331, 1.4984038e-6, 2.0019834e-6
-0.332, 1.5077541e-6, 2.0023956e-6
-0.333, 1.4923352e-6, 1.9408026e-6
-0.334, 1.5054288e-6, 1.9311883e-6
-0.335, 1.4625034e-6, 1.8990479e-6
-0.336, 1.4935060e-6, 1.9706345e-6
-0.337, 1.4765700e-6, 1.9723989e-6
-0.338, 1.4719856e-6, 1.9671879e-6
-0.339, 1.4989974e-6, 1.9868119e-6
-0.340, 1.4622394e-6, 1.9635600e-6
-0.341, 1.5064512e-6, 1.9446120e-6
-0.342, 1.4666260e-6, 1.8920064e-6
-0.343, 1.4962270e-6, 1.9632134e-6
-0.344, 1.4918239e-6, 1.9816337e-6
-0.345, 1.4680772e-6, 1.9564029e-6
-0.346, 1.4983708e-6, 1.9687379e-6
-0.347, 1.4555771e-6, 1.9432598e-6
-0.348, 1.4981399e-6, 1.9803310e-6
-0.349, 1.4724308e-6, 1.9062378e-6
-0.350, 1.4715732e-6, 1.9471022e-6
-0.351, 1.4930938e-6, 1.9611689e-6
-0.352, 1.4455509e-6, 1.9767194e-6
-0.353, 1.4867284e-6, 1.9799681e-6
-0.354, 1.4486840e-6, 1.9352617e-6
-0.355, 1.4870252e-6, 1.9480749e-6
-0.356, 1.4891359e-6, 1.9255815e-6
-0.357, 1.4697428e-6, 1.9590907e-6
-0.358, 1.4902737e-6, 1.9555948e-6
-0.359, 1.4383774e-6, 1.9638733e-6
-0.360, 1.4977936e-6, 1.9980091e-6
-0.361, 1.4661972e-6, 1.9460961e-6
-0.362, 1.4717382e-6, 1.9375373e-6
-0.363, 1.5004487e-6, 1.9182266e-6
-0.364, 1.4607717e-6, 1.9355916e-6
-0.365, 1.4841228e-6, 1.9766699e-6
-0.366, 1.4471998e-6, 1.9674021e-6
-0.367, 1.4904058e-6, 1.9820461e-6
-0.368, 1.4822922e-6, 1.9763897e-6
-0.369, 1.4816986e-6, 1.9372405e-6
-0.370, 1.4920054e-6, 1.9094041e-6
-0.371, 1.4543073e-6, 1.9269337e-6
-0.372, 1.5023616e-6, 1.9750210e-6
-0.373, 1.4614479e-6, 1.9779234e-6
-0.374, 1.4734533e-6, 1.9807267e-6
-0.375, 1.4873385e-6, 1.9922045e-6
-0.376, 1.4581003e-6, 1.9596844e-6
-0.377, 1.4962435e-6, 1.9299682e-6
-0.378, 1.4528562e-6, 1.9265708e-6
-0.379, 1.4830673e-6, 1.9716238e-6
-0.380, 1.4804618e-6, 1.9785007e-6
-0.381, 1.4747890e-6, 1.9989327e-6
-0.382, 1.4921868e-6, 1.9767854e-6
-0.383, 1.4678627e-6, 1.9464260e-6
-0.384, 1.5126682e-6, 1.9331344e-6
-0.385, 1.4631299e-6, 1.9177814e-6
-0.386, 1.4791755e-6, 1.9625375e-6
-0.387, 1.4914282e-6, 1.9978772e-6
-0.388, 1.4629650e-6, 2.0058753e-6
-0.389, 1.4998550e-6, 1.9916934e-6
-0.390, 1.4582157e-6, 1.9395657e-6
-0.391, 1.5072759e-6, 1.9500869e-6
-0.392, 1.4904882e-6, 1.9769341e-6
-0.393, 1.4806102e-6, 1.9493284e-6
-0.394, 1.4951551e-6, 1.9693316e-6
-0.395, 1.4650100e-6, 1.9949748e-6
-0.396, 1.5092547e-6, 2.0023297e-6
-0.397, 1.4769493e-6, 1.9681279e-6
-0.398, 1.4866459e-6, 1.9665613e-6
-0.399, 1.5141030e-6, 1.9442161e-6
-0.400, 1.4802309e-6, 1.9758127e-6
-0.401, 1.5128662e-6, 1.9924516e-6
-0.402, 1.4622559e-6, 2.0079531e-6
-0.403, 1.5044559e-6, 1.9953045e-6
-0.404, 1.5131136e-6, 2.0015218e-6
-0.405, 1.4956828e-6, 1.9705685e-6
-0.406, 1.5157850e-6, 1.9584147e-6
-0.407, 1.4760093e-6, 1.9938041e-6
-0.408, 1.5126518e-6, 1.9972999e-6
-0.409, 1.4909006e-6, 2.0108225e-6
-0.410, 1.5092381e-6, 1.9961458e-6
-0.411, 1.5227442e-6, 2.0034347e-6
-0.412, 1.4917579e-6, 1.9664787e-6
-0.413, 1.5225298e-6, 1.9503177e-6
-0.414, 1.4759433e-6, 1.9780057e-6
-0.415, 1.5144328e-6, 2.0114492e-6
-0.416, 1.5127837e-6, 2.0223497e-6
-0.417, 1.4928464e-6, 1.9881145e-6
-0.418, 1.5355575e-6, 2.0043581e-6
-0.419, 1.4899275e-6, 1.9802649e-6
-0.420, 1.5355411e-6, 1.9598824e-6
-0.421, 1.4924011e-6, 1.9833158e-6
-0.422, 1.5166590e-6, 2.0054795e-6
-0.423, 1.5409996e-6, 2.0632467e-6
-0.424, 1.4970350e-6, 2.0096352e-6
-0.425, 1.5441658e-6, 1.9934246e-6
-0.426, 1.5018998e-6, 1.9970362e-6
-0.427, 1.5296539e-6, 1.9854929e-6
-0.428, 1.5300826e-6, 2.0246252e-6
-0.429, 1.5169229e-6, 1.9934578e-6
-0.430, 1.5390042e-6, 2.0408193e-6
-0.431, 1.4986182e-6, 2.0257960e-6
-0.432, 1.5424342e-6, 2.0283524e-6
-0.433, 1.5023451e-6, 1.9993613e-6
-0.434, 1.5195119e-6, 1.9660006e-6
-0.435, 1.5368603e-6, 2.0470034e-6
-0.436, 1.5115635e-6, 2.0007467e-6
-0.437, 1.5495089e-6, 2.0547211e-6
-0.438, 1.4967218e-6, 2.0220032e-6
-0.439, 1.5583480e-6, 2.0306609e-6
-0.440, 1.5309731e-6, 2.0190678e-6
-0.441, 1.5284829e-6, 1.9508454e-6
-0.442, 1.5616130e-6, 2.0401762e-6
-0.443, 1.5072924e-6, 2.0276925e-6
-0.444, 1.5618275e-6, 2.0668747e-6
-0.445, 1.5068965e-6, 2.0374223e-6
-0.446, 1.5597825e-6, 2.0308589e-6
-0.447, 1.5517351e-6, 2.0544735e-6
-0.448, 1.5437699e-6, 1.9628178e-6
-0.449, 1.5673518e-6, 2.0337284e-6
-0.450, 1.5069296e-6, 2.0175012e-6
-0.451, 1.5704355e-6, 2.0921716e-6
-0.452, 1.5351123e-6, 2.0607897e-6
-0.453, 1.5606400e-6, 1.9993449e-6
-0.454, 1.5689185e-6, 2.0400112e-6
-0.455, 1.5235687e-6, 1.9903409e-6
-0.456, 1.5766691e-6, 2.0589591e-6
-0.457, 1.5223485e-6, 2.0292591e-6
-0.458, 1.5659830e-6, 2.0877851e-6
-0.459, 1.5688854e-6, 2.0754335e-6
-0.460, 1.5565503e-6, 2.0194966e-6
-0.461, 1.5702377e-6, 2.0162811e-6
-0.462, 1.5362336e-6, 2.0105256e-6
-0.463, 1.5840735e-6, 2.0699090e-6
-0.464, 1.5410984e-6, 2.0508292e-6
-0.465, 1.5591888e-6, 2.0944474e-6
-0.466, 1.5787305e-6, 2.0839591e-6
-0.467, 1.5563360e-6, 2.0496418e-6
-0.468, 1.5963922e-6, 2.0172042e-6
-0.469, 1.5351618e-6, 2.0116800e-6
-0.470, 1.5761249e-6, 2.0667594e-6
-0.471, 1.5652574e-6, 2.1037151e-6
-0.472, 1.5662304e-6, 2.0837119e-6
-0.473, 1.5831995e-6, 2.0752357e-6
-0.474, 1.5510424e-6, 2.0584973e-6
-0.475, 1.5874210e-6, 2.0330026e-6
-0.476, 1.5683906e-6, 2.0384775e-6
-0.477, 1.5662798e-6, 2.0553971e-6
-0.478, 1.6011909e-6, 2.1029073e-6
-0.479, 1.5662305e-6, 2.0883954e-6
-0.480, 1.5995749e-6, 2.0637085e-6
-0.481, 1.5509270e-6, 2.0595035e-6
-0.482, 1.5875366e-6, 2.0275606e-6
-0.483, 1.5960128e-6, 2.0776431e-6
-0.484, 1.5696274e-6, 2.0577388e-6
-0.485, 1.6051158e-6, 2.1238338e-6
-0.486, 1.5593538e-6, 2.0950574e-6
-0.487, 1.6010096e-6, 2.0863504e-6
-0.488, 1.5766527e-6, 2.0648959e-6
-0.489, 1.5961119e-6, 2.0213106e-6
-0.490, 1.6081666e-6, 2.1176334e-6
-0.491, 1.5752179e-6, 2.0569803e-6
-0.492, 1.6093375e-6, 2.1111196e-6
-0.493, 1.5559073e-6, 2.0809580e-6
-0.494, 1.6005972e-6, 2.0993946e-6
-0.495, 1.6025763e-6, 2.0648959e-6
-0.496, 1.5808578e-6, 2.0215909e-6
-0.497, 1.6153401e-6, 2.1159019e-6
-0.498, 1.5529058e-6, 2.0830521e-6
-0.499, 1.6181106e-6, 2.1105425e-6
-0.500, 1.5745584e-6, 2.1050839e-6
