Dec. 21, 2005   08:33:59
Square Wave Voltammetry
File: d:\ida_biofilms\12_10_18_dphzstar\a_760b\100um_pyo\a_100um_pyo_swvfast_final.txt
Data Source:  Experiment
Instrument Model:  CHI760E
Header: 
Note: 

Init E (V) = 0.1
Final E (V) = -0.5
Incr E (V) = 0.001
Amplitude (V) = 0.025
Frequency (Hz) = 300
Quiet Time (sec) = 2
Sensitivity (A/V) = 1e-6
Sens 2 (A/V) = 1e-6

Potential/V, i1/A, i2/A

0.099, 1.4745087e-6, 1.9793745e-6
0.098, 1.5273946e-6, 2.0030225e-6
0.097, 1.5886744e-6, 2.0370098e-6
0.096, 1.5559567e-6, 1.9942986e-6
0.095, 1.5889877e-6, 2.0657203e-6
0.094, 1.5931599e-6, 2.0946122e-6
0.093, 1.5793076e-6, 2.0757964e-6
0.092, 1.6012075e-6, 2.0925015e-6
0.091, 1.5780213e-6, 2.0703048e-6
0.090, 1.6137076e-6, 2.0741309e-6
0.089, 1.5851783e-6, 2.0434743e-6
0.088, 1.5757787e-6, 2.0972507e-6
0.087, 1.5992946e-6, 2.1367957e-6
0.086, 1.5651585e-6, 2.1224159e-6
0.085, 1.6127674e-6, 2.0735865e-6
0.084, 1.5636084e-6, 2.0934908e-6
0.083, 1.5884107e-6, 2.0277421e-6
0.082, 1.6019495e-6, 2.1113833e-6
0.081, 1.5705016e-6, 2.0644836e-6
0.080, 1.6010260e-6, 2.1247738e-6
0.079, 1.5624375e-6, 2.0909679e-6
0.078, 1.6018341e-6, 2.0757961e-6
0.077, 1.5792912e-6, 2.0828215e-6
0.076, 1.5699079e-6, 2.0210798e-6
0.075, 1.6105082e-6, 2.1166770e-6
0.074, 1.5539943e-6, 2.0401267e-6
0.073, 1.5986843e-6, 2.1213439e-6
0.072, 1.5421539e-6, 2.0864493e-6
0.071, 1.5867450e-6, 2.0765547e-6
0.070, 1.5834798e-6, 2.0443317e-6
0.069, 1.5652905e-6, 2.0083489e-6
0.068, 1.5953862e-6, 2.1004830e-6
0.067, 1.5426322e-6, 2.1054138e-6
0.066, 1.5882292e-6, 2.1346518e-6
0.065, 1.5566328e-6, 2.0744110e-6
0.064, 1.5841561e-6, 2.0721682e-6
0.063, 1.5906863e-6, 2.0530720e-6
0.062, 1.5581170e-6, 2.0470197e-6
0.061, 1.5781038e-6, 2.0652585e-6
0.060, 1.5380642e-6, 2.0773628e-6
0.059, 1.5684236e-6, 2.1063206e-6
0.058, 1.5701883e-6, 2.0552980e-6
0.057, 1.5543242e-6, 2.0119439e-6
0.056, 1.5864812e-6, 2.0165612e-6
0.055, 1.5301816e-6, 2.0491141e-6
0.054, 1.5613327e-6, 2.0506809e-6
0.053, 1.5430938e-6, 2.0576563e-6
0.052, 1.5597990e-6, 2.0791933e-6
0.051, 1.5732061e-6, 2.0687548e-6
0.050, 1.5239646e-6, 2.0280884e-6
0.049, 1.5729422e-6, 1.9944966e-6
0.048, 1.5176981e-6, 2.0407533e-6
0.047, 1.5610524e-6, 2.0572936e-6
0.046, 1.5391031e-6, 2.1002686e-6
0.045, 1.5313690e-6, 2.0106741e-6
0.044, 1.5833150e-6, 2.0446780e-6
0.043, 1.5221176e-6, 1.9830520e-6
0.042, 1.5643340e-6, 2.0360203e-6
0.041, 1.5255312e-6, 2.0453047e-6
0.040, 1.5428959e-6, 2.0532534e-6
0.039, 1.5557423e-6, 2.0945959e-6
0.038, 1.5206994e-6, 2.0239490e-6
0.037, 1.5481237e-6, 2.0297209e-6
0.036, 1.5045548e-6, 1.9755157e-6
0.035, 1.5620913e-6, 2.0360039e-6
0.034, 1.5149772e-6, 2.0520661e-6
0.033, 1.5257785e-6, 2.0325408e-6
0.032, 1.5452376e-6, 2.0741968e-6
0.031, 1.5049507e-6, 2.0245427e-6
0.030, 1.5463920e-6, 2.0418418e-6
0.029, 1.4984038e-6, 1.9735203e-6
0.028, 1.5436545e-6, 2.0357402e-6
0.027, 1.5300498e-6, 2.0517691e-6
0.026, 1.5236842e-6, 2.0745595e-6
0.025, 1.5316987e-6, 2.0490977e-6
0.024, 1.5005476e-6, 2.0083160e-6
0.023, 1.5523781e-6, 2.0342725e-6
0.022, 1.5092216e-6, 1.9959973e-6
0.021, 1.5218702e-6, 2.0133787e-6
0.020, 1.5252673e-6, 2.0554960e-6
0.019, 1.4916426e-6, 2.0636755e-6
0.018, 1.5323913e-6, 2.0503510e-6
0.017, 1.5003498e-6, 2.0193647e-6
0.016, 1.5210621e-6, 2.0186721e-6
0.015, 1.5249540e-6, 2.0053312e-6
0.014, 1.5046044e-6, 2.0130324e-6
0.013, 1.5203200e-6, 2.0265052e-6
0.012, 1.4937534e-6, 2.0568814e-6
0.011, 1.5367284e-6, 2.0498892e-6
0.010, 1.5026585e-6, 2.0184411e-6
0.009, 1.5029882e-6, 1.9766039e-6
0.008, 1.5343867e-6, 1.9829861e-6
0.007, 1.4921868e-6, 2.0094371e-6
0.006, 1.5268174e-6, 2.0320626e-6
0.005, 1.4827540e-6, 2.0548034e-6
0.004, 1.5178960e-6, 2.0245427e-6
0.003, 1.5272626e-6, 2.0402749e-6
0.002, 1.4923517e-6, 1.9391041e-6
0.001, 1.5313359e-6, 2.0081675e-6
-0.000, 1.4788457e-6, 2.0015218e-6
-0.001, 1.5224803e-6, 2.0250045e-6
-0.002, 1.4938688e-6, 2.0543416e-6
-0.003, 1.4951881e-6, 1.9853278e-6
-0.004, 1.5229916e-6, 2.0269506e-6
-0.005, 1.4862666e-6, 1.9337774e-6
-0.006, 1.5188029e-6, 1.9813040e-6
-0.007, 1.4652574e-6, 1.9967065e-6
-0.008, 1.5074738e-6, 2.0176662e-6
-0.009, 1.5034004e-6, 2.0576399e-6
-0.010, 1.4851122e-6, 1.9799186e-6
-0.011, 1.5175826e-6, 2.0076727e-6
-0.012, 1.4805607e-6, 1.9580025e-6
-0.013, 1.5116789e-6, 1.9983058e-6
-0.014, 1.4764380e-6, 1.9906047e-6
-0.015, 1.5103267e-6, 2.0123066e-6
-0.016, 1.5112007e-6, 2.0741472e-6
-0.017, 1.4766854e-6, 1.9568151e-6
-0.018, 1.5094856e-6, 1.9831673e-6
-0.019, 1.4659335e-6, 1.9254001e-6
-0.020, 1.4954685e-6, 2.0044736e-6
-0.021, 1.4921043e-6, 1.9992294e-6
-0.022, 1.4780376e-6, 1.9879167e-6
-0.023, 1.5135588e-6, 2.0446780e-6
-0.024, 1.4545712e-6, 2.0004497e-6
-0.025, 1.5005642e-6, 1.9825243e-6
-0.026, 1.4711115e-6, 1.9290114e-6
-0.027, 1.4997231e-6, 1.9629497e-6
-0.028, 1.4982388e-6, 2.0041437e-6
-0.029, 1.4669723e-6, 1.9840086e-6
-0.030, 1.5078530e-6, 2.0028904e-6
-0.031, 1.4528891e-6, 1.9732070e-6
-0.032, 1.5057751e-6, 1.9810896e-6
-0.033, 1.4803463e-6, 1.9445461e-6
-0.034, 1.4769657e-6, 1.9170559e-6
-0.035, 1.5097495e-6, 1.9978938e-6
-0.036, 1.4546042e-6, 1.9778081e-6
-0.037, 1.5026419e-6, 2.0367956e-6
-0.038, 1.4567809e-6, 2.0021482e-6
-0.039, 1.4959962e-6, 1.9791437e-6
-0.040, 1.4968537e-6, 1.9550507e-6
-0.041, 1.4741788e-6, 1.9506476e-6
-0.042, 1.4952210e-6, 1.9685401e-6
-0.043, 1.4465732e-6, 1.9613501e-6
-0.044, 1.4977606e-6, 2.0267692e-6
-0.045, 1.4518337e-6, 1.9923693e-6
-0.046, 1.4782190e-6, 1.9377683e-6
-0.047, 1.4840732e-6, 1.9529398e-6
-0.048, 1.4491623e-6, 1.9246415e-6
-0.049, 1.4852442e-6, 1.9889887e-6
-0.050, 1.4357718e-6, 1.9710633e-6
-0.051, 1.4841062e-6, 2.0167427e-6
-0.052, 1.4874374e-6, 2.0128673e-6
-0.053, 1.4744755e-6, 1.9478277e-6
-0.054, 1.4799341e-6, 1.9528409e-6
-0.055, 1.4508279e-6, 1.9543086e-6
-0.056, 1.4821110e-6, 1.9878344e-6
-0.057, 1.4599473e-6, 1.9786653e-6
-0.058, 1.4687533e-6, 2.0055948e-6
-0.059, 1.4825562e-6, 2.0144505e-6
-0.060, 1.4475627e-6, 1.9508950e-6
-0.061, 1.4909334e-6, 1.9579529e-6
-0.062, 1.4408674e-6, 1.9129002e-6
-0.063, 1.4659664e-6, 1.9747076e-6
-0.064, 1.4774770e-6, 1.9967229e-6
-0.065, 1.4645975e-6, 1.9754498e-6
-0.066, 1.4769162e-6, 1.9886754e-6
-0.067, 1.4455672e-6, 1.9559907e-6
-0.068, 1.4892018e-6, 1.9640711e-6
-0.069, 1.4527573e-6, 1.9189192e-6
-0.070, 1.4521636e-6, 1.9682927e-6
-0.071, 1.4642513e-6, 1.9948097e-6
-0.072, 1.4492116e-6, 1.9915449e-6
-0.073, 1.4851946e-6, 1.9759445e-6
-0.074, 1.4341886e-6, 1.9477288e-6
-0.075, 1.4758774e-6, 1.9583817e-6
-0.076, 1.4720679e-6, 1.9420393e-6
-0.077, 1.4605408e-6, 1.9475804e-6
-0.078, 1.4790105e-6, 1.9807926e-6
-0.079, 1.4373054e-6, 1.9814029e-6
-0.080, 1.4907191e-6, 1.9937545e-6
-0.081, 1.4519492e-6, 1.9462116e-6
-0.082, 1.4694789e-6, 1.9434081e-6
-0.083, 1.4765369e-6, 1.9399781e-6
-0.084, 1.4488984e-6, 1.9429958e-6
-0.085, 1.4765535e-6, 1.9568151e-6
-0.086, 1.4347494e-6, 1.9683916e-6
-0.087, 1.4721174e-6, 1.9926661e-6
-0.088, 1.4593701e-6, 1.9610202e-6
-0.089, 1.4570778e-6, 1.9296713e-6
-0.090, 1.4777079e-6, 1.9240974e-6
-0.091, 1.4468535e-6, 1.9411818e-6
-0.092, 1.4724637e-6, 1.9735369e-6
-0.093, 1.4455013e-6, 1.9642525e-6
-0.094, 1.4731069e-6, 2.0003179e-6
-0.095, 1.4807092e-6, 1.9593549e-6
-0.096, 1.4492282e-6, 1.9277418e-6
-0.097, 1.4834961e-6, 1.8966236e-6
-0.098, 1.4398945e-6, 1.8952551e-6
-0.099, 1.4616953e-6, 1.9778738e-6
-0.100, 1.4645152e-6, 1.9819636e-6
-0.101, 1.4467711e-6, 1.9826891e-6
-0.102, 1.4892679e-6, 1.9655388e-6
-0.103, 1.4312202e-6, 1.9391368e-6
-0.104, 1.4729750e-6, 1.9139061e-6
-0.105, 1.4407354e-6, 1.8869766e-6
-0.106, 1.4602936e-6, 1.9594536e-6
-0.107, 1.4674340e-6, 1.9732893e-6
-0.108, 1.4443470e-6, 1.9628508e-6
-0.109, 1.4773614e-6, 1.9500374e-6
-0.110, 1.4286641e-6, 1.9460961e-6
-0.111, 1.4835126e-6, 1.9406045e-6
-0.112, 1.4490633e-6, 1.9156707e-6
-0.113, 1.4521141e-6, 1.9303804e-6
-0.114, 1.4719195e-6, 1.9623230e-6
-0.115, 1.4417085e-6, 1.9662973e-6
-0.116, 1.4810720e-6, 1.9776594e-6
-0.117, 1.4334465e-6, 1.9538963e-6
-0.118, 1.4734862e-6, 1.9604267e-6
-0.119, 1.4681926e-6, 1.9353110e-6
-0.120, 1.4564678e-6, 1.9511917e-6
-0.121, 1.4833147e-6, 1.9393019e-6
-0.122, 1.4309564e-6, 1.9598988e-6
-0.123, 1.4817317e-6, 1.9725144e-6
-0.124, 1.4554123e-6, 1.9489489e-6
-0.125, 1.4565502e-6, 1.9175011e-6
-0.126, 1.4761247e-6, 1.9319305e-6
-0.127, 1.4416919e-6, 1.9524946e-6
-0.128, 1.4719361e-6, 1.9675836e-6
-0.129, 1.4381299e-6, 1.9663469e-6
-0.130, 1.4687698e-6, 1.9808258e-6
-0.131, 1.4641030e-6, 1.9771483e-6
-0.132, 1.4684895e-6, 1.9385102e-6
-0.133, 1.4758280e-6, 1.8981409e-6
-0.134, 1.4410653e-6, 1.9391371e-6
-0.135, 1.4770153e-6, 1.9617130e-6
-0.136, 1.4495910e-6, 1.9830354e-6
-0.137, 1.4606563e-6, 1.9909346e-6
-0.138, 1.4780542e-6, 1.9638237e-6
-0.139, 1.4297361e-6, 1.9500703e-6
-0.140, 1.4848647e-6, 1.9034014e-6
-0.141, 1.4446438e-6, 1.9202714e-6
-0.142, 1.4690502e-6, 1.9465579e-6
-0.143, 1.4747066e-6, 2.0066998e-6
-0.144, 1.4595680e-6, 1.9777090e-6
-0.145, 1.4816162e-6, 1.9864326e-6
-0.146, 1.4439840e-6, 1.9467391e-6
-0.147, 1.4829518e-6, 1.9188203e-6
-0.148, 1.4529882e-6, 1.9412641e-6
-0.149, 1.4504650e-6, 1.9569470e-6
-0.150, 1.4830673e-6, 1.9979102e-6
-0.151, 1.4520151e-6, 1.9816998e-6
-0.152, 1.5001847e-6, 1.9771649e-6
-0.153, 1.4332321e-6, 1.9366139e-6
-0.154, 1.4766030e-6, 1.9097010e-6
-0.155, 1.4733707e-6, 1.9306276e-6
-0.156, 1.4599307e-6, 1.9346185e-6
-0.157, 1.4823418e-6, 1.9989986e-6
-0.158, 1.4444129e-6, 1.9993120e-6
-0.159, 1.4916261e-6, 1.9841900e-6
-0.160, 1.4631300e-6, 1.9371582e-6
-0.161, 1.4756795e-6, 1.9122569e-6
-0.162, 1.5042581e-6, 1.9670724e-6
-0.163, 1.4567481e-6, 1.9336949e-6
-0.164, 1.4898781e-6, 1.9435731e-6
-0.165, 1.4457652e-6, 1.9865151e-6
-0.166, 1.4761741e-6, 1.9844042e-6
-0.167, 1.4864810e-6, 1.9529068e-6
-0.168, 1.4570943e-6, 1.8855253e-6
-0.169, 1.4939183e-6, 1.9386423e-6
-0.170, 1.4538622e-6, 1.9670395e-6
-0.171, 1.4894822e-6, 1.9886259e-6
-0.172, 1.4586940e-6, 1.9837942e-6
-0.173, 1.4904883e-6, 1.9820625e-6
-0.174, 1.4996406e-6, 1.9910171e-6
-0.175, 1.4499867e-6, 1.9278243e-6
-0.176, 1.4996735e-6, 1.9224153e-6
-0.177, 1.4468371e-6, 1.9619108e-6
-0.178, 1.4918570e-6, 1.9659510e-6
-0.179, 1.4826880e-6, 2.0259281e-6
-0.180, 1.4678959e-6, 1.9622078e-6
-0.181, 1.5135589e-6, 1.9564852e-6
-0.182, 1.4485356e-6, 1.9068646e-6
-0.183, 1.5025264e-6, 1.9238007e-6
-0.184, 1.4529880e-6, 1.9527913e-6
-0.185, 1.4845516e-6, 1.9716404e-6
-0.186, 1.4937699e-6, 2.0362349e-6
-0.187, 1.4644656e-6, 1.9770823e-6
-0.188, 1.5027574e-6, 1.9510928e-6
-0.189, 1.4519328e-6, 1.9080519e-6
-0.190, 1.4972494e-6, 1.9697768e-6
-0.191, 1.4723648e-6, 1.9848660e-6
-0.192, 1.4695779e-6, 1.9456179e-6
-0.193, 1.5022131e-6, 2.0191997e-6
-0.194, 1.4623879e-6, 1.9798033e-6
-0.195, 1.5071439e-6, 1.9712775e-6
-0.196, 1.4553958e-6, 1.9266699e-6
-0.197, 1.4890535e-6, 1.9440840e-6
-0.198, 1.5000035e-6, 2.0010600e-6
-0.199, 1.4747560e-6, 1.9689028e-6
-0.200, 1.4967547e-6, 2.0125706e-6
-0.201, 1.4570282e-6, 1.9798692e-6
-0.202, 1.5149112e-6, 1.9815513e-6
-0.203, 1.4771965e-6, 1.9313534e-6
-0.204, 1.4933246e-6, 1.9151098e-6
-0.205, 1.5009434e-6, 2.0106575e-6
-0.206, 1.4595349e-6, 1.9847505e-6
-0.207, 1.5080013e-6, 2.0178313e-6
-0.208, 1.4635423e-6, 1.9557267e-6
-0.209, 1.4947428e-6, 1.9660993e-6
-0.210, 1.5005311e-6, 1.9542756e-6
-0.211, 1.4830180e-6, 1.9565182e-6
-0.212, 1.5009598e-6, 1.9787312e-6
-0.213, 1.4637895e-6, 1.9904069e-6
-0.214, 1.5087764e-6, 2.0258785e-6
-0.215, 1.4861677e-6, 1.9687545e-6
-0.216, 1.4904882e-6, 1.9679960e-6
-0.217, 1.5127014e-6, 1.9684412e-6
-0.218, 1.4658015e-6, 1.9650111e-6
-0.219, 1.5161972e-6, 1.9792262e-6
-0.220, 1.4810885e-6, 1.9849485e-6
-0.221, 1.5010588e-6, 2.0005818e-6
-0.222, 1.5015866e-6, 2.0134776e-6
-0.223, 1.4943635e-6, 1.9432596e-6
-0.224, 1.5159829e-6, 1.9405552e-6
-0.225, 1.4829849e-6, 1.9790614e-6
-0.226, 1.5152409e-6, 1.9903409e-6
-0.227, 1.4855575e-6, 2.0161820e-6
-0.228, 1.4873715e-6, 2.0064854e-6
-0.229, 1.5190172e-6, 2.0043253e-6
-0.230, 1.4860850e-6, 1.9652421e-6
-0.231, 1.5181597e-6, 1.9301497e-6
-0.232, 1.4643008e-6, 1.9736688e-6
-0.233, 1.5042086e-6, 1.9932104e-6
-0.234, 1.5135588e-6, 2.0351629e-6
-0.235, 1.4929453e-6, 1.9769668e-6
-0.236, 1.5129651e-6, 2.0135765e-6
-0.237, 1.4781201e-6, 1.9941338e-6
-0.238, 1.5246405e-6, 1.9398460e-6
-0.239, 1.5065502e-6, 1.9926497e-6
-0.240, 1.5083476e-6, 1.9804465e-6
-0.241, 1.5328367e-6, 2.0550508e-6
-0.242, 1.4821769e-6, 1.9913800e-6
-0.243, 1.5252015e-6, 1.9710963e-6
-0.244, 1.4771141e-6, 1.9639060e-6
-0.245, 1.5107059e-6, 1.9624385e-6
-0.246, 1.5177145e-6, 2.0013731e-6
-0.247, 1.4907851e-6, 1.9624549e-6
-0.248, 1.5302969e-6, 2.0302650e-6
-0.249, 1.4797032e-6, 1.9937215e-6
-0.250, 1.5243934e-6, 1.9882632e-6
-0.251, 1.5067480e-6, 1.9385598e-6
-0.252, 1.5304620e-6, 1.9372405e-6
-0.253, 1.5271637e-6, 2.0224484e-6
-0.254, 1.4741128e-6, 2.0001198e-6
-0.255, 1.5323913e-6, 1.9993449e-6
-0.256, 1.4850298e-6, 2.0051828e-6
-0.257, 1.5237007e-6, 1.9863337e-6
-0.258, 1.5080509e-6, 2.0196617e-6
-0.259, 1.4951056e-6, 1.9223658e-6
-0.260, 1.5415271e-6, 2.0122739e-6
-0.261, 1.4754817e-6, 1.9861027e-6
-0.262, 1.5362996e-6, 2.0150605e-6
-0.263, 1.4934401e-6, 2.0011423e-6
-0.264, 1.5192318e-6, 1.9719866e-6
-0.265, 1.5180115e-6, 1.9874715e-6
-0.266, 1.4986676e-6, 1.9319468e-6
-0.267, 1.5298517e-6, 2.0007137e-6
-0.268, 1.4626846e-6, 1.9791107e-6
-0.269, 1.5150431e-6, 2.0162151e-6
-0.270, 1.4890700e-6, 2.0173366e-6
-0.271, 1.5066987e-6, 1.9435565e-6
-0.272, 1.5275101e-6, 1.9865315e-6
-0.273, 1.4833313e-6, 1.9485533e-6
-0.274, 1.5223484e-6, 2.0183916e-6
-0.275, 1.4759598e-6, 1.9849153e-6
-0.276, 1.5152739e-6, 2.0101959e-6
-0.277, 1.5159005e-6, 2.0022144e-6
-0.278, 1.5006300e-6, 1.9671713e-6
-0.279, 1.5128167e-6, 1.9549846e-6
-0.280, 1.4815832e-6, 1.9317490e-6
-0.281, 1.5242944e-6, 2.0134280e-6
-0.282, 1.4872395e-6, 2.0088601e-6
-0.283, 1.4935556e-6, 1.9953541e-6
-0.284, 1.5084468e-6, 2.0185730e-6
-0.285, 1.4760421e-6, 1.9855916e-6
-0.286, 1.5144824e-6, 1.9477286e-6
-0.287, 1.4810389e-6, 1.9247570e-6
-0.288, 1.5052310e-6, 1.9903573e-6
-0.289, 1.5150431e-6, 2.0238667e-6
-0.290, 1.4978759e-6, 2.0135765e-6
-0.291, 1.5087930e-6, 1.9666768e-6
-0.292, 1.4814841e-6, 1.9719371e-6
-0.293, 1.5157850e-6, 1.9507133e-6
-0.294, 1.4935060e-6, 1.9308254e-6
-0.295, 1.4924836e-6, 1.9734707e-6
-0.296, 1.5144658e-6, 2.0280884e-6
-0.297, 1.4735356e-6, 2.0254663e-6
-0.298, 1.5192315e-6, 1.9857071e-6
-0.299, 1.4665436e-6, 1.9819140e-6
-0.300, 1.5008113e-6, 1.9201891e-6
-0.301, 1.5030377e-6, 1.9566501e-6
-0.302, 1.4816492e-6, 1.9486026e-6
-0.303, 1.5138062e-6, 1.9992294e-6
-0.304, 1.4628167e-6, 2.0144339e-6
-0.305, 1.5173517e-6, 1.9838271e-6
-0.306, 1.4858048e-6, 1.9708984e-6
-0.307, 1.4741622e-6, 1.9223660e-6
-0.308, 1.5123881e-6, 1.9932268e-6
-0.309, 1.4722988e-6, 1.9502681e-6
-0.310, 1.5098979e-6, 1.9881313e-6
-0.311, 1.4531695e-6, 1.9930783e-6
-0.312, 1.4911478e-6, 1.9738172e-6
-0.313, 1.4977772e-6, 1.9921549e-6
-0.314, 1.4673845e-6, 1.8894336e-6
-0.315, 1.5034996e-6, 1.9710797e-6
-0.316, 1.4597493e-6, 1.9733388e-6
-0.317, 1.5020482e-6, 2.0075408e-6
-0.318, 1.4735026e-6, 2.0015052e-6
-0.319, 1.4924011e-6, 1.9530223e-6
-0.320, 1.5089249e-6, 2.0066009e-6
-0.321, 1.4667745e-6, 1.8935564e-6
-0.322, 1.5030213e-6, 1.9689523e-6
-0.323, 1.4480904e-6, 1.9377846e-6
-0.324, 1.4846505e-6, 1.9990150e-6
-0.325, 1.4856398e-6, 1.9916934e-6
-0.326, 1.4656860e-6, 1.9210136e-6
-0.327, 1.5132950e-6, 1.9743611e-6
-0.328, 1.4502341e-6, 1.9091403e-6
-0.329, 1.5020812e-6, 1.9736028e-6
-0.330, 1.4558080e-6, 1.9375702e-6
-0.331, 1.4982224e-6, 1.9746087e-6
-0.332, 1.4946604e-6, 2.0045229e-6
-0.333, 1.4597658e-6, 1.9413467e-6
-0.334, 1.5054618e-6, 1.9457498e-6
-0.335, 1.4451549e-6, 1.8983552e-6
-0.336, 1.4985523e-6, 1.9710797e-6
-0.337, 1.4699407e-6, 1.9721019e-6
-0.338, 1.4727935e-6, 1.9524120e-6
-0.339, 1.5022956e-6, 1.9852287e-6
-0.340, 1.4488160e-6, 1.9292754e-6
-0.341, 1.4925496e-6, 1.9608387e-6
-0.342, 1.4604750e-6, 1.8957001e-6
-0.343, 1.4854420e-6, 1.9493118e-6
-0.344, 1.4856564e-6, 1.9898628e-6
-0.345, 1.4581827e-6, 1.9744439e-6
-0.346, 1.4790271e-6, 1.9689689e-6
-0.347, 1.4398120e-6, 1.9363995e-6
-0.348, 1.4986182e-6, 1.9526428e-6
-0.349, 1.4568800e-6, 1.9112840e-6
-0.350, 1.4699407e-6, 1.9308420e-6
-0.351, 1.4791756e-6, 1.9744602e-6
-0.352, 1.4392183e-6, 1.9974154e-6
-0.353, 1.4910984e-6, 1.9674187e-6
-0.354, 1.4489973e-6, 1.9344373e-6
-0.355, 1.4864975e-6, 1.9463434e-6
-0.356, 1.4817316e-6, 1.9240315e-6
-0.357, 1.4646637e-6, 1.9521483e-6
-0.358, 1.4769987e-6, 1.9526594e-6
-0.359, 1.4461280e-6, 1.9625375e-6
-0.360, 1.4860027e-6, 1.9846184e-6
-0.361, 1.4633608e-6, 1.9610202e-6
-0.362, 1.4764050e-6, 1.9356407e-6
-0.363, 1.4790107e-6, 1.9422703e-6
-0.364, 1.4357387e-6, 1.9614986e-6
-0.365, 1.4794558e-6, 1.9455354e-6
-0.366, 1.4552145e-6, 1.9833324e-6
-0.367, 1.4695285e-6, 1.9658851e-6
-0.368, 1.4814512e-6, 1.9712281e-6
-0.369, 1.4677803e-6, 1.9072438e-6
-0.370, 1.4821768e-6, 1.9080189e-6
-0.371, 1.4416260e-6, 1.9562708e-6
-0.372, 1.4810555e-6, 1.9835138e-6
-0.373, 1.4601781e-6, 2.0156708e-6
-0.374, 1.4551814e-6, 1.9659840e-6
-0.375, 1.4939512e-6, 1.9825573e-6
-0.376, 1.4563523e-6, 1.9125869e-6
-0.377, 1.4914776e-6, 1.9300505e-6
-0.378, 1.4419887e-6, 1.9500210e-6
-0.379, 1.4742282e-6, 1.9504496e-6
-0.380, 1.4836116e-6, 2.0303476e-6
-0.381, 1.4652244e-6, 1.9446120e-6
-0.382, 1.4910818e-6, 1.9679464e-6
-0.383, 1.4524769e-6, 1.8907530e-6
-0.384, 1.4972989e-6, 1.9116962e-6
-0.385, 1.4564347e-6, 1.9573595e-6
-0.386, 1.4652738e-6, 1.9499055e-6
-0.387, 1.4889876e-6, 2.0295890e-6
-0.388, 1.4554453e-6, 1.9426498e-6
-0.389, 1.4955509e-6, 1.9528243e-6
-0.390, 1.4499208e-6, 1.8985530e-6
-0.391, 1.4836280e-6, 1.9505651e-6
-0.392, 1.4721999e-6, 1.9689523e-6
-0.393, 1.4592051e-6, 1.9389886e-6
-0.394, 1.4937369e-6, 2.0300342e-6
-0.395, 1.4448251e-6, 1.9535664e-6
-0.396, 1.4898450e-6, 1.9753506e-6
-0.397, 1.4673021e-6, 1.8957332e-6
-0.398, 1.4842217e-6, 1.9599979e-6
-0.399, 1.4978266e-6, 1.9976958e-6
-0.400, 1.4467216e-6, 1.9571944e-6
-0.401, 1.4999869e-6, 2.0006642e-6
-0.402, 1.4461280e-6, 1.9301660e-6
-0.403, 1.4835621e-6, 1.9823924e-6
-0.404, 1.4914613e-6, 1.9193315e-6
-0.405, 1.4544723e-6, 1.9226131e-6
-0.406, 1.4958313e-6, 1.9765216e-6
-0.407, 1.4446108e-6, 1.9894339e-6
-0.408, 1.4863984e-6, 1.9768515e-6
-0.409, 1.4559234e-6, 1.9340907e-6
-0.410, 1.4997891e-6, 1.9439688e-6
-0.411, 1.4925001e-6, 1.9361851e-6
-0.412, 1.4632124e-6, 1.9573758e-6
-0.413, 1.4969527e-6, 1.9600802e-6
-0.414, 1.4469360e-6, 1.9886918e-6
-0.415, 1.5028234e-6, 2.0053803e-6
-0.416, 1.4702871e-6, 1.9711952e-6
-0.417, 1.4660324e-6, 1.9376528e-6
-0.418, 1.5011249e-6, 1.9246249e-6
-0.419, 1.4728926e-6, 1.9451397e-6
-0.420, 1.4979586e-6, 1.9716899e-6
-0.421, 1.4513226e-6, 1.9946945e-6
-0.422, 1.4889051e-6, 1.9753506e-6
-0.423, 1.4919228e-6, 1.9927979e-6
-0.424, 1.4804948e-6, 1.9354266e-6
-0.425, 1.5013557e-6, 1.9211786e-6
-0.426, 1.4508773e-6, 1.9711952e-6
-0.427, 1.5054618e-6, 1.9593053e-6
-0.428, 1.4688853e-6, 2.0037480e-6
-0.429, 1.4745910e-6, 1.9587444e-6
-0.430, 1.4984862e-6, 1.9834972e-6
-0.431, 1.4504980e-6, 1.9570955e-6
-0.432, 1.5005312e-6, 1.9286490e-6
-0.433, 1.4531365e-6, 1.9706345e-6
-0.434, 1.4844195e-6, 1.9560237e-6
-0.435, 1.4975298e-6, 2.0183259e-6
-0.436, 1.4820449e-6, 1.9639888e-6
-0.437, 1.4961445e-6, 1.9776596e-6
-0.438, 1.4624209e-6, 1.9400770e-6
-0.439, 1.5081664e-6, 1.9343215e-6
-0.440, 1.4786149e-6, 1.9999879e-6
-0.441, 1.4759269e-6, 1.9884610e-6
-0.442, 1.5002672e-6, 2.0558919e-6
-0.443, 1.4478101e-6, 1.9926167e-6
-0.444, 1.5132289e-6, 1.9787972e-6
-0.445, 1.4626683e-6, 1.9244767e-6
-0.446, 1.4936874e-6, 1.9186389e-6
-0.447, 1.4967382e-6, 2.0105585e-6
-0.448, 1.4730905e-6, 1.9783686e-6
-0.449, 1.5016360e-6, 2.0415284e-6
-0.450, 1.4628332e-6, 1.9643512e-6
-0.451, 1.5143504e-6, 1.9921054e-6
-0.452, 1.4827044e-6, 1.9313534e-6
-0.453, 1.4885258e-6, 1.9707829e-6
-0.454, 1.5019658e-6, 2.0013897e-6
-0.455, 1.4759104e-6, 1.9897307e-6
-0.456, 1.5188524e-6, 2.0151595e-6
-0.457, 1.4595350e-6, 1.9686061e-6
-0.458, 1.5144494e-6, 1.9835138e-6
-0.459, 1.5082159e-6, 1.9740974e-6
-0.460, 1.4889217e-6, 1.9684248e-6
-0.461, 1.5084631e-6, 2.0264888e-6
-0.462, 1.4723153e-6, 2.0013567e-6
-0.463, 1.5203696e-6, 2.0181610e-6
-0.464, 1.4902243e-6, 1.9809577e-6
-0.465, 1.4968371e-6, 1.9754002e-6
-0.466, 1.5268174e-6, 1.9628178e-6
-0.467, 1.4848318e-6, 1.9821780e-6
-0.468, 1.5092382e-6, 1.9972836e-6
-0.469, 1.4693139e-6, 2.0287976e-6
-0.470, 1.5096340e-6, 2.0261755e-6
-0.471, 1.5066987e-6, 1.9982731e-6
-0.472, 1.4869262e-6, 1.9715578e-6
-0.473, 1.5268670e-6, 1.9680947e-6
-0.474, 1.4780871e-6, 2.0002353e-6
-0.475, 1.5149770e-6, 2.0129498e-6
-0.476, 1.4841557e-6, 2.0267362e-6
-0.477, 1.5091064e-6, 2.0180948e-6
-0.478, 1.5342382e-6, 2.0285831e-6
-0.479, 1.4834466e-6, 1.9429792e-6
-0.480, 1.5434402e-6, 1.9707334e-6
-0.481, 1.4735027e-6, 2.0051991e-6
-0.482, 1.5105080e-6, 2.0261589e-6
-0.483, 1.5173518e-6, 2.0575080e-6
-0.484, 1.4922691e-6, 2.0095199e-6
-0.485, 1.5432754e-6, 2.0034347e-6
-0.486, 1.4872560e-6, 1.9413137e-6
-0.487, 1.5273451e-6, 1.9899780e-6
-0.488, 1.4942646e-6, 2.0093053e-6
-0.489, 1.5109697e-6, 2.0133621e-6
-0.490, 1.5239151e-6, 2.0928974e-6
-0.491, 1.4885918e-6, 1.9832169e-6
-0.492, 1.5388227e-6, 1.9960303e-6
-0.493, 1.4861347e-6, 1.9544075e-6
-0.494, 1.5299837e-6, 2.0119933e-6
-0.495, 1.5058247e-6, 2.0341899e-6
-0.496, 1.5028728e-6, 2.0126365e-6
-0.497, 1.5394824e-6, 2.0491966e-6
-0.498, 1.4981895e-6, 2.0015216e-6
-0.499, 1.5381302e-6, 2.0254829e-6
-0.500, 1.4942647e-6, 1.9752024e-6
