Dec. 21, 2005   08:05:09
Square Wave Voltammetry
File: d:\ida_biofilms\12_10_18_dphzstar\a_760b\100um_pyo\a_100um_pyo_swvfast_5_4.txt
Data Source:  Experiment
Instrument Model:  CHI760E
Header: 
Note: 

Init E (V) = 0.1
Final E (V) = -0.5
Incr E (V) = 0.001
Amplitude (V) = 0.025
Frequency (Hz) = 300
Quiet Time (sec) = 2
Sensitivity (A/V) = 1e-6
Sens 2 (A/V) = 1e-6

Potential/V, i1/A, i2/A

0.099, 1.5897134e-6, 1.8851790e-6
0.098, 1.5543736e-6, 1.9279892e-6
0.097, 1.5270648e-6, 1.9867459e-6
0.096, 1.5786976e-6, 2.0308919e-6
0.095, 1.5478267e-6, 2.0629004e-6
0.094, 1.5521804e-6, 2.0780390e-6
0.093, 1.5863162e-6, 2.0673695e-6
0.092, 1.5592383e-6, 2.0383952e-6
0.091, 1.5948091e-6, 1.9988831e-6
0.090, 1.5644989e-6, 2.0535501e-6
0.089, 1.5796045e-6, 2.0578377e-6
0.088, 1.5786645e-6, 2.0938537e-6
0.087, 1.5656698e-6, 2.0862676e-6
0.086, 1.5897629e-6, 2.0669572e-6
0.085, 1.5531862e-6, 2.0410339e-6
0.084, 1.5933249e-6, 2.0205191e-6
0.083, 1.5522462e-6, 2.0324419e-6
0.082, 1.5556434e-6, 2.0479104e-6
0.081, 1.5839746e-6, 2.1031215e-6
0.080, 1.5574574e-6, 2.0558093e-6
0.079, 1.5861019e-6, 2.0442658e-6
0.078, 1.5392350e-6, 2.0284017e-6
0.077, 1.5725300e-6, 2.0041766e-6
0.076, 1.5749047e-6, 2.0688537e-6
0.075, 1.5494593e-6, 2.0268847e-6
0.074, 1.5792087e-6, 2.0956347e-6
0.073, 1.5361513e-6, 2.0934415e-6
0.072, 1.5724311e-6, 2.0468385e-6
0.071, 1.5440669e-6, 2.0328378e-6
0.070, 1.5790438e-6, 1.9929134e-6
0.069, 1.5793571e-6, 2.0553148e-6
0.068, 1.5298682e-6, 2.0433095e-6
0.067, 1.5717383e-6, 2.0490481e-6
0.066, 1.5297362e-6, 2.0531215e-6
0.065, 1.5624871e-6, 2.0381312e-6
0.064, 1.5544890e-6, 2.0497243e-6
0.063, 1.5413458e-6, 1.9638896e-6
0.062, 1.5775597e-6, 2.0450079e-6
0.061, 1.5267680e-6, 2.0234543e-6
0.060, 1.5655048e-6, 2.0576892e-6
0.059, 1.5156697e-6, 2.0760272e-6
0.058, 1.5446110e-6, 2.0134939e-6
0.057, 1.5608215e-6, 2.0525772e-6
0.056, 1.5147297e-6, 1.9749220e-6
0.055, 1.5568801e-6, 2.0044076e-6
0.054, 1.4928794e-6, 2.0200573e-6
0.053, 1.5571439e-6, 2.0336952e-6
0.052, 1.5234039e-6, 2.0786986e-6
0.051, 1.5298848e-6, 1.9836621e-6
0.050, 1.5517185e-6, 2.0417592e-6
0.049, 1.5016360e-6, 1.9626036e-6
0.048, 1.5563196e-6, 2.0311063e-6
0.047, 1.4999539e-6, 2.0251859e-6
0.046, 1.5404719e-6, 2.0332334e-6
0.045, 1.5397462e-6, 2.0899452e-6
0.044, 1.5265700e-6, 2.0035666e-6
0.043, 1.5407356e-6, 2.0091734e-6
0.042, 1.4997231e-6, 1.9675176e-6
0.041, 1.5498550e-6, 2.0065186e-6
0.040, 1.5160655e-6, 2.0157863e-6
0.039, 1.5213095e-6, 2.0204202e-6
0.038, 1.5378994e-6, 2.0754169e-6
0.037, 1.4883444e-6, 1.9976628e-6
0.036, 1.5384599e-6, 2.0099981e-6
0.035, 1.4962600e-6, 1.9377517e-6
0.034, 1.5215404e-6, 1.9927979e-6
0.033, 1.5236678e-6, 2.0392197e-6
0.032, 1.5023451e-6, 2.0006642e-6
0.031, 1.5260093e-6, 2.0537150e-6
0.030, 1.4879322e-6, 2.0056939e-6
0.029, 1.5381961e-6, 2.0100638e-6
0.028, 1.4914776e-6, 1.9565348e-6
0.027, 1.5010587e-6, 1.9802321e-6
0.026, 1.5262073e-6, 2.0347507e-6
0.025, 1.4885093e-6, 2.0030552e-6
0.024, 1.5297364e-6, 2.0437217e-6
0.023, 1.4818966e-6, 1.9895824e-6
0.022, 1.5174837e-6, 1.9998065e-6
0.021, 1.5050331e-6, 1.9763402e-6
0.020, 1.4955509e-6, 1.9343547e-6
0.019, 1.5147132e-6, 2.0378179e-6
0.018, 1.4699077e-6, 2.0149123e-6
0.017, 1.5208643e-6, 2.0533853e-6
0.016, 1.4924506e-6, 1.9948593e-6
0.015, 1.5187040e-6, 1.9759609e-6
0.014, 1.5143503e-6, 1.9585962e-6
0.013, 1.4890535e-6, 1.9435895e-6
0.012, 1.5161313e-6, 1.9906709e-6
0.011, 1.4646801e-6, 1.9684412e-6
0.010, 1.5030378e-6, 2.0448761e-6
0.009, 1.5037797e-6, 2.0000539e-6
0.008, 1.4841228e-6, 1.9599154e-6
0.007, 1.5075068e-6, 1.9521976e-6
0.006, 1.4652244e-6, 1.9307595e-6
0.005, 1.5049670e-6, 1.9939855e-6
0.004, 1.4672527e-6, 1.9820459e-6
0.003, 1.5071109e-6, 2.0216735e-6
0.002, 1.5043406e-6, 2.0132798e-6
0.001, 1.4729585e-6, 1.9760928e-6
-0.000, 1.5138228e-6, 1.9386093e-6
-0.001, 1.4692150e-6, 1.9631971e-6
-0.002, 1.4886247e-6, 1.9921713e-6
-0.003, 1.4716393e-6, 1.9811721e-6
-0.004, 1.4701880e-6, 2.0008290e-6
-0.005, 1.5059401e-6, 1.9999552e-6
-0.006, 1.4671373e-6, 1.9390709e-6
-0.007, 1.4958148e-6, 1.9448428e-6
-0.008, 1.4527243e-6, 1.9198592e-6
-0.009, 1.4925826e-6, 1.9679298e-6
-0.010, 1.4891855e-6, 1.9938370e-6
-0.011, 1.4689842e-6, 1.9738502e-6
-0.012, 1.4950562e-6, 1.9774286e-6
-0.013, 1.4470020e-6, 1.9522472e-6
-0.014, 1.5023451e-6, 1.9685731e-6
-0.015, 1.4514710e-6, 1.9225142e-6
-0.016, 1.4705508e-6, 1.9410500e-6
-0.017, 1.4746900e-6, 1.9730751e-6
-0.018, 1.4483871e-6, 2.0048199e-6
-0.019, 1.4842052e-6, 1.9755817e-6
-0.020, 1.4403562e-6, 1.9524450e-6
-0.021, 1.4816326e-6, 1.9436061e-6
-0.022, 1.4816161e-6, 1.9405882e-6
-0.023, 1.4810390e-6, 1.9432596e-6
-0.024, 1.4751517e-6, 1.9524123e-6
-0.025, 1.4412301e-6, 1.9771815e-6
-0.026, 1.4814348e-6, 1.9845857e-6
-0.027, 1.4646967e-6, 1.9606243e-6
-0.028, 1.4695283e-6, 1.9416107e-6
-0.029, 1.4769987e-6, 1.9378836e-6
-0.030, 1.4384432e-6, 1.9618942e-6
-0.031, 1.4794723e-6, 1.9571614e-6
-0.032, 1.4369921e-6, 1.9794900e-6
-0.033, 1.4656696e-6, 1.9683587e-6
-0.034, 1.4703530e-6, 1.9837942e-6
-0.035, 1.4503991e-6, 1.9293909e-6
-0.036, 1.4851616e-6, 1.9073757e-6
-0.037, 1.4438851e-6, 1.9497900e-6
-0.038, 1.4721999e-6, 1.9513566e-6
-0.039, 1.4483377e-6, 1.9665777e-6
-0.040, 1.4508938e-6, 1.9783192e-6
-0.041, 1.4872560e-6, 1.9698759e-6
-0.042, 1.4415435e-6, 1.9102285e-6
-0.043, 1.4801485e-6, 1.9055947e-6
-0.044, 1.4308409e-6, 1.9398130e-6
-0.045, 1.4627178e-6, 1.9517358e-6
-0.046, 1.4701056e-6, 1.9823924e-6
-0.047, 1.4423021e-6, 1.9499550e-6
-0.048, 1.4757619e-6, 1.9496581e-6
-0.049, 1.4309728e-6, 1.9488994e-6
-0.050, 1.4759433e-6, 1.9059246e-6
-0.051, 1.4490963e-6, 1.9271811e-6
-0.052, 1.4641689e-6, 1.9337444e-6
-0.053, 1.4785489e-6, 1.9947934e-6
-0.054, 1.4456991e-6, 1.9758127e-6
-0.055, 1.4744757e-6, 1.9134773e-6
-0.056, 1.4257453e-6, 1.9332663e-6
-0.057, 1.4609861e-6, 1.9115644e-6
-0.058, 1.4704849e-6, 1.9325078e-6
-0.059, 1.4432421e-6, 1.9173362e-6
-0.060, 1.4814511e-6, 1.9697768e-6
-0.061, 1.4260586e-6, 1.9555948e-6
-0.062, 1.4664447e-6, 1.9266533e-6
-0.063, 1.4371569e-6, 1.9182926e-6
-0.064, 1.4595679e-6, 1.8782034e-6
-0.065, 1.4627342e-6, 1.9167423e-6
-0.066, 1.4220019e-6, 1.9300012e-6
-0.067, 1.4667085e-6, 1.9375209e-6
-0.068, 1.4236346e-6, 1.9695460e-6
-0.069, 1.4579684e-6, 1.9318149e-6
-0.070, 1.4453035e-6, 1.9371582e-6
-0.071, 1.4421207e-6, 1.8595193e-6
-0.072, 1.4656200e-6, 1.9173526e-6
-0.073, 1.4300165e-6, 1.9218546e-6
-0.074, 1.4626683e-6, 1.9511917e-6
-0.075, 1.4181265e-6, 1.9830520e-6
-0.076, 1.4603760e-6, 1.9252022e-6
-0.077, 1.4685720e-6, 1.9573429e-6
-0.078, 1.4377013e-6, 1.8635596e-6
-0.079, 1.4637731e-6, 1.8747076e-6
-0.080, 1.4144987e-6, 1.9310730e-6
-0.081, 1.4581991e-6, 1.9506310e-6
-0.082, 1.4338423e-6, 1.9917920e-6
-0.083, 1.4389544e-6, 1.8811058e-6
-0.084, 1.4639875e-6, 1.9407530e-6
-0.085, 1.4175494e-6, 1.8850142e-6
-0.086, 1.4700231e-6, 1.8834312e-6
-0.087, 1.4194623e-6, 1.9186223e-6
-0.088, 1.4453858e-6, 1.9360696e-6
-0.089, 1.4503992e-6, 2.0008952e-6
-0.090, 1.4342050e-6, 1.9242457e-6
-0.091, 1.4646967e-6, 1.9213928e-6
-0.092, 1.4190335e-6, 1.8760761e-6
-0.093, 1.4538126e-6, 1.8863169e-6
-0.094, 1.4333147e-6, 1.9357069e-6
-0.095, 1.4361676e-6, 1.9125373e-6
-0.096, 1.4565501e-6, 1.9840413e-6
-0.097, 1.4240632e-6, 1.9063533e-6
-0.098, 1.4737831e-6, 1.9231409e-6
-0.099, 1.4182419e-6, 1.9029399e-6
-0.100, 1.4558741e-6, 1.8783354e-6
-0.101, 1.4540600e-6, 1.9638733e-6
-0.102, 1.4282189e-6, 1.9143349e-6
-0.103, 1.4637235e-6, 1.9709314e-6
-0.104, 1.4203857e-6, 1.9341403e-6
-0.105, 1.4755805e-6, 1.9273791e-6
-0.106, 1.4331333e-6, 1.8782364e-6
-0.107, 1.4380309e-6, 1.8566005e-6
-0.108, 1.4663622e-6, 1.9539623e-6
-0.109, 1.4150593e-6, 1.8776922e-6
-0.110, 1.4626846e-6, 1.9635600e-6
-0.111, 1.4093699e-6, 1.9052484e-6
-0.112, 1.4544064e-6, 1.9232398e-6
-0.113, 1.4597658e-6, 1.9040940e-6
-0.114, 1.4369425e-6, 1.8404231e-6
-0.115, 1.4604915e-6, 1.9532367e-6
-0.116, 1.4141688e-6, 1.9259608e-6
-0.117, 1.4630475e-6, 1.9817821e-6
-0.118, 1.4326549e-6, 1.9261422e-6
-0.119, 1.4649440e-6, 1.9171382e-6
-0.120, 1.4639876e-6, 1.9556774e-6
-0.121, 1.4283014e-6, 1.8534014e-6
-0.122, 1.4654715e-6, 1.9155386e-6
-0.123, 1.4173845e-6, 1.9003506e-6
-0.124, 1.4599638e-6, 1.9535664e-6
-0.125, 1.4575231e-6, 1.9382794e-6
-0.126, 1.4334465e-6, 1.9181441e-6
-0.127, 1.4803463e-6, 1.8946613e-6
-0.128, 1.4159662e-6, 1.8637576e-6
-0.129, 1.4599802e-6, 1.9358390e-6
-0.130, 1.4245085e-6, 1.9092226e-6
-0.131, 1.4505146e-6, 1.9265544e-6
-0.132, 1.4544887e-6, 1.9738832e-6
-0.133, 1.4251846e-6, 1.9075735e-6
-0.134, 1.4672527e-6, 1.9199088e-6
-0.135, 1.4228100e-6, 1.8613168e-6
-0.136, 1.4760587e-6, 1.9381805e-6
-0.137, 1.4300329e-6, 1.9333982e-6
-0.138, 1.4379320e-6, 1.9032695e-6
-0.139, 1.4670877e-6, 1.9447602e-6
-0.140, 1.4314676e-6, 1.9170229e-6
-0.141, 1.4671866e-6, 1.9005980e-6
-0.142, 1.4270646e-6, 1.8639225e-6
-0.143, 1.4640041e-6, 1.9228771e-6
-0.144, 1.4608706e-6, 1.9345196e-6
-0.145, 1.4379485e-6, 1.9378506e-6
-0.146, 1.4583970e-6, 1.9415447e-6
-0.147, 1.4232057e-6, 1.9045228e-6
-0.148, 1.4685390e-6, 1.9393183e-6
-0.149, 1.4371075e-6, 1.8899448e-6
-0.150, 1.4456497e-6, 1.9094371e-6
-0.151, 1.4551320e-6, 1.9477782e-6
-0.152, 1.4180771e-6, 1.9553804e-6
-0.153, 1.4720021e-6, 1.9356576e-6
-0.154, 1.4374867e-6, 1.9011256e-6
-0.155, 1.4561874e-6, 1.8897305e-6
-0.156, 1.4579683e-6, 1.9045228e-6
-0.157, 1.4465568e-6, 1.9106410e-6
-0.158, 1.4601121e-6, 1.9228441e-6
-0.159, 1.4305606e-6, 1.9282695e-6
-0.160, 1.4739974e-6, 1.9551330e-6
-0.161, 1.4405375e-6, 1.9120096e-6
-0.162, 1.4506300e-6, 1.9098329e-6
-0.163, 1.4741622e-6, 1.9111851e-6
-0.164, 1.4424340e-6, 1.9156378e-6
-0.165, 1.4675165e-6, 1.9314853e-6
-0.166, 1.4320942e-6, 1.9415775e-6
-0.167, 1.4689841e-6, 1.9347010e-6
-0.168, 1.4750198e-6, 1.9459806e-6
-0.169, 1.4645152e-6, 1.8800670e-6
-0.170, 1.4740799e-6, 1.9067820e-6
-0.171, 1.4295217e-6, 1.9210465e-6
-0.172, 1.4878497e-6, 1.9310730e-6
-0.173, 1.4421867e-6, 1.9739821e-6
-0.174, 1.4676484e-6, 1.9288468e-6
-0.175, 1.4938689e-6, 1.9490481e-6
-0.176, 1.4512896e-6, 1.8666764e-6
-0.177, 1.4785653e-6, 1.8811553e-6
-0.178, 1.4373384e-6, 1.8979264e-6
-0.179, 1.4655047e-6, 1.9300339e-6
-0.180, 1.4693635e-6, 1.9697272e-6
-0.181, 1.4533839e-6, 1.8855584e-6
-0.182, 1.4923187e-6, 1.9394997e-6
-0.183, 1.4414775e-6, 1.8871085e-6
-0.184, 1.4910324e-6, 1.8865477e-6
-0.185, 1.4486345e-6, 1.9227616e-6
-0.186, 1.4773946e-6, 1.9348658e-6
-0.187, 1.4889051e-6, 1.9890711e-6
-0.188, 1.4488819e-6, 1.9524120e-6
-0.189, 1.4950233e-6, 1.9205850e-6
-0.190, 1.4460290e-6, 1.8752021e-6
-0.191, 1.4831663e-6, 1.8942160e-6
-0.192, 1.4731233e-6, 1.9446120e-6
-0.193, 1.4554782e-6, 1.9285994e-6
-0.194, 1.4983873e-6, 1.9929134e-6
-0.195, 1.4499044e-6, 1.9123231e-6
-0.196, 1.4984532e-6, 1.9370261e-6
-0.197, 1.4540105e-6, 1.8970359e-6
-0.198, 1.4832651e-6, 1.8748888e-6
-0.199, 1.4982718e-6, 1.9523461e-6
-0.200, 1.4596339e-6, 1.9421382e-6
-0.201, 1.5015370e-6, 1.9715085e-6
-0.202, 1.4433740e-6, 1.9457993e-6
-0.203, 1.5017679e-6, 1.9382960e-6
-0.204, 1.4624703e-6, 1.8913631e-6
-0.205, 1.4702870e-6, 1.8619270e-6
-0.206, 1.4839413e-6, 1.9698593e-6
-0.207, 1.4408838e-6, 1.9586455e-6
-0.208, 1.4904552e-6, 1.9912975e-6
-0.209, 1.4440500e-6, 1.9084971e-6
-0.210, 1.4950397e-6, 1.9251363e-6
-0.211, 1.4838754e-6, 1.9212939e-6
-0.212, 1.4748055e-6, 1.9113336e-6
-0.213, 1.4842547e-6, 1.9415775e-6
-0.214, 1.4495085e-6, 1.9648132e-6
-0.215, 1.4963754e-6, 1.9778904e-6
-0.216, 1.4681432e-6, 1.9328045e-6
-0.217, 1.4837599e-6, 1.9261752e-6
-0.218, 1.4963919e-6, 1.9139059e-6
-0.219, 1.4469360e-6, 1.9184574e-6
-0.220, 1.5040272e-6, 1.9514885e-6
-0.221, 1.4627836e-6, 1.9516865e-6
-0.222, 1.4898451e-6, 1.9819472e-6
-0.223, 1.4957652e-6, 1.9625375e-6
-0.224, 1.4821273e-6, 1.9265544e-6
-0.225, 1.4978101e-6, 1.8997239e-6
-0.226, 1.4605409e-6, 1.9417425e-6
-0.227, 1.4900265e-6, 1.9572110e-6
-0.228, 1.4765369e-6, 1.9720196e-6
-0.229, 1.4796537e-6, 1.9745428e-6
-0.230, 1.5044066e-6, 1.9647637e-6
-0.231, 1.4818800e-6, 1.9273789e-6
-0.232, 1.5098484e-6, 1.9074582e-6
-0.233, 1.4644163e-6, 1.9390711e-6
-0.234, 1.4943965e-6, 1.9556278e-6
-0.235, 1.4938360e-6, 1.9933423e-6
-0.236, 1.4908510e-6, 1.9480422e-6
-0.237, 1.5141029e-6, 1.9707170e-6
-0.238, 1.4685224e-6, 1.9525769e-6
-0.239, 1.5188359e-6, 1.9090082e-6
-0.240, 1.4870087e-6, 1.9496747e-6
-0.241, 1.5047198e-6, 1.9439524e-6
-0.242, 1.5172362e-6, 2.0317163e-6
-0.243, 1.4762236e-6, 1.9459806e-6
-0.244, 1.5206333e-6, 1.9333818e-6
-0.245, 1.4698253e-6, 1.9322438e-6
-0.246, 1.4917085e-6, 1.9216898e-6
-0.247, 1.5032191e-6, 1.9670724e-6
-0.248, 1.4756630e-6, 1.9262741e-6
-0.249, 1.5244427e-6, 1.9904564e-6
-0.250, 1.4676979e-6, 1.9699914e-6
-0.251, 1.5165931e-6, 1.9621580e-6
-0.252, 1.4955015e-6, 1.9305783e-6
-0.253, 1.5227772e-6, 1.9021152e-6
-0.254, 1.5199573e-6, 1.9941997e-6
-0.255, 1.4658015e-6, 1.9469537e-6
-0.256, 1.5177475e-6, 1.9783026e-6
-0.257, 1.4739644e-6, 1.9613335e-6
-0.258, 1.5190338e-6, 1.9635104e-6
-0.259, 1.4959137e-6, 1.9645493e-6
-0.260, 1.4927145e-6, 1.8786486e-6
-0.261, 1.5283181e-6, 1.9718218e-6
-0.262, 1.4785653e-6, 1.9235201e-6
-0.263, 1.5081828e-6, 1.9903077e-6
-0.264, 1.4706333e-6, 1.9636752e-6
-0.265, 1.5171538e-6, 1.9480256e-6
-0.266, 1.5236183e-6, 1.9423528e-6
-0.267, 1.4943801e-6, 1.9134113e-6
-0.268, 1.5141195e-6, 1.9511424e-6
-0.269, 1.4595844e-6, 1.9346514e-6
-0.270, 1.5156696e-6, 2.0172374e-6
-0.271, 1.4807752e-6, 1.9809577e-6
-0.272, 1.4942316e-6, 1.9151594e-6
-0.273, 1.5021142e-6, 1.9354925e-6
-0.274, 1.4637731e-6, 1.9010103e-6
-0.275, 1.5008114e-6, 1.9722011e-6
-0.276, 1.4627672e-6, 1.9626693e-6
-0.277, 1.5061876e-6, 1.9946945e-6
-0.278, 1.5077046e-6, 1.9988172e-6
-0.279, 1.4852276e-6, 1.9271811e-6
-0.280, 1.5049012e-6, 1.9050669e-6
-0.281, 1.4678133e-6, 1.9222009e-6
-0.282, 1.5065173e-6, 1.9567985e-6
-0.283, 1.4889215e-6, 1.9656707e-6
-0.284, 1.4865140e-6, 1.9834313e-6
-0.285, 1.5050000e-6, 1.9817987e-6
-0.286, 1.4753991e-6, 1.9404067e-6
-0.287, 1.5056432e-6, 1.9027418e-6
-0.288, 1.4667085e-6, 1.9006145e-6
-0.289, 1.4893337e-6, 1.9419240e-6
-0.290, 1.4987831e-6, 1.9946945e-6
-0.291, 1.4789612e-6, 1.9605916e-6
-0.292, 1.5023121e-6, 1.9367458e-6
-0.293, 1.4673681e-6, 1.9387742e-6
-0.294, 1.5055609e-6, 1.8863993e-6
-0.295, 1.4654387e-6, 1.9151098e-6
-0.296, 1.4632619e-6, 1.9301328e-6
-0.297, 1.4974144e-6, 1.9926827e-6
-0.298, 1.4681432e-6, 1.9244108e-6
-0.299, 1.4986181e-6, 1.9272140e-6
-0.300, 1.4449076e-6, 1.9181937e-6
-0.301, 1.4786808e-6, 1.8948097e-6
-0.302, 1.4867283e-6, 1.9536160e-6
-0.303, 1.4656531e-6, 1.8946944e-6
-0.304, 1.4861675e-6, 1.9695790e-6
-0.305, 1.4499703e-6, 1.9609047e-6
-0.306, 1.4903397e-6, 1.9322108e-6
-0.307, 1.4637401e-6, 1.9166600e-6
-0.308, 1.4854420e-6, 1.8672536e-6
-0.309, 1.4954024e-6, 1.9594702e-6
-0.310, 1.4533839e-6, 1.9090248e-6
-0.311, 1.4865468e-6, 1.9404397e-6
-0.312, 1.4419888e-6, 1.9302154e-6
-0.313, 1.4757125e-6, 1.9363499e-6
-0.314, 1.4823254e-6, 1.9325407e-6
-0.315, 1.4596833e-6, 1.8451560e-6
-0.316, 1.5065173e-6, 1.9317822e-6
-0.317, 1.4351781e-6, 1.9112840e-6
-0.318, 1.4769163e-6, 1.9461786e-6
-0.319, 1.4467050e-6, 1.9245097e-6
-0.320, 1.4673681e-6, 1.8996579e-6
-0.321, 1.4863490e-6, 1.9582169e-6
-0.322, 1.4410157e-6, 1.8514388e-6
-0.323, 1.4922198e-6, 1.9110203e-6
-0.324, 1.4299339e-6, 1.9200077e-6
-0.325, 1.4799505e-6, 1.9493448e-6
-0.326, 1.4414280e-6, 1.9513732e-6
-0.327, 1.4532520e-6, 1.8929298e-6
-0.328, 1.4861677e-6, 1.9063368e-6
-0.329, 1.4467876e-6, 1.8533518e-6
-0.330, 1.4769987e-6, 1.9437875e-6
-0.331, 1.4319623e-6, 1.8991798e-6
-0.332, 1.4763884e-6, 1.9269503e-6
-0.333, 1.4673847e-6, 1.9597669e-6
-0.334, 1.4498055e-6, 1.8914127e-6
-0.335, 1.4740798e-6, 1.9067161e-6
-0.336, 1.4222987e-6, 1.8702879e-6
-0.337, 1.4750528e-6, 1.9246249e-6
-0.338, 1.4382454e-6, 1.9245097e-6
-0.339, 1.4515864e-6, 1.8936058e-6
-0.340, 1.4670713e-6, 1.9502022e-6
-0.341, 1.4267678e-6, 1.9062874e-6
-0.342, 1.4724144e-6, 1.8827384e-6
-0.343, 1.4346998e-6, 1.8547701e-6
-0.344, 1.4486675e-6, 1.9206179e-6
-0.345, 1.4550990e-6, 1.9372076e-6
-0.346, 1.4408673e-6, 1.9315346e-6
-0.347, 1.4610687e-6, 1.9343217e-6
-0.348, 1.4298021e-6, 1.8981244e-6
-0.349, 1.4663622e-6, 1.8908354e-6
-0.350, 1.4473977e-6, 1.8710300e-6
-0.351, 1.4442645e-6, 1.9016038e-6
-0.352, 1.4640699e-6, 1.9434740e-6
-0.353, 1.4383113e-6, 1.9470031e-6
-0.354, 1.4726122e-6, 1.9046381e-6
-0.355, 1.4307585e-6, 1.9060893e-6
-0.356, 1.4625198e-6, 1.8903571e-6
-0.357, 1.4612830e-6, 1.8953044e-6
-0.358, 1.4310389e-6, 1.8987676e-6
-0.359, 1.4660488e-6, 1.9606246e-6
-0.360, 1.4189181e-6, 1.9552981e-6
-0.361, 1.4809400e-6, 1.9470360e-6
-0.362, 1.4407684e-6, 1.9037313e-6
-0.363, 1.4432916e-6, 1.8492291e-6
-0.364, 1.4719031e-6, 1.9000373e-6
-0.365, 1.4329353e-6, 1.8916928e-6
-0.366, 1.4641359e-6, 1.9419899e-6
-0.367, 1.4169557e-6, 1.9478277e-6
-0.368, 1.4520811e-6, 1.9138402e-6
-0.369, 1.4519657e-6, 1.9256970e-6
-0.370, 1.4372395e-6, 1.8515049e-6
-0.371, 1.4697428e-6, 1.9322440e-6
-0.372, 1.4221339e-6, 1.9198096e-6
-0.373, 1.4732223e-6, 1.9410829e-6
-0.374, 1.4446603e-6, 1.9358224e-6
-0.375, 1.4628661e-6, 1.9045393e-6
-0.376, 1.4740469e-6, 1.9409508e-6
-0.377, 1.4278561e-6, 1.8630649e-6
-0.378, 1.4726286e-6, 1.8875207e-6
-0.379, 1.4220514e-6, 1.9034674e-6
-0.380, 1.4595020e-6, 1.9606246e-6
-0.381, 1.4573417e-6, 1.9789786e-6
-0.382, 1.4414115e-6, 1.8933915e-6
-0.383, 1.4870416e-6, 1.9258125e-6
-0.384, 1.4305276e-6, 1.8637081e-6
-0.385, 1.4762072e-6, 1.9245426e-6
-0.386, 1.4283509e-6, 1.9083486e-6
-0.387, 1.4579518e-6, 1.9289787e-6
-0.388, 1.4597823e-6, 1.9638403e-6
-0.389, 1.4289611e-6, 1.8994272e-6
-0.390, 1.4796373e-6, 1.9110530e-6
-0.391, 1.4235355e-6, 1.8661488e-6
-0.392, 1.4788621e-6, 1.9237345e-6
-0.393, 1.4345844e-6, 1.9332826e-6
-0.394, 1.4486840e-6, 1.9161819e-6
-0.395, 1.4716062e-6, 1.9722506e-6
-0.396, 1.4302639e-6, 1.9181771e-6
-0.397, 1.4755476e-6, 1.9234376e-6
-0.398, 1.4263391e-6, 1.8715411e-6
-0.399, 1.4789116e-6, 1.9312874e-6
-0.400, 1.4639545e-6, 1.9554795e-6
-0.401, 1.4545052e-6, 1.9430784e-6
-0.402, 1.4691821e-6, 1.9378176e-6
-0.403, 1.4287631e-6, 1.9169897e-6
-0.404, 1.4834300e-6, 1.9445788e-6
-0.405, 1.4551154e-6, 1.8963763e-6
-0.406, 1.4640204e-6, 1.9228771e-6
-0.407, 1.4636082e-6, 1.9576562e-6
-0.408, 1.4282849e-6, 1.9515546e-6
-0.409, 1.4676154e-6, 1.9449253e-6
-0.410, 1.4446108e-6, 1.9082004e-6
-0.411, 1.4707157e-6, 1.9190184e-6
-0.412, 1.4678133e-6, 1.9099316e-6
-0.413, 1.4596339e-6, 1.9209147e-6
-0.414, 1.4763227e-6, 1.9403078e-6
-0.415, 1.4425659e-6, 1.9704530e-6
-0.416, 1.4742941e-6, 1.9668910e-6
-0.417, 1.4525758e-6, 1.9258782e-6
-0.418, 1.4570119e-6, 1.9302320e-6
-0.419, 1.4833643e-6, 1.9251693e-6
-0.420, 1.4528891e-6, 1.9314521e-6
-0.421, 1.4869097e-6, 1.9387412e-6
-0.422, 1.4320118e-6, 1.9531376e-6
-0.423, 1.4762071e-6, 1.9658685e-6
-0.424, 1.4793734e-6, 1.9628674e-6
-0.425, 1.4632619e-6, 1.9193644e-6
-0.426, 1.4904551e-6, 1.9206343e-6
-0.427, 1.4474142e-6, 1.9465249e-6
-0.428, 1.4824407e-6, 1.9382301e-6
-0.429, 1.4535323e-6, 1.9809247e-6
-0.430, 1.4770648e-6, 1.9377023e-6
-0.431, 1.4968701e-6, 1.9805784e-6
-0.432, 1.4607388e-6, 1.9242786e-6
-0.433, 1.4910984e-6, 1.8902747e-6
-0.434, 1.4394162e-6, 1.9301001e-6
-0.435, 1.4718701e-6, 1.9544900e-6
-0.436, 1.4780212e-6, 1.9748065e-6
-0.437, 1.4707981e-6, 1.9229760e-6
-0.438, 1.5051155e-6, 1.9612346e-6
-0.439, 1.4511081e-6, 1.9287149e-6
-0.440, 1.4945284e-6, 1.8988665e-6
-0.441, 1.4594029e-6, 1.9445624e-6
-0.442, 1.4840897e-6, 1.9441336e-6
-0.443, 1.5022626e-6, 2.0303310e-6
-0.444, 1.4547857e-6, 1.9636423e-6
-0.445, 1.5037963e-6, 1.9255485e-6
-0.446, 1.4572759e-6, 1.9394174e-6
-0.447, 1.4995912e-6, 1.9159509e-6
-0.448, 1.4830508e-6, 1.9678639e-6
-0.449, 1.4687369e-6, 1.9297372e-6
-0.450, 1.5133610e-6, 1.9902914e-6
-0.451, 1.4591392e-6, 1.9549518e-6
-0.452, 1.5026584e-6, 1.9604925e-6
-0.453, 1.4633938e-6, 1.9535335e-6
-0.454, 1.4952707e-6, 1.8970195e-6
-0.455, 1.5090898e-6, 1.9991799e-6
-0.456, 1.4641854e-6, 1.9426166e-6
-0.457, 1.5056103e-6, 1.9917591e-6
-0.458, 1.4564182e-6, 1.9732729e-6
-0.459, 1.5130806e-6, 1.9627353e-6
-0.460, 1.4739479e-6, 1.9702716e-6
-0.461, 1.4765865e-6, 1.8790608e-6
-0.462, 1.5004650e-6, 2.0025770e-6
-0.463, 1.4576055e-6, 1.9522472e-6
-0.464, 1.5140865e-6, 1.9902420e-6
-0.465, 1.4586444e-6, 1.9612678e-6
-0.466, 1.4923517e-6, 1.9622901e-6
-0.467, 1.5047362e-6, 1.9948593e-6
-0.468, 1.4876683e-6, 1.9038303e-6
-0.469, 1.5080675e-6, 1.9731906e-6
-0.470, 1.4588093e-6, 1.9642030e-6
-0.471, 1.5058577e-6, 2.0289458e-6
-0.472, 1.4812204e-6, 1.9932927e-6
-0.473, 1.4831168e-6, 1.9556937e-6
-0.474, 1.5118437e-6, 2.0076234e-6
-0.475, 1.4704849e-6, 1.9348658e-6
-0.476, 1.5183082e-6, 1.9929466e-6
-0.477, 1.4730574e-6, 1.9627353e-6
-0.478, 1.5008940e-6, 2.0027915e-6
-0.479, 1.5022792e-6, 2.0407697e-6
-0.480, 1.4861182e-6, 1.9552815e-6
-0.481, 1.5204191e-6, 1.9929298e-6
-0.482, 1.4780047e-6, 1.9239160e-6
-0.483, 1.5300002e-6, 1.9892032e-6
-0.484, 1.4908840e-6, 1.9863996e-6
-0.485, 1.4873879e-6, 2.0270495e-6
-0.486, 1.5207322e-6, 2.0387415e-6
-0.487, 1.4810719e-6, 1.9524120e-6
-0.488, 1.5295714e-6, 1.9889558e-6
-0.489, 1.4637897e-6, 1.9318645e-6
-0.490, 1.5202871e-6, 2.0015216e-6
-0.491, 1.5085457e-6, 2.0069635e-6
-0.492, 1.5031530e-6, 1.9714589e-6
-0.493, 1.5249869e-6, 2.0451234e-6
-0.494, 1.4862170e-6, 1.9750044e-6
-0.495, 1.5288293e-6, 2.0207995e-6
-0.496, 1.4963755e-6, 1.9390875e-6
-0.497, 1.5307587e-6, 1.9998067e-6
-0.498, 1.5311545e-6, 2.0374716e-6
-0.499, 1.4940832e-6, 2.0104433e-6
-0.500, 1.5308576e-6, 2.0181608e-6
