Dec. 21, 2005   09:12:00
Square Wave Voltammetry
File: d:\ida_biofilms\12_10_18_dphzstar\a_760b\200um_pyo\a_200um_pyo_swvfast_2_2.txt
Data Source:  Experiment
Instrument Model:  CHI760E
Header: 
Note: 

Init E (V) = 0.1
Final E (V) = -0.5
Incr E (V) = 0.001
Amplitude (V) = 0.025
Frequency (Hz) = 300
Quiet Time (sec) = 2
Sensitivity (A/V) = 1e-6
Sens 2 (A/V) = 1e-6

Potential/V, i1/A, i2/A

0.099, 1.6007293e-6, 1.8812543e-6
0.098, 1.5485358e-6, 1.9800507e-6
0.097, 1.5406862e-6, 1.9405882e-6
0.096, 1.5729917e-6, 2.0129498e-6
0.095, 1.5266691e-6, 2.0369109e-6
0.094, 1.5749706e-6, 2.0711952e-6
0.093, 1.5595682e-6, 2.0727618e-6
0.092, 1.5593373e-6, 2.0270822e-6
0.091, 1.5915109e-6, 2.0551663e-6
0.090, 1.5378498e-6, 2.0005652e-6
0.089, 1.5878004e-6, 2.0522143e-6
0.088, 1.5396802e-6, 2.0550674e-6
0.087, 1.5733544e-6, 2.0918912e-6
0.086, 1.5904390e-6, 2.0741636e-6
0.085, 1.5616624e-6, 2.0241637e-6
0.084, 1.5827543e-6, 2.0200243e-6
0.083, 1.5317318e-6, 2.0227949e-6
0.082, 1.5768341e-6, 2.0587281e-6
0.081, 1.5595188e-6, 2.0735533e-6
0.080, 1.5440173e-6, 2.0592395e-6
0.079, 1.5792747e-6, 2.0705356e-6
0.078, 1.5452376e-6, 2.0230586e-6
0.077, 1.5911976e-6, 1.9967888e-6
0.076, 1.5243933e-6, 2.0467560e-6
0.075, 1.5532191e-6, 2.0538305e-6
0.074, 1.5744099e-6, 2.0858226e-6
0.073, 1.5408511e-6, 2.0295397e-6
0.072, 1.5785160e-6, 2.0555785e-6
0.071, 1.5356236e-6, 2.0566667e-6
0.070, 1.5729258e-6, 1.9983390e-6
0.069, 1.5391361e-6, 2.0410007e-6
0.068, 1.5525266e-6, 2.0337611e-6
0.067, 1.5782027e-6, 2.1175345e-6
0.066, 1.5298187e-6, 2.0371583e-6
0.065, 1.5670551e-6, 2.0292923e-6
0.064, 1.5240305e-6, 1.9852782e-6
0.063, 1.5438029e-6, 2.0358557e-6
0.062, 1.5434237e-6, 2.0494770e-6
0.061, 1.5382785e-6, 2.0246416e-6
0.060, 1.5737996e-6, 2.0796551e-6
0.059, 1.5074078e-6, 2.0172208e-6
0.058, 1.5652740e-6, 2.0220361e-6
0.057, 1.5140371e-6, 1.9703045e-6
0.056, 1.5384269e-6, 2.0204532e-6
0.055, 1.5456828e-6, 2.0608556e-6
0.054, 1.5028068e-6, 2.0479101e-6
0.053, 1.5490305e-6, 2.0073924e-6
0.052, 1.5000198e-6, 2.0232897e-6
0.051, 1.5596672e-6, 1.9975805e-6
0.050, 1.5306763e-6, 1.9865151e-6
0.049, 1.5158181e-6, 2.0043253e-6
0.048, 1.5565998e-6, 2.0460634e-6
0.047, 1.5135258e-6, 2.0396978e-6
0.046, 1.5530048e-6, 2.0331181e-6
0.045, 1.5109368e-6, 2.0260763e-6
0.044, 1.5356566e-6, 1.9471186e-6
0.043, 1.5421869e-6, 2.0301827e-6
0.042, 1.5011577e-6, 1.9988665e-6
0.041, 1.5302805e-6, 2.0262742e-6
0.040, 1.4871736e-6, 2.0243119e-6
0.039, 1.5434896e-6, 2.0104267e-6
0.038, 1.5109698e-6, 2.0143350e-6
0.037, 1.5071604e-6, 1.9282861e-6
0.036, 1.5315173e-6, 2.0339426e-6
0.035, 1.4731729e-6, 2.0033192e-6
0.034, 1.5241790e-6, 2.0539296e-6
0.033, 1.4876023e-6, 2.0107566e-6
0.032, 1.5231400e-6, 1.9946119e-6
0.031, 1.5245087e-6, 1.9957993e-6
0.030, 1.5083808e-6, 1.9620923e-6
0.029, 1.5269989e-6, 2.0024452e-6
0.028, 1.4829518e-6, 2.0274781e-6
0.027, 1.5202046e-6, 2.0305124e-6
0.026, 1.5063854e-6, 1.9953211e-6
0.025, 1.5015864e-6, 1.9853937e-6
0.024, 1.5283676e-6, 1.9677320e-6
0.023, 1.4749539e-6, 2.0083819e-6
0.022, 1.5251519e-6, 1.9829201e-6
0.021, 1.4828695e-6, 2.0195462e-6
0.020, 1.5109039e-6, 2.0004497e-6
0.019, 1.5166756e-6, 2.0270825e-6
0.018, 1.4852606e-6, 1.9481245e-6
0.017, 1.5273616e-6, 1.9555123e-6
0.016, 1.4696109e-6, 1.9986358e-6
0.015, 1.5103267e-6, 2.0136918e-6
0.014, 1.4862995e-6, 2.0154730e-6
0.013, 1.4746406e-6, 1.9655552e-6
0.012, 1.5202706e-6, 2.0153245e-6
0.011, 1.4699901e-6, 1.9119932e-6
0.010, 1.5330839e-6, 1.9865645e-6
0.009, 1.4539446e-6, 1.9741799e-6
0.008, 1.4952045e-6, 2.0048199e-6
0.007, 1.4985192e-6, 2.0171219e-6
0.006, 1.4829354e-6, 1.9608390e-6
0.005, 1.5109367e-6, 1.9770494e-6
0.004, 1.4727935e-6, 1.9759609e-6
0.003, 1.5045053e-6, 1.9816832e-6
0.002, 1.4779553e-6, 1.9829199e-6
0.001, 1.5047362e-6, 1.9990316e-6
-0.000, 1.5102112e-6, 1.9935071e-6
-0.001, 1.4646637e-6, 1.9615150e-6
-0.002, 1.5054123e-6, 1.9092722e-6
-0.003, 1.4652737e-6, 1.9787478e-6
-0.004, 1.4792085e-6, 1.9987679e-6
-0.005, 1.4927145e-6, 1.9919898e-6
-0.006, 1.4714084e-6, 1.9684412e-6
-0.007, 1.5096670e-6, 1.9694141e-6
-0.008, 1.4594029e-6, 1.9366964e-6
-0.009, 1.5037799e-6, 1.9166437e-6
-0.010, 1.4607717e-6, 1.9554300e-6
-0.011, 1.4832322e-6, 1.9779563e-6
-0.012, 1.5030212e-6, 2.0352948e-6
-0.013, 1.4476946e-6, 1.9472668e-6
-0.014, 1.5035324e-6, 1.9301988e-6
-0.015, 1.4447921e-6, 1.9172537e-6
-0.016, 1.4924672e-6, 1.9852616e-6
-0.017, 1.4760093e-6, 1.9763074e-6
-0.018, 1.4684565e-6, 1.9719866e-6
-0.019, 1.5055278e-6, 1.9970032e-6
-0.020, 1.4570943e-6, 1.9485697e-6
-0.021, 1.4946108e-6, 1.9397801e-6
-0.022, 1.4514544e-6, 1.9150934e-6
-0.023, 1.4743107e-6, 1.9602123e-6
-0.024, 1.4820779e-6, 2.0181114e-6
-0.025, 1.4520976e-6, 1.9962281e-6
-0.026, 1.4931268e-6, 1.9405386e-6
-0.027, 1.4397131e-6, 1.9519503e-6
-0.028, 1.4903728e-6, 1.9067160e-6
-0.029, 1.4593701e-6, 1.9636918e-6
-0.030, 1.4600956e-6, 1.9120425e-6
-0.031, 1.4982554e-6, 1.9892855e-6
-0.032, 1.4287631e-6, 1.9740646e-6
-0.033, 1.4853761e-6, 1.9503343e-6
-0.034, 1.4399275e-6, 1.9277254e-6
-0.035, 1.4678134e-6, 1.9081838e-6
-0.036, 1.4753002e-6, 1.9850308e-6
-0.037, 1.4501022e-6, 1.9559081e-6
-0.038, 1.4750362e-6, 1.9774780e-6
-0.039, 1.4358377e-6, 1.9389063e-6
-0.040, 1.4701880e-6, 1.9625868e-6
-0.041, 1.4548020e-6, 1.9117292e-6
-0.042, 1.4574241e-6, 1.9413137e-6
-0.043, 1.4761413e-6, 1.9764393e-6
-0.044, 1.4263885e-6, 1.9703541e-6
-0.045, 1.4733378e-6, 1.9627682e-6
-0.046, 1.4476781e-6, 1.9592392e-6
-0.047, 1.4699076e-6, 1.9136421e-6
-0.048, 1.4723319e-6, 1.9624881e-6
-0.049, 1.4477605e-6, 1.9279728e-6
-0.050, 1.4784829e-6, 1.9720856e-6
-0.051, 1.4276582e-6, 1.9806937e-6
-0.052, 1.4711610e-6, 1.9345030e-6
-0.053, 1.4524273e-6, 1.9501529e-6
-0.054, 1.4523780e-6, 1.8983058e-6
-0.055, 1.4842547e-6, 1.9850474e-6
-0.056, 1.4276912e-6, 1.9208983e-6
-0.057, 1.4855079e-6, 1.9658355e-6
-0.058, 1.4135092e-6, 1.9627189e-6
-0.059, 1.4643833e-6, 1.9408685e-6
-0.060, 1.4670218e-6, 1.9530717e-6
-0.061, 1.4518337e-6, 1.8713763e-6
-0.062, 1.4753826e-6, 1.9680947e-6
-0.063, 1.4285982e-6, 1.9707993e-6
-0.064, 1.4776090e-6, 1.9947770e-6
-0.065, 1.4527737e-6, 1.9157694e-6
-0.066, 1.4614150e-6, 1.9389886e-6
-0.067, 1.4782520e-6, 1.9206673e-6
-0.068, 1.4512070e-6, 1.9147142e-6
-0.069, 1.4646637e-6, 1.9262411e-6
-0.070, 1.4262565e-6, 1.9583158e-6
-0.071, 1.4553959e-6, 1.9799354e-6
-0.072, 1.4623549e-6, 1.9379497e-6
-0.073, 1.4479585e-6, 1.9247570e-6
-0.074, 1.4811544e-6, 1.8970854e-6
-0.075, 1.4301978e-6, 1.9324252e-6
-0.076, 1.4677969e-6, 1.9388567e-6
-0.077, 1.4409663e-6, 1.9730421e-6
-0.078, 1.4649274e-6, 1.9512909e-6
-0.079, 1.4800330e-6, 1.9590084e-6
-0.080, 1.4249867e-6, 1.8927649e-6
-0.081, 1.4708808e-6, 1.8960631e-6
-0.082, 1.4163290e-6, 1.9352451e-6
-0.083, 1.4687698e-6, 1.9555455e-6
-0.084, 1.4527736e-6, 1.9787644e-6
-0.085, 1.4371899e-6, 1.9018678e-6
-0.086, 1.4923187e-6, 1.9405056e-6
-0.087, 1.4352274e-6, 1.8806936e-6
-0.088, 1.4765205e-6, 1.9450738e-6
-0.089, 1.4275759e-6, 1.9326067e-6
-0.090, 1.4628497e-6, 1.9471349e-6
-0.091, 1.4720681e-6, 1.9882962e-6
-0.092, 1.4421702e-6, 1.9171875e-6
-0.093, 1.4668075e-6, 1.9249385e-6
-0.094, 1.4204848e-6, 1.8774942e-6
-0.095, 1.4754487e-6, 1.9367128e-6
-0.096, 1.4307420e-6, 1.9454694e-6
-0.097, 1.4539941e-6, 1.9325075e-6
-0.098, 1.4654552e-6, 1.9441172e-6
-0.099, 1.4249372e-6, 1.9329200e-6
-0.100, 1.4752013e-6, 1.8802153e-6
-0.101, 1.4351451e-6, 1.9144668e-6
-0.102, 1.4611015e-6, 1.9433751e-6
-0.103, 1.4624044e-6, 1.9906872e-6
-0.104, 1.4406529e-6, 1.9404563e-6
-0.105, 1.4660982e-6, 1.9251033e-6
-0.106, 1.4396142e-6, 1.9380814e-6
-0.107, 1.4680443e-6, 1.8860035e-6
-0.108, 1.4563688e-6, 1.9539621e-6
-0.109, 1.4398120e-6, 1.9239326e-6
-0.110, 1.4806926e-6, 1.9995757e-6
-0.111, 1.4185719e-6, 1.9709312e-6
-0.112, 1.4800165e-6, 1.9275935e-6
-0.113, 1.4328693e-6, 1.9366139e-6
-0.114, 1.4678299e-6, 1.8733551e-6
-0.115, 1.4779716e-6, 1.9743613e-6
-0.116, 1.4349802e-6, 1.9245097e-6
-0.117, 1.4710786e-6, 1.9815677e-6
-0.118, 1.4315996e-6, 1.9533522e-6
-0.119, 1.4866788e-6, 1.9315016e-6
-0.120, 1.4509596e-6, 1.9130816e-6
-0.121, 1.4442314e-6, 1.8844535e-6
-0.122, 1.4895812e-6, 1.9633126e-6
-0.123, 1.4316490e-6, 1.9261422e-6
-0.124, 1.4791755e-6, 1.9855422e-6
-0.125, 1.4254649e-6, 1.9564852e-6
-0.126, 1.4677969e-6, 1.9454528e-6
-0.127, 1.4728926e-6, 1.9273461e-6
-0.128, 1.4563357e-6, 1.9061390e-6
-0.129, 1.4850627e-6, 1.9868778e-6
-0.130, 1.4439182e-6, 1.9644174e-6
-0.131, 1.4832982e-6, 1.9887084e-6
-0.132, 1.4565501e-6, 1.9376857e-6
-0.133, 1.4717216e-6, 1.9265710e-6
-0.134, 1.4862006e-6, 1.9397637e-6
-0.135, 1.4508114e-6, 1.9240808e-6
-0.136, 1.4865634e-6, 1.9452880e-6
-0.137, 1.4459795e-6, 1.9473989e-6
-0.138, 1.4768008e-6, 2.0083653e-6
-0.139, 1.4796208e-6, 1.9354266e-6
-0.140, 1.4644656e-6, 1.9289621e-6
-0.141, 1.4944790e-6, 1.9146978e-6
-0.142, 1.4429287e-6, 1.9338268e-6
-0.143, 1.4818140e-6, 1.9509607e-6
-0.144, 1.4659993e-6, 1.9605586e-6
-0.145, 1.4797032e-6, 1.9592558e-6
-0.146, 1.4933740e-6, 1.9510599e-6
-0.147, 1.4491952e-6, 1.9615150e-6
-0.148, 1.4927640e-6, 1.8767852e-6
-0.149, 1.4526584e-6, 1.9620757e-6
-0.150, 1.4887567e-6, 1.9756312e-6
-0.151, 1.4875363e-6, 1.9889062e-6
-0.152, 1.4630805e-6, 1.9555289e-6
-0.153, 1.5074902e-6, 1.9693152e-6
-0.154, 1.4611510e-6, 1.9428473e-6
-0.155, 1.4894988e-6, 1.9136753e-6
-0.156, 1.4725133e-6, 1.9574913e-6
-0.157, 1.4874209e-6, 1.9562049e-6
-0.158, 1.5086280e-6, 2.0153739e-6
-0.159, 1.4659498e-6, 1.9721679e-6
-0.160, 1.5057423e-6, 1.9433587e-6
-0.161, 1.4564182e-6, 1.9275933e-6
-0.162, 1.5145978e-6, 1.9190677e-6
-0.163, 1.4734037e-6, 1.9771483e-6
-0.164, 1.4661312e-6, 1.9441668e-6
-0.165, 1.5040766e-6, 2.0059908e-6
-0.166, 1.4561049e-6, 1.9925671e-6
-0.167, 1.5155707e-6, 1.9588765e-6
-0.168, 1.4682586e-6, 1.9533850e-6
-0.169, 1.4968372e-6, 1.9224319e-6
-0.170, 1.5049670e-6, 2.0134776e-6
-0.171, 1.4721174e-6, 1.9445131e-6
-0.172, 1.5071604e-6, 1.9880815e-6
-0.173, 1.4695448e-6, 1.9793088e-6
-0.174, 1.5255147e-6, 1.9742461e-6
-0.175, 1.5034170e-6, 1.9721679e-6
-0.176, 1.5015040e-6, 1.9150275e-6
-0.177, 1.5224803e-6, 2.0151761e-6
-0.178, 1.4663128e-6, 1.9683916e-6
-0.179, 1.5331664e-6, 1.9990975e-6
-0.180, 1.4907686e-6, 1.9899946e-6
-0.181, 1.5182918e-6, 1.9646318e-6
-0.182, 1.5257456e-6, 2.0047044e-6
-0.183, 1.4995417e-6, 1.9136587e-6
-0.184, 1.5310061e-6, 1.9896813e-6
-0.185, 1.4766358e-6, 1.9892525e-6
-0.186, 1.5299013e-6, 2.0243615e-6
-0.187, 1.5113656e-6, 1.9889558e-6
-0.188, 1.5067976e-6, 1.9900440e-6
-0.189, 1.5551486e-6, 1.9918746e-6
-0.190, 1.5037633e-6, 1.9393678e-6
-0.191, 1.5534335e-6, 2.0063203e-6
-0.192, 1.4935885e-6, 2.0155719e-6
-0.193, 1.5378002e-6, 2.0542757e-6
-0.194, 1.5612009e-6, 2.0514062e-6
-0.195, 1.5315172e-6, 1.9907698e-6
-0.196, 1.5643670e-6, 2.0129662e-6
-0.197, 1.5127014e-6, 1.9797044e-6
-0.198, 1.5733381e-6, 2.0240482e-6
-0.199, 1.5357389e-6, 2.0480918e-6
-0.200, 1.5625694e-6, 2.0611524e-6
-0.201, 1.5878169e-6, 2.0520331e-6
-0.202, 1.5395483e-6, 2.0157697e-6
-0.203, 1.5856401e-6, 1.9868778e-6
-0.204, 1.5518175e-6, 1.9823592e-6
-0.205, 1.5731566e-6, 2.0630982e-6
-0.206, 1.5900101e-6, 2.0723662e-6
-0.207, 1.5647628e-6, 2.0722837e-6
-0.208, 1.6107392e-6, 2.0796222e-6
-0.209, 1.5599144e-6, 2.0543748e-6
-0.210, 1.6060227e-6, 2.0163966e-6
-0.211, 1.5887899e-6, 2.0398463e-6
-0.212, 1.6103104e-6, 2.0628841e-6
-0.213, 1.6421211e-6, 2.1296387e-6
-0.214, 1.5951883e-6, 2.1346355e-6
-0.215, 1.6530546e-6, 2.0613174e-6
-0.216, 1.5985360e-6, 2.1036492e-6
-0.217, 1.6428467e-6, 2.0512084e-6
-0.218, 1.6546542e-6, 2.1320629e-6
-0.219, 1.6327708e-6, 2.0977125e-6
-0.220, 1.6935065e-6, 2.1501037e-6
-0.221, 1.6350466e-6, 2.1316011e-6
-0.222, 1.6809074e-6, 2.1209976e-6
-0.223, 1.6613164e-6, 2.1593883e-6
-0.224, 1.6838594e-6, 2.0754005e-6
-0.225, 1.7197269e-6, 2.1846354e-6
-0.226, 1.6772301e-6, 2.1564033e-6
-0.227, 1.7285988e-6, 2.1759120e-6
-0.228, 1.6832328e-6, 2.1988012e-6
-0.229, 1.7431437e-6, 2.1771323e-6
-0.230, 1.7218213e-6, 2.2069808e-6
-0.231, 1.7374050e-6, 2.1158523e-6
-0.232, 1.7703371e-6, 2.2429140e-6
-0.233, 1.7209306e-6, 2.2331351e-6
-0.234, 1.7954856e-6, 2.2769018e-6
-0.235, 1.7501029e-6, 2.2380493e-6
-0.236, 1.8020655e-6, 2.2295894e-6
-0.237, 1.8211617e-6, 2.2983563e-6
-0.238, 1.8019830e-6, 2.2050842e-6
-0.239, 1.8329032e-6, 2.2838608e-6
-0.240, 1.8031703e-6, 2.2824261e-6
-0.241, 1.8437377e-6, 2.3427824e-6
-0.242, 1.8399778e-6, 2.3450416e-6
-0.243, 1.8549185e-6, 2.3038310e-6
-0.244, 1.8887081e-6, 2.3233397e-6
-0.245, 1.8429462e-6, 2.3196953e-6
-0.246, 1.9052979e-6, 2.3407047e-6
-0.247, 1.8677647e-6, 2.3303153e-6
-0.248, 1.9065676e-6, 2.4005826e-6
-0.249, 1.9370591e-6, 2.4315525e-6
-0.250, 1.9202221e-6, 2.3543755e-6
-0.251, 1.9434742e-6, 2.3295565e-6
-0.252, 1.9149120e-6, 2.3874229e-6
-0.253, 1.9643514e-6, 2.4109388e-6
-0.254, 1.9372569e-6, 2.4440524e-6
-0.255, 1.9454528e-6, 2.4579047e-6
-0.256, 1.9937215e-6, 2.4427659e-6
-0.257, 1.9742129e-6, 2.4114665e-6
-0.258, 2.0032699e-6, 2.3879506e-6
-0.259, 1.9559907e-6, 2.4412818e-6
-0.260, 2.0036819e-6, 2.4611863e-6
-0.261, 2.0126365e-6, 2.5242307e-6
-0.262, 1.9933093e-6, 2.4508136e-6
-0.263, 2.0407037e-6, 2.4925848e-6
-0.264, 1.9936556e-6, 2.4669582e-6
-0.265, 2.0361524e-6, 2.4262094e-6
-0.266, 2.0161820e-6, 2.4875221e-6
-0.267, 2.0258619e-6, 2.4752364e-6
-0.268, 2.0533853e-6, 2.5397981e-6
-0.269, 2.0085467e-6, 2.4964438e-6
-0.270, 2.0560897e-6, 2.4667438e-6
-0.271, 2.0020657e-6, 2.4336300e-6
-0.272, 2.0277421e-6, 2.4715919e-6
-0.273, 2.0485863e-6, 2.5060413e-6
-0.274, 2.0108225e-6, 2.4825090e-6
-0.275, 2.0516372e-6, 2.5561073e-6
-0.276, 2.0028574e-6, 2.4733565e-6
-0.277, 2.0317163e-6, 2.4844219e-6
-0.278, 2.0056279e-6, 2.4442006e-6
-0.279, 2.0292923e-6, 2.4777100e-6
-0.280, 2.0285665e-6, 2.5098011e-6
-0.281, 1.9708652e-6, 2.4958006e-6
-0.282, 2.0246584e-6, 2.4640392e-6
-0.283, 1.9664624e-6, 2.4545407e-6
-0.284, 1.9996253e-6, 2.4626870e-6
-0.285, 1.9916272e-6, 2.4187391e-6
-0.286, 1.9721022e-6, 2.4267865e-6
-0.287, 1.9982895e-6, 2.4536830e-6
-0.288, 1.9403244e-6, 2.4413810e-6
-0.289, 1.9625045e-6, 2.4266214e-6
-0.290, 1.9301497e-6, 2.4095536e-6
-0.291, 1.9480256e-6, 2.3589598e-6
-0.292, 1.9397801e-6, 2.4098833e-6
-0.293, 1.8996250e-6, 2.3987193e-6
-0.294, 1.9230088e-6, 2.3856419e-6
-0.295, 1.8699416e-6, 2.4301341e-6
-0.296, 1.9137906e-6, 2.3695634e-6
-0.297, 1.8654066e-6, 2.3745272e-6
-0.298, 1.8656044e-6, 2.2528909e-6
-0.299, 1.8855254e-6, 2.3565851e-6
-0.300, 1.8242126e-6, 2.3267532e-6
-0.301, 1.8639884e-6, 2.3442665e-6
-0.302, 1.7848160e-6, 2.3440193e-6
-0.303, 1.8252350e-6, 2.2927163e-6
-0.304, 1.8215576e-6, 2.3264729e-6
-0.305, 1.7920884e-6, 2.2237352e-6
-0.306, 1.7967225e-6, 2.2797215e-6
-0.307, 1.7489815e-6, 2.2629833e-6
-0.308, 1.7855416e-6, 2.2841409e-6
-0.309, 1.7632791e-6, 2.2713937e-6
-0.310, 1.7417092e-6, 2.2349491e-6
-0.311, 1.7665443e-6, 2.2398797e-6
-0.312, 1.6962770e-6, 2.1829371e-6
-0.313, 1.7391035e-6, 2.2264892e-6
-0.314, 1.6893838e-6, 2.2258296e-6
-0.315, 1.7180448e-6, 2.2255988e-6
-0.316, 1.7121246e-6, 2.2316342e-6
-0.317, 1.6949413e-6, 2.1619112e-6
-0.318, 1.7067487e-6, 2.1363671e-6
-0.319, 1.6516858e-6, 2.1862022e-6
-0.320, 1.6821773e-6, 2.1591572e-6
-0.321, 1.6516199e-6, 2.2055460e-6
-0.322, 1.6408842e-6, 2.1853118e-6
-0.323, 1.6829688e-6, 2.1762746e-6
-0.324, 1.6308084e-6, 2.1250212e-6
-0.325, 1.6705183e-6, 2.0968055e-6
-0.326, 1.6002016e-6, 2.1393023e-6
-0.327, 1.6277412e-6, 2.1338437e-6
-0.328, 1.6378500e-6, 2.1993289e-6
-0.329, 1.6124377e-6, 2.1102785e-6
-0.330, 1.6462934e-6, 2.1395497e-6
-0.331, 1.5893340e-6, 2.0778411e-6
-0.332, 1.6275599e-6, 2.0904895e-6
-0.333, 1.5980742e-6, 2.1098497e-6
-0.334, 1.6051158e-6, 2.1149453e-6
-0.335, 1.6126357e-6, 2.1657536e-6
-0.336, 1.5773452e-6, 2.0709645e-6
-0.337, 1.6242121e-6, 2.0593880e-6
-0.338, 1.5555113e-6, 2.0250375e-6
-0.339, 1.5844691e-6, 2.1048695e-6
-0.340, 1.5816493e-6, 2.0874388e-6
-0.341, 1.5537303e-6, 2.0747243e-6
-0.342, 1.5950565e-6, 2.1079038e-6
-0.343, 1.5412304e-6, 2.0777752e-6
-0.344, 1.5815339e-6, 2.0364164e-6
-0.345, 1.5545879e-6, 2.0004497e-6
-0.346, 1.5709137e-6, 2.0721022e-6
-0.347, 1.5775266e-6, 2.0961788e-6
-0.348, 1.5228926e-6, 2.1189858e-6
-0.349, 1.5669395e-6, 2.0603939e-6
-0.350, 1.5269824e-6, 2.0548696e-6
-0.351, 1.5538293e-6, 2.0228772e-6
-0.352, 1.5533346e-6, 2.0457665e-6
-0.353, 1.5296373e-6, 2.0311390e-6
-0.354, 1.5706995e-6, 2.0877192e-6
-0.355, 1.5190008e-6, 2.0591735e-6
-0.356, 1.5528728e-6, 2.0433918e-6
-0.357, 1.5134929e-6, 2.0370921e-6
-0.358, 1.5462435e-6, 1.9798363e-6
-0.359, 1.5681765e-6, 2.0858392e-6
-0.360, 1.5039448e-6, 2.0332830e-6
-0.361, 1.5446769e-6, 2.0735206e-6
-0.362, 1.4911313e-6, 2.0464097e-6
-0.363, 1.5623551e-6, 2.0301661e-6
-0.364, 1.5225462e-6, 2.0215250e-6
-0.365, 1.5116788e-6, 1.9410170e-6
-0.366, 1.5360523e-6, 2.0627356e-6
-0.367, 1.4850132e-6, 2.0668251e-6
-0.368, 1.5389876e-6, 2.0780885e-6
-0.369, 1.4950067e-6, 2.0481907e-6
-0.370, 1.5212765e-6, 2.0348991e-6
-0.371, 1.5380807e-6, 2.0164130e-6
-0.372, 1.5149769e-6, 1.9997078e-6
-0.373, 1.5262402e-6, 2.0258951e-6
-0.374, 1.4926650e-6, 2.0601465e-6
-0.375, 1.5256632e-6, 2.0418088e-6
-0.376, 1.5122231e-6, 2.0409843e-6
-0.377, 1.5138556e-6, 1.9766205e-6
-0.378, 1.5393340e-6, 2.0036161e-6
-0.379, 1.4854915e-6, 2.0370264e-6
-0.380, 1.5195779e-6, 2.0341733e-6
-0.381, 1.4989644e-6, 2.0396485e-6
-0.382, 1.5207322e-6, 2.0295561e-6
-0.383, 1.5324243e-6, 2.0540615e-6
-0.384, 1.4993602e-6, 1.9508948e-6
-0.385, 1.5382291e-6, 1.9651100e-6
-0.386, 1.4888886e-6, 2.0231739e-6
-0.387, 1.5295714e-6, 2.0391703e-6
-0.388, 1.5078695e-6, 2.0845364e-6
-0.389, 1.4906366e-6, 2.0128014e-6
-0.390, 1.5344363e-6, 2.0465745e-6
-0.391, 1.4962270e-6, 1.9591239e-6
-0.392, 1.5330345e-6, 2.0260600e-6
-0.393, 1.4681102e-6, 2.0364491e-6
-0.394, 1.5256301e-6, 2.0531709e-6
-0.395, 1.5242613e-6, 2.0848331e-6
-0.396, 1.5012567e-6, 1.9923032e-6
-0.397, 1.5331170e-6, 2.0473331e-6
-0.398, 1.4798186e-6, 1.9864160e-6
-0.399, 1.5355740e-6, 2.0391867e-6
-0.400, 1.5053299e-6, 2.0163468e-6
-0.401, 1.5236676e-6, 2.0628841e-6
-0.402, 1.5394494e-6, 2.0624223e-6
-0.403, 1.4966722e-6, 2.0004663e-6
-0.404, 1.5314019e-6, 1.9895492e-6
-0.405, 1.5001024e-6, 1.9766699e-6
-0.406, 1.5113491e-6, 2.0488669e-6
-0.407, 1.5288953e-6, 2.0448761e-6
-0.408, 1.4995252e-6, 2.0330851e-6
-0.409, 1.5430609e-6, 2.0270825e-6
-0.410, 1.4875363e-6, 2.0256477e-6
-0.411, 1.5251848e-6, 1.9755651e-6
-0.412, 1.5131300e-6, 2.0297209e-6
-0.413, 1.5282851e-6, 2.0100310e-6
-0.414, 1.5307918e-6, 2.0720693e-6
-0.415, 1.4918404e-6, 2.0392856e-6
-0.416, 1.5479586e-6, 1.9935401e-6
-0.417, 1.5003827e-6, 2.0197936e-6
-0.418, 1.5263722e-6, 1.9991471e-6
-0.419, 1.5279224e-6, 2.0524617e-6
-0.420, 1.5030871e-6, 2.0047373e-6
-0.421, 1.5504322e-6, 2.0711295e-6
-0.422, 1.5020977e-6, 2.0243945e-6
-0.423, 1.5399277e-6, 2.0284513e-6
-0.424, 1.5002672e-6, 2.0189525e-6
-0.425, 1.5239646e-6, 1.9691338e-6
-0.426, 1.5446110e-6, 2.0628345e-6
-0.427, 1.5018173e-6, 2.0423363e-6
-0.428, 1.5412634e-6, 2.0573102e-6
-0.429, 1.4897627e-6, 2.0316998e-6
-0.430, 1.5531698e-6, 2.0244770e-6
-0.431, 1.5003333e-6, 1.9907036e-6
-0.432, 1.5146143e-6, 1.9734543e-6
-0.433, 1.5413293e-6, 2.0471684e-6
-0.434, 1.4900759e-6, 2.0534349e-6
-0.435, 1.5431929e-6, 2.0725643e-6
-0.436, 1.4952871e-6, 2.0318153e-6
-0.437, 1.5386083e-6, 2.0305783e-6
-0.438, 1.5410325e-6, 2.0174352e-6
-0.439, 1.5170053e-6, 2.0145990e-6
-0.440, 1.5325397e-6, 2.0168418e-6
-0.441, 1.5025100e-6, 2.0819969e-6
-0.442, 1.5408675e-6, 2.0547541e-6
-0.443, 1.5310061e-6, 2.0483556e-6
-0.444, 1.5225463e-6, 2.0302982e-6
-0.445, 1.5488821e-6, 2.0176167e-6
-0.446, 1.4888227e-6, 2.0545067e-6
-0.447, 1.5547033e-6, 2.0235861e-6
-0.448, 1.5126848e-6, 2.0449750e-6
-0.449, 1.5314844e-6, 2.0333985e-6
-0.450, 1.5654718e-6, 2.0627190e-6
-0.451, 1.5198418e-6, 2.0196780e-6
-0.452, 1.5517351e-6, 2.0104267e-6
-0.453, 1.5029386e-6, 2.0482403e-6
-0.454, 1.5418570e-6, 2.0254663e-6
-0.455, 1.5242118e-6, 2.0969374e-6
-0.456, 1.5089083e-6, 2.0497573e-6
-0.457, 1.5721837e-6, 2.0258951e-6
-0.458, 1.5135095e-6, 1.9619931e-6
-0.459, 1.5549838e-6, 1.9799847e-6
-0.460, 1.5009105e-6, 2.0320131e-6
-0.461, 1.5205344e-6, 2.0709974e-6
-0.462, 1.5529882e-6, 2.1133128e-6
-0.463, 1.5204356e-6, 2.0332004e-6
-0.464, 1.5604587e-6, 2.0566340e-6
-0.465, 1.5183576e-6, 1.9984543e-6
-0.466, 1.5621408e-6, 2.0403411e-6
-0.467, 1.5332323e-6, 2.0431610e-6
-0.468, 1.5353596e-6, 2.0603443e-6
-0.469, 1.5627674e-6, 2.1042429e-6
-0.470, 1.5166096e-6, 1.9997406e-6
-0.471, 1.5591394e-6, 2.0264065e-6
-0.472, 1.5109697e-6, 1.9709312e-6
-0.473, 1.5428300e-6, 2.0660832e-6
-0.474, 1.5542747e-6, 2.0600476e-6
-0.475, 1.5272298e-6, 2.0531047e-6
-0.476, 1.5741296e-6, 2.0985040e-6
-0.477, 1.5045548e-6, 2.0419736e-6
-0.478, 1.5511248e-6, 2.0602290e-6
-0.479, 1.5149441e-6, 1.9867130e-6
-0.480, 1.5474969e-6, 2.0464756e-6
-0.481, 1.5601289e-6, 2.0839097e-6
-0.482, 1.5178960e-6, 2.0732236e-6
-0.483, 1.5671374e-6, 2.0395823e-6
-0.484, 1.5210951e-6, 2.0385928e-6
-0.485, 1.5648286e-6, 2.0332830e-6
-0.486, 1.5468373e-6, 2.0139557e-6
-0.487, 1.5380313e-6, 2.0420559e-6
-0.488, 1.5745254e-6, 2.0750542e-6
-0.489, 1.5166756e-6, 2.0547870e-6
-0.490, 1.5636249e-6, 2.0821124e-6
-0.491, 1.5343702e-6, 2.0444636e-6
-0.492, 1.5610689e-6, 2.0467230e-6
-0.493, 1.5817483e-6, 2.0484874e-6
-0.494, 1.5276255e-6, 2.0629170e-6
-0.495, 1.5577211e-6, 2.0397970e-6
-0.496, 1.5242449e-6, 2.0850312e-6
-0.497, 1.5754324e-6, 2.0832831e-6
-0.498, 1.5473486e-6, 2.0698430e-6
-0.499, 1.5471342e-6, 2.0051332e-6
-0.500, 1.5761580e-6, 2.0306938e-6
