Dec. 21, 2005   09:29:11
Square Wave Voltammetry
File: d:\ida_biofilms\12_10_18_dphzstar\a_760b\200um_pyo\a_200um_pyo_swvfast_4_2.txt
Data Source:  Experiment
Instrument Model:  CHI760E
Header: 
Note: 

Init E (V) = 0.1
Final E (V) = -0.5
Incr E (V) = 0.001
Amplitude (V) = 0.025
Frequency (Hz) = 300
Quiet Time (sec) = 2
Sensitivity (A/V) = 1e-6
Sens 2 (A/V) = 1e-6

Potential/V, i1/A, i2/A

0.099, 1.5892351e-6, 1.9427980e-6
0.098, 1.5544725e-6, 1.9890547e-6
0.097, 1.5882622e-6, 2.0351958e-6
0.096, 1.5595847e-6, 1.9634940e-6
0.095, 1.5936877e-6, 2.0344867e-6
0.094, 1.5522958e-6, 2.0520990e-6
0.093, 1.6086614e-6, 2.0903246e-6
0.092, 1.5789449e-6, 2.1004334e-6
0.091, 1.5801156e-6, 2.0323596e-6
0.090, 1.5998222e-6, 2.0843220e-6
0.089, 1.5681599e-6, 2.0025441e-6
0.088, 1.6004489e-6, 2.0654895e-6
0.087, 1.5533512e-6, 2.0461623e-6
0.086, 1.5912799e-6, 2.1043911e-6
0.085, 1.5821771e-6, 2.1076567e-6
0.084, 1.5636415e-6, 2.0422540e-6
0.083, 1.6020980e-6, 2.0738007e-6
0.082, 1.5461117e-6, 2.0110369e-6
0.081, 1.5976455e-6, 2.0535667e-6
0.080, 1.5600958e-6, 2.0639723e-6
0.079, 1.5911480e-6, 2.0709149e-6
0.078, 1.6013064e-6, 2.1249389e-6
0.077, 1.5559401e-6, 2.0516040e-6
0.076, 1.5963262e-6, 2.0363502e-6
0.075, 1.5446440e-6, 2.0130487e-6
0.074, 1.5864647e-6, 2.0711952e-6
0.073, 1.5713260e-6, 2.0752520e-6
0.072, 1.5566163e-6, 2.0621585e-6
0.071, 1.5968209e-6, 2.0892858e-6
0.070, 1.5463590e-6, 2.0358555e-6
0.069, 1.5891692e-6, 2.0529071e-6
0.068, 1.5494428e-6, 1.9991801e-6
0.067, 1.5757291e-6, 2.0217065e-6
0.066, 1.5744099e-6, 2.0839921e-6
0.065, 1.5511579e-6, 2.0661987e-6
0.064, 1.5703367e-6, 2.0946948e-6
0.063, 1.5280048e-6, 2.0320297e-6
0.062, 1.5848157e-6, 2.0485204e-6
0.061, 1.5365965e-6, 2.0044240e-6
0.060, 1.5494099e-6, 2.0002356e-6
0.059, 1.5661151e-6, 2.0549023e-6
0.058, 1.5238986e-6, 2.0632137e-6
0.057, 1.5650267e-6, 2.0697605e-6
0.056, 1.5215403e-6, 2.0316998e-6
0.055, 1.5557587e-6, 2.0325078e-6
0.054, 1.5644000e-6, 2.0212940e-6
0.053, 1.5527410e-6, 2.0072275e-6
0.052, 1.5502837e-6, 2.0360203e-6
0.051, 1.5210456e-6, 2.0609709e-6
0.050, 1.5564844e-6, 2.0895002e-6
0.049, 1.5360688e-6, 2.0336458e-6
0.048, 1.5375529e-6, 2.0211951e-6
0.047, 1.5554784e-6, 2.0167590e-6
0.046, 1.5119427e-6, 2.0133621e-6
0.045, 1.5509600e-6, 2.0268185e-6
0.044, 1.5088260e-6, 2.0360865e-6
0.043, 1.5379982e-6, 2.0725970e-6
0.042, 1.5511250e-6, 2.0488174e-6
0.041, 1.5282027e-6, 2.0054958e-6
0.040, 1.5438359e-6, 1.9795393e-6
0.039, 1.5146638e-6, 1.9751365e-6
0.038, 1.5475299e-6, 2.0258456e-6
0.037, 1.5212930e-6, 2.0373066e-6
0.036, 1.5134929e-6, 2.0683260e-6
0.035, 1.5549342e-6, 2.0295561e-6
0.034, 1.5079850e-6, 1.9829365e-6
0.033, 1.5512403e-6, 1.9630320e-6
0.032, 1.4956004e-6, 1.9755157e-6
0.031, 1.5277409e-6, 2.0275770e-6
0.030, 1.5343043e-6, 2.0501695e-6
0.029, 1.5141690e-6, 2.0258951e-6
0.028, 1.5396143e-6, 2.0453544e-6
0.027, 1.5093372e-6, 2.0169737e-6
0.026, 1.5432918e-6, 1.9776760e-6
0.025, 1.5091888e-6, 1.9547538e-6
0.024, 1.5252015e-6, 2.0131147e-6
0.023, 1.5373386e-6, 2.0493615e-6
0.022, 1.4978102e-6, 2.0373232e-6
0.021, 1.5265700e-6, 1.9795229e-6
0.020, 1.4956993e-6, 1.9899946e-6
0.019, 1.5257291e-6, 1.9946615e-6
0.018, 1.5268174e-6, 1.9771319e-6
0.017, 1.5007125e-6, 1.9856575e-6
0.016, 1.5348814e-6, 2.0232237e-6
0.015, 1.4809235e-6, 2.0495429e-6
0.014, 1.5294725e-6, 2.0106411e-6
0.013, 1.4914776e-6, 1.9853112e-6
0.012, 1.5124210e-6, 1.9419899e-6
0.011, 1.5238491e-6, 1.9727288e-6
0.010, 1.4857883e-6, 1.9886918e-6
0.009, 1.5217713e-6, 1.9787478e-6
0.008, 1.4707322e-6, 2.0392526e-6
0.007, 1.5256796e-6, 1.9797869e-6
0.006, 1.5002013e-6, 2.0109378e-6
0.005, 1.4981069e-6, 1.9414126e-6
0.004, 1.5179784e-6, 1.9563697e-6
0.003, 1.4712434e-6, 2.0052980e-6
0.002, 1.5190337e-6, 1.9947111e-6
0.001, 1.4751023e-6, 2.0372738e-6
-0.000, 1.5028068e-6, 1.9979925e-6
-0.001, 1.5078365e-6, 2.0087941e-6
-0.002, 1.4997065e-6, 1.9484874e-6
-0.003, 1.5073254e-6, 1.9269669e-6
-0.004, 1.4647130e-6, 1.9944800e-6
-0.005, 1.5110357e-6, 1.9825902e-6
-0.006, 1.4876848e-6, 2.0113503e-6
-0.007, 1.4863820e-6, 1.9686720e-6
-0.008, 1.5105741e-6, 1.9822769e-6
-0.009, 1.4650594e-6, 1.9583322e-6
-0.010, 1.5044229e-6, 1.9319964e-6
-0.011, 1.4686213e-6, 1.9821287e-6
-0.012, 1.4895318e-6, 1.9652091e-6
-0.013, 1.4914942e-6, 2.0257796e-6
-0.014, 1.4746240e-6, 1.9797210e-6
-0.015, 1.4954024e-6, 1.9641370e-6
-0.016, 1.4667249e-6, 1.9664128e-6
-0.017, 1.5110029e-6, 1.9226791e-6
-0.018, 1.4773450e-6, 1.9923527e-6
-0.019, 1.4592877e-6, 1.9719373e-6
-0.020, 1.5119263e-6, 2.0253344e-6
-0.021, 1.4721504e-6, 1.9841568e-6
-0.022, 1.5054618e-6, 1.9709641e-6
-0.023, 1.4634268e-6, 1.9354100e-6
-0.024, 1.4922198e-6, 1.9211125e-6
-0.025, 1.4987995e-6, 1.9898132e-6
-0.026, 1.4705342e-6, 1.9455024e-6
-0.027, 1.4970846e-6, 2.0007797e-6
-0.028, 1.4593866e-6, 1.9903243e-6
-0.029, 1.5057258e-6, 1.9669901e-6
-0.030, 1.4767350e-6, 1.9531049e-6
-0.031, 1.4792415e-6, 1.9205024e-6
-0.032, 1.5081664e-6, 1.9962777e-6
-0.033, 1.4684069e-6, 1.9482563e-6
-0.034, 1.4997561e-6, 1.9772638e-6
-0.035, 1.4439181e-6, 1.9723166e-6
-0.036, 1.4827045e-6, 1.9685401e-6
-0.037, 1.4822758e-6, 1.9684248e-6
-0.038, 1.4618602e-6, 1.8925505e-6
-0.039, 1.5036974e-6, 1.9698264e-6
-0.040, 1.4479255e-6, 1.9671384e-6
-0.041, 1.4867448e-6, 1.9843712e-6
-0.042, 1.4616624e-6, 1.9809577e-6
-0.043, 1.4921702e-6, 1.9404399e-6
-0.044, 1.4900925e-6, 1.9766371e-6
-0.045, 1.4488324e-6, 1.9068151e-6
-0.046, 1.4908014e-6, 1.9198756e-6
-0.047, 1.4351781e-6, 1.9519832e-6
-0.048, 1.4876354e-6, 1.9904398e-6
-0.049, 1.4668403e-6, 2.0132466e-6
-0.050, 1.4647296e-6, 1.9408189e-6
-0.051, 1.5089909e-6, 1.9676991e-6
-0.052, 1.4538952e-6, 1.9045558e-6
-0.053, 1.4907521e-6, 1.9172537e-6
-0.054, 1.4421372e-6, 1.9636259e-6
-0.055, 1.4721834e-6, 1.9634278e-6
-0.056, 1.4904223e-6, 2.0268185e-6
-0.057, 1.4643997e-6, 1.9620920e-6
-0.058, 1.4862171e-6, 1.9511588e-6
-0.059, 1.4417249e-6, 1.9360696e-6
-0.060, 1.4930442e-6, 1.9167919e-6
-0.061, 1.4531861e-6, 1.9731081e-6
-0.062, 1.4534828e-6, 1.9221350e-6
-0.063, 1.4829518e-6, 2.0039622e-6
-0.064, 1.4382783e-6, 1.9663798e-6
-0.065, 1.4833641e-6, 1.9357894e-6
-0.066, 1.4464083e-6, 1.9397637e-6
-0.067, 1.4617942e-6, 1.9027418e-6
-0.068, 1.4767844e-6, 1.9832169e-6
-0.069, 1.4538456e-6, 1.9224153e-6
-0.070, 1.4716063e-6, 1.9746417e-6
-0.071, 1.4363488e-6, 1.9756476e-6
-0.072, 1.4732389e-6, 1.9528575e-6
-0.073, 1.4617447e-6, 1.9500374e-6
-0.074, 1.4596010e-6, 1.8896810e-6
-0.075, 1.4845185e-6, 1.9776101e-6
-0.076, 1.4502177e-6, 1.9439854e-6
-0.077, 1.4869097e-6, 1.9736524e-6
-0.078, 1.4359532e-6, 1.9695624e-6
-0.079, 1.4727606e-6, 1.9315844e-6
-0.080, 1.4854420e-6, 1.9650936e-6
-0.081, 1.4593370e-6, 1.8690677e-6
-0.082, 1.4811214e-6, 1.9101130e-6
-0.083, 1.4327375e-6, 1.9359047e-6
-0.084, 1.4840404e-6, 1.9741469e-6
-0.085, 1.4521966e-6, 1.9857234e-6
-0.086, 1.4541260e-6, 1.9309905e-6
-0.087, 1.4843865e-6, 1.9747572e-6
-0.088, 1.4500692e-6, 1.9004166e-6
-0.089, 1.4728101e-6, 1.8961948e-6
-0.090, 1.4397790e-6, 1.9388401e-6
-0.091, 1.4585455e-6, 1.9490312e-6
-0.092, 1.4674670e-6, 1.9781214e-6
-0.093, 1.4395482e-6, 1.9350803e-6
-0.094, 1.4801485e-6, 1.9530387e-6
-0.095, 1.4396142e-6, 1.9467061e-6
-0.096, 1.4737665e-6, 1.8938698e-6
-0.097, 1.4498382e-6, 1.9356244e-6
-0.098, 1.4743437e-6, 1.9392689e-6
-0.099, 1.4878497e-6, 1.9870756e-6
-0.100, 1.4300164e-6, 1.9567328e-6
-0.101, 1.4868273e-6, 1.9124054e-6
-0.102, 1.4384598e-6, 1.9349482e-6
-0.103, 1.4835621e-6, 1.9129166e-6
-0.104, 1.4655707e-6, 1.9666932e-6
-0.105, 1.4594525e-6, 1.9171878e-6
-0.106, 1.4991788e-6, 1.9686390e-6
-0.107, 1.4431431e-6, 1.9773461e-6
-0.108, 1.4880311e-6, 1.9226957e-6
-0.109, 1.4435718e-6, 1.9319468e-6
-0.110, 1.4729089e-6, 1.8726130e-6
-0.111, 1.4761413e-6, 1.9540612e-6
-0.112, 1.4493930e-6, 1.9375702e-6
-0.113, 1.4745251e-6, 1.9357235e-6
-0.114, 1.4324571e-6, 1.9772142e-6
-0.115, 1.4934565e-6, 1.9532365e-6
-0.116, 1.4551483e-6, 1.9417262e-6
-0.117, 1.4717217e-6, 1.8764555e-6
-0.118, 1.4767843e-6, 1.9115478e-6
-0.119, 1.4357388e-6, 1.9512909e-6
-0.120, 1.4866953e-6, 1.9470856e-6
-0.121, 1.4441655e-6, 1.9662643e-6
-0.122, 1.4730904e-6, 1.9601628e-6
-0.123, 1.4763060e-6, 1.9559905e-6
-0.124, 1.4662962e-6, 1.9399122e-6
-0.125, 1.4776419e-6, 1.8888071e-6
-0.126, 1.4484367e-6, 1.9515051e-6
-0.127, 1.4759269e-6, 1.9594536e-6
-0.128, 1.4568634e-6, 1.9928641e-6
-0.129, 1.4611016e-6, 1.9517688e-6
-0.130, 1.4834632e-6, 1.9596021e-6
-0.131, 1.4447427e-6, 1.9484378e-6
-0.132, 1.4867612e-6, 1.9058750e-6
-0.133, 1.4421371e-6, 1.9071776e-6
-0.134, 1.4731728e-6, 1.9539953e-6
-0.135, 1.4743766e-6, 2.0030884e-6
-0.136, 1.4638060e-6, 1.9754334e-6
-0.137, 1.4937864e-6, 1.9466238e-6
-0.138, 1.4521966e-6, 1.9455520e-6
-0.139, 1.4926486e-6, 1.9322770e-6
-0.140, 1.4626023e-6, 1.9110696e-6
-0.141, 1.4591558e-6, 1.9526265e-6
-0.142, 1.4799341e-6, 1.9767524e-6
-0.143, 1.4564182e-6, 1.9500540e-6
-0.144, 1.5006631e-6, 1.9730587e-6
-0.145, 1.4433410e-6, 1.9367953e-6
-0.146, 1.4834466e-6, 1.9558092e-6
-0.147, 1.4856071e-6, 1.9152253e-6
-0.148, 1.4673351e-6, 1.9287313e-6
-0.149, 1.4870416e-6, 1.9743120e-6
-0.150, 1.4527409e-6, 1.9810070e-6
-0.151, 1.4866127e-6, 1.9775771e-6
-0.152, 1.4674341e-6, 1.9354100e-6
-0.153, 1.4989973e-6, 1.9483552e-6
-0.154, 1.5054288e-6, 1.9318977e-6
-0.155, 1.4630145e-6, 1.9501363e-6
-0.156, 1.4910654e-6, 1.9555123e-6
-0.157, 1.4624045e-6, 1.9684080e-6
-0.158, 1.4909499e-6, 2.0248890e-6
-0.159, 1.4919724e-6, 1.9819965e-6
-0.160, 1.4730244e-6, 1.9421054e-6
-0.161, 1.5144328e-6, 1.9167426e-6
-0.162, 1.4589414e-6, 1.9308750e-6
-0.163, 1.4941327e-6, 1.9623230e-6
-0.164, 1.4687204e-6, 1.9430947e-6
-0.165, 1.4941327e-6, 1.9920067e-6
-0.166, 1.5039446e-6, 1.9995264e-6
-0.167, 1.4706993e-6, 1.9405552e-6
-0.168, 1.5123551e-6, 1.9562544e-6
-0.169, 1.4588093e-6, 1.9137080e-6
-0.170, 1.5075067e-6, 1.9779893e-6
-0.171, 1.4785983e-6, 1.9740644e-6
-0.172, 1.4840402e-6, 1.9620920e-6
-0.173, 1.5078366e-6, 2.0018019e-6
-0.174, 1.4749373e-6, 1.9514721e-6
-0.175, 1.5137402e-6, 1.9809909e-6
-0.176, 1.4730410e-6, 1.9201066e-6
-0.177, 1.5157191e-6, 1.9615975e-6
-0.178, 1.5111018e-6, 2.0023133e-6
-0.179, 1.4847989e-6, 1.9763897e-6
-0.180, 1.5061710e-6, 1.9935401e-6
-0.181, 1.4700231e-6, 1.9611853e-6
-0.182, 1.5178299e-6, 1.9763238e-6
-0.183, 1.4874540e-6, 1.9360696e-6
-0.184, 1.4988985e-6, 1.9305453e-6
-0.185, 1.5054618e-6, 2.0027585e-6
-0.186, 1.4722164e-6, 1.9922704e-6
-0.187, 1.5167911e-6, 2.0191337e-6
-0.188, 1.4717876e-6, 1.9639556e-6
-0.189, 1.5109367e-6, 1.9671879e-6
-0.190, 1.5114151e-6, 1.9864490e-6
-0.191, 1.4930442e-6, 1.9254167e-6
-0.192, 1.5182422e-6, 1.9873560e-6
-0.193, 1.4786808e-6, 1.9791601e-6
-0.194, 1.5240140e-6, 2.0377850e-6
-0.195, 1.4999375e-6, 1.9978443e-6
-0.196, 1.4991788e-6, 1.9797867e-6
-0.197, 1.5294725e-6, 2.0135765e-6
-0.198, 1.5033510e-6, 1.9328045e-6
-0.199, 1.5357389e-6, 1.9974650e-6
-0.200, 1.4768502e-6, 1.9763897e-6
-0.201, 1.5230410e-6, 2.0227453e-6
-0.202, 1.5202046e-6, 2.0305456e-6
-0.203, 1.5072098e-6, 1.9606739e-6
-0.204, 1.5398451e-6, 2.0038469e-6
-0.205, 1.4955178e-6, 1.9545394e-6
-0.206, 1.5519330e-6, 2.0109051e-6
-0.207, 1.5126684e-6, 1.9917591e-6
-0.208, 1.5250034e-6, 2.0193977e-6
-0.209, 1.5401090e-6, 2.0369605e-6
-0.210, 1.5132290e-6, 1.9762413e-6
-0.211, 1.5487503e-6, 2.0060731e-6
-0.212, 1.5046207e-6, 1.9341896e-6
-0.213, 1.5361842e-6, 2.0009445e-6
-0.214, 1.5338096e-6, 2.0135599e-6
-0.215, 1.5215899e-6, 1.9857730e-6
-0.216, 1.5537964e-6, 2.0699090e-6
-0.217, 1.5141688e-6, 2.0027585e-6
-0.218, 1.5547364e-6, 2.0085963e-6
-0.219, 1.5177145e-6, 1.9424022e-6
-0.220, 1.5533841e-6, 1.9676991e-6
-0.221, 1.5597825e-6, 2.0323760e-6
-0.222, 1.5116128e-6, 2.0335469e-6
-0.223, 1.5632622e-6, 2.0547045e-6
-0.224, 1.5179619e-6, 2.0403577e-6
-0.225, 1.5601454e-6, 2.0354764e-6
-0.226, 1.5451717e-6, 2.0089096e-6
-0.227, 1.5415602e-6, 1.9821614e-6
-0.228, 1.5781368e-6, 2.0552159e-6
-0.229, 1.5281037e-6, 2.0136754e-6
-0.230, 1.5817648e-6, 2.0771981e-6
-0.231, 1.5364481e-6, 2.0523958e-6
-0.232, 1.5773783e-6, 2.0252849e-6
-0.233, 1.5819462e-6, 2.0709974e-6
-0.234, 1.5491789e-6, 1.9752520e-6
-0.235, 1.5823750e-6, 2.0434743e-6
-0.236, 1.5339911e-6, 2.0397640e-6
-0.237, 1.5936052e-6, 2.0760931e-6
-0.238, 1.5538128e-6, 2.0813702e-6
-0.239, 1.5696442e-6, 2.0058753e-6
-0.240, 1.5925168e-6, 2.0680786e-6
-0.241, 1.5462601e-6, 2.0097673e-6
-0.242, 1.5938197e-6, 2.0673695e-6
-0.243, 1.5530213e-6, 2.0530720e-6
-0.244, 1.5884600e-6, 2.0914131e-6
-0.245, 1.5875695e-6, 2.1043747e-6
-0.246, 1.5751521e-6, 2.0370594e-6
-0.247, 1.5911810e-6, 2.0673365e-6
-0.248, 1.5621902e-6, 2.0198263e-6
-0.249, 1.6162305e-6, 2.0889395e-6
-0.250, 1.5832160e-6, 2.0845364e-6
-0.251, 1.5918406e-6, 2.0903740e-6
-0.252, 1.6198092e-6, 2.1322112e-6
-0.253, 1.5755973e-6, 2.0672376e-6
-0.254, 1.6191659e-6, 2.0845364e-6
-0.255, 1.5668405e-6, 2.0330522e-6
-0.256, 1.6154885e-6, 2.0745101e-6
-0.257, 1.6099311e-6, 2.1219375e-6
-0.258, 1.5917417e-6, 2.1010273e-6
-0.259, 1.6289121e-6, 2.1207666e-6
-0.260, 1.5818803e-6, 2.0759612e-6
-0.261, 1.6381633e-6, 2.0960140e-6
-0.262, 1.5998717e-6, 2.0449420e-6
-0.263, 1.6061877e-6, 2.0568484e-6
-0.264, 1.6248223e-6, 2.1418750e-6
-0.265, 1.5961282e-6, 2.1027258e-6
-0.266, 1.6248223e-6, 2.1426335e-6
-0.267, 1.5805609e-6, 2.0743123e-6
-0.268, 1.6099641e-6, 2.1109711e-6
-0.269, 1.6261415e-6, 2.0673035e-6
-0.270, 1.5980743e-6, 2.0658688e-6
-0.271, 1.6260426e-6, 2.1202886e-6
-0.272, 1.5826718e-6, 2.1271157e-6
-0.273, 1.6317319e-6, 2.1447443e-6
-0.274, 1.5923683e-6, 2.1088604e-6
-0.275, 1.6279885e-6, 2.1013238e-6
-0.276, 1.6313691e-6, 2.0785337e-6
-0.277, 1.5905050e-6, 2.0611194e-6
-0.278, 1.6331171e-6, 2.0853608e-6
-0.279, 1.5764052e-6, 2.1186229e-6
-0.280, 1.6154224e-6, 2.1706348e-6
-0.281, 1.6027905e-6, 2.1094538e-6
-0.282, 1.5962767e-6, 2.0749221e-6
-0.283, 1.6374541e-6, 2.0893021e-6
-0.284, 1.5844528e-6, 2.0444309e-6
-0.285, 1.6204357e-6, 2.1085800e-6
-0.286, 1.5752180e-6, 2.1037645e-6
-0.287, 1.6037800e-6, 2.1291771e-6
-0.288, 1.6078038e-6, 2.1391211e-6
-0.289, 1.5807587e-6, 2.0839921e-6
-0.290, 1.6165438e-6, 2.0497243e-6
-0.291, 1.5635425e-6, 2.0345528e-6
-0.292, 1.6046044e-6, 2.0968221e-6
-0.293, 1.5707160e-6, 2.0856742e-6
-0.294, 1.5752344e-6, 2.1000872e-6
-0.295, 1.6000037e-6, 2.1091571e-6
-0.296, 1.5552146e-6, 2.0908853e-6
-0.297, 1.5955181e-6, 2.0574091e-6
-0.298, 1.5509600e-6, 2.0312382e-6
-0.299, 1.5837272e-6, 2.0813040e-6
-0.300, 1.5699078e-6, 2.1121914e-6
-0.301, 1.5626849e-6, 2.0980424e-6
-0.302, 1.5748387e-6, 2.0862019e-6
-0.303, 1.5346175e-6, 2.0827388e-6
-0.304, 1.5871078e-6, 2.0620923e-6
-0.305, 1.5579521e-6, 2.0290613e-6
-0.306, 1.5530543e-6, 2.0659843e-6
-0.307, 1.5709633e-6, 2.0913308e-6
-0.308, 1.5269658e-6, 2.0912480e-6
-0.309, 1.5679950e-6, 2.0707171e-6
-0.310, 1.5353597e-6, 2.0488503e-6
-0.311, 1.5565174e-6, 2.0322605e-6
-0.312, 1.5675002e-6, 2.0363502e-6
-0.313, 1.5425496e-6, 2.0499388e-6
-0.314, 1.5569462e-6, 2.0659018e-6
-0.315, 1.5169230e-6, 2.0831183e-6
-0.316, 1.5622891e-6, 2.0793582e-6
-0.317, 1.5382291e-6, 2.0517855e-6
-0.318, 1.5236842e-6, 2.0465745e-6
-0.319, 1.5574739e-6, 2.0192822e-6
-0.320, 1.5194627e-6, 2.0261259e-6
-0.321, 1.5404388e-6, 2.0533853e-6
-0.322, 1.4961611e-6, 2.0499056e-6
-0.323, 1.5308411e-6, 2.0718549e-6
-0.324, 1.5456170e-6, 2.0603773e-6
-0.325, 1.5266689e-6, 1.9886918e-6
-0.326, 1.5425991e-6, 2.0136920e-6
-0.327, 1.5083479e-6, 2.0657862e-6
-0.328, 1.5339249e-6, 2.0373232e-6
-0.329, 1.5229421e-6, 2.0563537e-6
-0.330, 1.5304289e-6, 2.0530390e-6
-0.331, 1.5461283e-6, 2.0462282e-6
-0.332, 1.5103102e-6, 2.0082664e-6
-0.333, 1.5407851e-6, 1.9642359e-6
-0.334, 1.4976783e-6, 2.0403577e-6
-0.335, 1.5224639e-6, 2.0441339e-6
-0.336, 1.5353926e-6, 2.0503510e-6
-0.337, 1.5020977e-6, 2.0348332e-6
-0.338, 1.5413789e-6, 2.0208490e-6
-0.339, 1.4874869e-6, 2.0009279e-6
-0.340, 1.5242285e-6, 1.9757795e-6
-0.341, 1.4933740e-6, 2.0272473e-6
-0.342, 1.5068966e-6, 2.0139228e-6
-0.343, 1.5300167e-6, 2.0584644e-6
-0.344, 1.4896636e-6, 2.0288635e-6
-0.345, 1.5234698e-6, 1.9983061e-6
-0.346, 1.4804947e-6, 2.0172704e-6
-0.347, 1.5202706e-6, 1.9759443e-6
-0.348, 1.4999704e-6, 2.0377850e-6
-0.349, 1.4968042e-6, 1.9879167e-6
-0.350, 1.5175660e-6, 2.0590746e-6
-0.351, 1.4788457e-6, 2.0457335e-6
-0.352, 1.5299343e-6, 2.0189523e-6
-0.353, 1.4852770e-6, 2.0131970e-6
-0.354, 1.5186711e-6, 1.9639226e-6
-0.355, 1.5228431e-6, 2.0629993e-6
-0.356, 1.4913787e-6, 2.0067657e-6
-0.357, 1.5103760e-6, 2.0372572e-6
-0.358, 1.4757454e-6, 2.0352288e-6
-0.359, 1.5243438e-6, 2.0184248e-6
-0.360, 1.4963591e-6, 2.0263569e-6
-0.361, 1.4913458e-6, 1.9410168e-6
-0.362, 1.5107388e-6, 2.0425343e-6
-0.363, 1.4712105e-6, 2.0130983e-6
-0.364, 1.5230740e-6, 2.0379334e-6
-0.365, 1.4691326e-6, 2.0247737e-6
-0.366, 1.4992778e-6, 2.0002026e-6
-0.367, 1.5207488e-6, 2.0449916e-6
-0.368, 1.4912304e-6, 1.9400275e-6
-0.369, 1.5181431e-6, 2.0174352e-6
-0.370, 1.4669888e-6, 2.0227453e-6
-0.371, 1.5209962e-6, 2.0173197e-6
-0.372, 1.4997561e-6, 2.0423365e-6
-0.373, 1.4833972e-6, 1.9985698e-6
-0.374, 1.5287964e-6, 2.0398793e-6
-0.375, 1.4802309e-6, 1.9409015e-6
-0.376, 1.5130806e-6, 1.9969209e-6
-0.377, 1.4669558e-6, 2.0163800e-6
-0.378, 1.5094361e-6, 2.0358884e-6
-0.379, 1.5044559e-6, 2.0622078e-6
-0.380, 1.4927639e-6, 1.9827057e-6
-0.381, 1.5199078e-6, 2.0373561e-6
-0.382, 1.4749703e-6, 1.9748727e-6
-0.383, 1.5306762e-6, 2.0327552e-6
-0.384, 1.4859697e-6, 2.0138898e-6
-0.385, 1.5078201e-6, 2.0259447e-6
-0.386, 1.5201222e-6, 2.0723496e-6
-0.387, 1.4870911e-6, 2.0004334e-6
-0.388, 1.5265535e-6, 2.0014063e-6
-0.389, 1.4697922e-6, 1.9435070e-6
-0.390, 1.5095021e-6, 2.0327223e-6
-0.391, 1.5109698e-6, 2.0258126e-6
-0.392, 1.4904552e-6, 2.0258456e-6
-0.393, 1.5219528e-6, 2.0501695e-6
-0.394, 1.4737830e-6, 2.0166437e-6
-0.395, 1.5221340e-6, 2.0169405e-6
-0.396, 1.4872891e-6, 1.9401593e-6
-0.397, 1.5178794e-6, 2.0124221e-6
-0.398, 1.5255641e-6, 2.0378179e-6
-0.399, 1.4811545e-6, 2.0340910e-6
-0.400, 1.5142184e-6, 2.0386260e-6
-0.401, 1.4707487e-6, 2.0077716e-6
-0.402, 1.5179124e-6, 2.0231741e-6
-0.403, 1.5032850e-6, 1.9776924e-6
-0.404, 1.4890700e-6, 2.0006146e-6
-0.405, 1.5273287e-6, 2.0332336e-6
-0.406, 1.4948913e-6, 2.0265215e-6
-0.407, 1.5248880e-6, 2.0425014e-6
-0.408, 1.4792415e-6, 1.9980421e-6
-0.409, 1.5205344e-6, 2.0181278e-6
-0.410, 1.5188854e-6, 2.0066173e-6
-0.411, 1.5000362e-6, 2.0219868e-6
-0.412, 1.5294725e-6, 2.0158191e-6
-0.413, 1.4814677e-6, 2.0513569e-6
-0.414, 1.5240305e-6, 2.0685732e-6
-0.415, 1.4982058e-6, 2.0260600e-6
-0.416, 1.5144988e-6, 1.9896813e-6
-0.417, 1.5207158e-6, 1.9756972e-6
-0.418, 1.4802969e-6, 2.0191669e-6
-0.419, 1.5271967e-6, 2.0311390e-6
-0.420, 1.4890204e-6, 2.0421219e-6
-0.421, 1.5210951e-6, 2.0390876e-6
-0.422, 1.5255312e-6, 2.0569310e-6
-0.423, 1.4986512e-6, 2.0008622e-6
-0.424, 1.5145154e-6, 1.9644008e-6
-0.425, 1.4894492e-6, 2.0470197e-6
-0.426, 1.5361677e-6, 2.0389557e-6
-0.427, 1.5109863e-6, 2.0568482e-6
-0.428, 1.4993437e-6, 2.0367461e-6
-0.429, 1.5363491e-6, 2.0462612e-6
-0.430, 1.4930442e-6, 2.0335467e-6
-0.431, 1.5377673e-6, 1.9725308e-6
-0.432, 1.4829518e-6, 2.0316174e-6
-0.433, 1.5200728e-6, 2.0236853e-6
-0.434, 1.5215073e-6, 2.0944308e-6
-0.435, 1.5074737e-6, 2.0135105e-6
-0.436, 1.5423848e-6, 2.0442328e-6
-0.437, 1.4950232e-6, 1.9959480e-6
-0.438, 1.5511248e-6, 1.9833324e-6
-0.439, 1.5139052e-6, 2.0381312e-6
-0.440, 1.5124540e-6, 2.0201564e-6
-0.441, 1.5346175e-6, 2.0760106e-6
-0.442, 1.4974803e-6, 2.0402586e-6
-0.443, 1.5364481e-6, 2.0063699e-6
-0.444, 1.5055114e-6, 2.0096845e-6
-0.445, 1.5173848e-6, 1.9949584e-6
-0.446, 1.5440999e-6, 2.0513075e-6
-0.447, 1.5053960e-6, 2.0011589e-6
-0.448, 1.5483380e-6, 2.0664293e-6
-0.449, 1.4929453e-6, 2.0520990e-6
-0.450, 1.5531039e-6, 2.0256643e-6
-0.451, 1.5159994e-6, 1.9934575e-6
-0.452, 1.5381302e-6, 1.9822605e-6
-0.453, 1.5445121e-6, 2.0685072e-6
-0.454, 1.4906697e-6, 2.0358061e-6
-0.455, 1.5490305e-6, 2.0397638e-6
-0.456, 1.5016524e-6, 2.0381312e-6
-0.457, 1.5454684e-6, 2.0514065e-6
-0.458, 1.5369593e-6, 2.0618286e-6
-0.459, 1.5116294e-6, 1.9616139e-6
-0.460, 1.5620913e-6, 2.0633292e-6
-0.461, 1.4996900e-6, 2.0167756e-6
-0.462, 1.5397627e-6, 2.0723496e-6
-0.463, 1.5108708e-6, 2.0533853e-6
-0.464, 1.5468372e-6, 2.0286984e-6
-0.465, 1.5463590e-6, 2.0489658e-6
-0.466, 1.5124209e-6, 1.9846846e-6
-0.467, 1.5380313e-6, 2.0457665e-6
-0.468, 1.4909499e-6, 2.0360369e-6
-0.469, 1.5577048e-6, 2.0618120e-6
-0.470, 1.5179123e-6, 2.0706675e-6
-0.471, 1.5270814e-6, 2.0045559e-6
-0.472, 1.5463095e-6, 2.0549685e-6
-0.473, 1.4983543e-6, 1.9932927e-6
-0.474, 1.5428795e-6, 2.0525276e-6
-0.475, 1.4988985e-6, 2.0378839e-6
-0.476, 1.5392185e-6, 2.0681116e-6
-0.477, 1.5434401e-6, 2.0970035e-6
-0.478, 1.5244923e-6, 2.0267362e-6
-0.479, 1.5510424e-6, 2.0371913e-6
-0.480, 1.5163953e-6, 2.0017856e-6
-0.481, 1.5431763e-6, 2.0661159e-6
-0.482, 1.5188689e-6, 2.0599816e-6
-0.483, 1.5338096e-6, 2.0659347e-6
-0.484, 1.5557588e-6, 2.1108722e-6
-0.485, 1.5185060e-6, 2.0544408e-6
-0.486, 1.5628664e-6, 2.0637581e-6
-0.487, 1.5175991e-6, 1.9996912e-6
-0.488, 1.5463427e-6, 2.0619275e-6
-0.489, 1.5446110e-6, 2.0969539e-6
-0.490, 1.5289777e-6, 2.0538964e-6
-0.491, 1.5616790e-6, 2.0785174e-6
-0.492, 1.5244427e-6, 2.0532698e-6
-0.493, 1.5717713e-6, 2.0364491e-6
-0.494, 1.5402080e-6, 2.0146813e-6
-0.495, 1.5328367e-6, 2.0604268e-6
-0.496, 1.5641691e-6, 2.0877519e-6
-0.497, 1.5318801e-6, 2.0618779e-6
-0.498, 1.5638889e-6, 2.0904895e-6
-0.499, 1.5133609e-6, 2.0598497e-6
-0.500, 1.5628498e-6, 2.0662810e-6
