Dec. 21, 2005   00:21:50
Square Wave Voltammetry
File: d:\ida_biofilms\12_10_18_dphzstar\a_760b\25um_pyo\a_25um_pyo_swvfast_1_3.txt
Data Source:  Experiment
Instrument Model:  CHI760E
Header: 
Note: 

Init E (V) = 0.1
Final E (V) = -0.5
Incr E (V) = 0.001
Amplitude (V) = 0.025
Frequency (Hz) = 300
Quiet Time (sec) = 2
Sensitivity (A/V) = 1e-6
Sens 2 (A/V) = 1e-6

Potential/V, i1/A, i2/A

0.099, 1.5233543e-6, 1.8248392e-6
0.098, 1.4190665e-6, 1.8961784e-6
0.097, 1.4494426e-6, 1.8591895e-6
0.096, 1.4683740e-6, 1.9417755e-6
0.095, 1.4438358e-6, 1.9227450e-6
0.094, 1.4896966e-6, 1.9714259e-6
0.093, 1.4247228e-6, 1.9667755e-6
0.092, 1.4690171e-6, 1.9797537e-6
0.091, 1.4642843e-6, 1.9877025e-6
0.090, 1.4517677e-6, 1.8930616e-6
0.089, 1.4861675e-6, 1.9886918e-6
0.088, 1.4429618e-6, 1.9674683e-6
0.087, 1.4841393e-6, 2.0209477e-6
0.086, 1.4432915e-6, 1.9724814e-6
0.085, 1.4751353e-6, 1.9572933e-6
0.084, 1.4820449e-6, 1.9967229e-6
0.083, 1.4548846e-6, 1.9031045e-6
0.082, 1.4731399e-6, 1.9760105e-6
0.081, 1.4342711e-6, 1.9499714e-6
0.080, 1.4705013e-6, 2.0166931e-6
0.079, 1.4626517e-6, 1.9763238e-6
0.078, 1.4572097e-6, 1.9370591e-6
0.077, 1.4770646e-6, 1.9572108e-6
0.076, 1.4360190e-6, 1.9200902e-6
0.075, 1.4693305e-6, 1.9738006e-6
0.074, 1.4376847e-6, 1.9662973e-6
0.073, 1.4668403e-6, 1.9968384e-6
0.072, 1.4730739e-6, 2.0003015e-6
0.071, 1.4456168e-6, 1.9633455e-6
0.070, 1.4710291e-6, 1.9019998e-6
0.069, 1.4213751e-6, 1.9291106e-6
0.068, 1.4706663e-6, 1.9881313e-6
0.067, 1.4416589e-6, 1.9876693e-6
0.066, 1.4456498e-6, 1.9880322e-6
0.065, 1.4734037e-6, 1.9569470e-6
0.064, 1.4411808e-6, 1.9436720e-6
0.063, 1.4664116e-6, 1.9147305e-6
0.062, 1.4335453e-6, 1.9573592e-6
0.061, 1.4541920e-6, 1.9543909e-6
0.060, 1.4598813e-6, 2.0050343e-6
0.059, 1.4366458e-6, 1.9696945e-6
0.058, 1.4546538e-6, 1.9375702e-6
0.057, 1.4089412e-6, 1.9464094e-6
0.056, 1.4752178e-6, 1.9041599e-6
0.055, 1.4316985e-6, 1.9605254e-6
0.054, 1.4411642e-6, 1.9191170e-6
0.053, 1.4538127e-6, 1.9857894e-6
0.052, 1.4090401e-6, 1.9604431e-6
0.051, 1.4563193e-6, 1.9358554e-6
0.050, 1.4082650e-6, 1.9244437e-6
0.049, 1.4483048e-6, 1.9275933e-6
0.048, 1.4414445e-6, 1.9669239e-6
0.047, 1.4293732e-6, 1.9347999e-6
0.046, 1.4477112e-6, 1.9810732e-6
0.045, 1.4134927e-6, 1.9496911e-6
0.044, 1.4527573e-6, 1.9315348e-6
0.043, 1.4195778e-6, 1.8966402e-6
0.042, 1.4270151e-6, 1.9132628e-6
0.041, 1.4450395e-6, 1.9561226e-6
0.040, 1.4074735e-6, 1.9578540e-6
0.039, 1.4530376e-6, 1.9847012e-6
0.038, 1.4013224e-6, 1.9070953e-6
0.037, 1.4350296e-6, 1.9228110e-6
0.036, 1.4246075e-6, 1.9014719e-6
0.035, 1.4216887e-6, 1.9199911e-6
0.034, 1.4265700e-6, 1.9388403e-6
0.033, 1.4023614e-6, 1.9515710e-6
0.032, 1.4499867e-6, 1.9416436e-6
0.031, 1.3989973e-6, 1.9206673e-6
0.030, 1.4163950e-6, 1.9049515e-6
0.029, 1.4283344e-6, 1.9135596e-6
0.028, 1.4127177e-6, 1.9285828e-6
0.027, 1.4355903e-6, 1.9305123e-6
0.026, 1.3867611e-6, 1.9262081e-6
0.025, 1.4233707e-6, 1.9470690e-6
0.024, 1.4210618e-6, 1.9479926e-6
0.023, 1.4052968e-6, 1.8890710e-6
0.022, 1.4299339e-6, 1.8949746e-6
0.021, 1.3887235e-6, 1.9148297e-6
0.020, 1.4359036e-6, 1.9252022e-6
0.019, 1.3965071e-6, 1.9467061e-6
0.018, 1.4190996e-6, 1.8920723e-6
0.017, 1.4310720e-6, 1.9473657e-6
0.016, 1.4115467e-6, 1.8401756e-6
0.015, 1.4349637e-6, 1.8927814e-6
0.014, 1.3872063e-6, 1.8983222e-6
0.013, 1.4200725e-6, 1.9516535e-6
0.012, 1.4091886e-6, 1.9382628e-6
0.011, 1.3937697e-6, 1.8831176e-6
0.010, 1.4315666e-6, 1.9309082e-6
0.009, 1.3890037e-6, 1.8560893e-6
0.008, 1.4279881e-6, 1.9161323e-6
0.007, 1.3811541e-6, 1.8919898e-6
0.006, 1.4253164e-6, 1.9218710e-6
0.005, 1.4118765e-6, 1.9525439e-6
0.004, 1.3970018e-6, 1.8866963e-6
0.003, 1.4205177e-6, 1.8996084e-6
0.002, 1.3829188e-6, 1.8490973e-6
0.001, 1.4187202e-6, 1.9285499e-6
-0.000, 1.3971502e-6, 1.9053473e-6
-0.001, 1.3946271e-6, 1.9208487e-6
-0.002, 1.4258443e-6, 1.9189029e-6
-0.003, 1.3837432e-6, 1.8871580e-6
-0.004, 1.4317645e-6, 1.8877681e-6
-0.005, 1.3786641e-6, 1.8390214e-6
-0.006, 1.3999537e-6, 1.8966566e-6
-0.007, 1.4000032e-6, 1.9388237e-6
-0.008, 1.3845843e-6, 1.9441502e-6
-0.009, 1.4140203e-6, 1.9056607e-6
-0.010, 1.3748381e-6, 1.8844701e-6
-0.011, 1.4172196e-6, 1.8743941e-6
-0.012, 1.3845347e-6, 1.8896317e-6
-0.013, 1.3885420e-6, 1.8735201e-6
-0.014, 1.4204188e-6, 1.9190018e-6
-0.015, 1.3713916e-6, 1.9352121e-6
-0.016, 1.4122559e-6, 1.8950570e-6
-0.017, 1.3649108e-6, 1.8812873e-6
-0.018, 1.4003494e-6, 1.8443313e-6
-0.019, 1.3996569e-6, 1.9321615e-6
-0.020, 1.3728759e-6, 1.8890049e-6
-0.021, 1.4060718e-6, 1.9020656e-6
-0.022, 1.3550163e-6, 1.9042259e-6
-0.023, 1.4098977e-6, 1.8895162e-6
-0.024, 1.3830836e-6, 1.8949911e-6
-0.025, 1.3960454e-6, 1.8106405e-6
-0.026, 1.4096338e-6, 1.9159675e-6
-0.027, 1.3621898e-6, 1.8832332e-6
-0.028, 1.4059893e-6, 1.9212280e-6
-0.029, 1.3619589e-6, 1.8953374e-6
-0.030, 1.4009927e-6, 1.8822767e-6
-0.031, 1.3968205e-6, 1.8832495e-6
-0.032, 1.3852109e-6, 1.8234541e-6
-0.033, 1.4018501e-6, 1.8841401e-6
-0.034, 1.3682419e-6, 1.8867127e-6
-0.035, 1.4057749e-6, 1.9268348e-6
-0.036, 1.3697426e-6, 1.9005486e-6
-0.037, 1.3915928e-6, 1.8718545e-6
-0.038, 1.4019656e-6, 1.8637741e-6
-0.039, 1.3514707e-6, 1.8410663e-6
-0.040, 1.4037466e-6, 1.8789622e-6
-0.041, 1.3512894e-6, 1.8888566e-6
-0.042, 1.3935718e-6, 1.9186389e-6
-0.043, 1.3874537e-6, 1.8881144e-6
-0.044, 1.3795216e-6, 1.8600965e-6
-0.045, 1.3989643e-6, 1.8320457e-6
-0.046, 1.3564675e-6, 1.8796545e-6
-0.047, 1.4016028e-6, 1.8945623e-6
-0.048, 1.3656198e-6, 1.8861190e-6
-0.049, 1.3638058e-6, 1.8978770e-6
-0.050, 1.4007617e-6, 1.8873889e-6
-0.051, 1.3637729e-6, 1.8557266e-6
-0.052, 1.3992941e-6, 1.8265873e-6
-0.053, 1.3447755e-6, 1.8765709e-6
-0.054, 1.3904385e-6, 1.8777582e-6
-0.055, 1.3764709e-6, 1.9161819e-6
-0.056, 1.3726449e-6, 1.8686884e-6
-0.057, 1.4042578e-6, 1.8787146e-6
-0.058, 1.3581659e-6, 1.8754330e-6
-0.059, 1.3951549e-6, 1.8418248e-6
-0.060, 1.3659333e-6, 1.8739488e-6
-0.061, 1.3833310e-6, 1.8629165e-6
-0.062, 1.3927307e-6, 1.9310235e-6
-0.063, 1.3675162e-6, 1.8718545e-6
-0.064, 1.3942973e-6, 1.8653736e-6
-0.065, 1.3577043e-6, 1.8207988e-6
-0.066, 1.3815005e-6, 1.8426823e-6
-0.067, 1.3785816e-6, 1.8802813e-6
-0.068, 1.3670710e-6, 1.8662972e-6
-0.069, 1.3899933e-6, 1.9383124e-6
-0.070, 1.3552142e-6, 1.8673691e-6
-0.071, 1.3938520e-6, 1.8663136e-6
-0.072, 1.3555770e-6, 1.8077053e-6
-0.073, 1.3901252e-6, 1.8486685e-6
-0.074, 1.3914610e-6, 1.8948427e-6
-0.075, 1.3587266e-6, 1.8865147e-6
-0.076, 1.3964741e-6, 1.9007794e-6
-0.077, 1.3440829e-6, 1.8610035e-6
-0.078, 1.3952373e-6, 1.8788795e-6
-0.079, 1.3718534e-6, 1.8276592e-6
-0.080, 1.3776250e-6, 1.8481572e-6
-0.081, 1.3962763e-6, 1.8662640e-6
-0.082, 1.3587926e-6, 1.8714093e-6
-0.083, 1.3976451e-6, 1.8950077e-6
-0.084, 1.3413784e-6, 1.8443643e-6
-0.085, 1.3842050e-6, 1.8537146e-6
-0.086, 1.3867775e-6, 1.8383453e-6
-0.087, 1.3613487e-6, 1.8566994e-6
-0.088, 1.3933739e-6, 1.8397468e-6
-0.089, 1.3507781e-6, 1.8730914e-6
-0.090, 1.3913456e-6, 1.8864159e-6
-0.091, 1.3550657e-6, 1.8597502e-6
-0.092, 1.3777571e-6, 1.8072435e-6
-0.093, 1.3984530e-6, 1.8231901e-6
-0.094, 1.3509430e-6, 1.8715905e-6
-0.095, 1.3812531e-6, 1.8716402e-6
-0.096, 1.3432253e-6, 1.8552482e-6
-0.097, 1.3770150e-6, 1.8694634e-6
-0.098, 1.3706166e-6, 1.8795392e-6
-0.099, 1.3669886e-6, 1.8393512e-6
-0.100, 1.3767511e-6, 1.8191004e-6
-0.101, 1.3498382e-6, 1.8508781e-6
-0.102, 1.3916258e-6, 1.8636586e-6
-0.103, 1.3638223e-6, 1.9009608e-6
-0.104, 1.3714410e-6, 1.8281373e-6
-0.105, 1.3839411e-6, 1.8685894e-6
-0.106, 1.3460452e-6, 1.8345359e-6
-0.107, 1.3911476e-6, 1.8236849e-6
-0.108, 1.3363816e-6, 1.8621415e-6
-0.109, 1.3766522e-6, 1.8709144e-6
-0.110, 1.3790929e-6, 1.9287313e-6
-0.111, 1.3636740e-6, 1.8590412e-6
-0.112, 1.3878330e-6, 1.8499052e-6
-0.113, 1.3447590e-6, 1.8082990e-6
-0.114, 1.3972822e-6, 1.8300834e-6
-0.115, 1.3554451e-6, 1.8711785e-6
-0.116, 1.3681924e-6, 1.8713104e-6
-0.117, 1.3820611e-6, 1.9367128e-6
-0.118, 1.3507122e-6, 1.8530550e-6
-0.119, 1.4006463e-6, 1.8552812e-6
-0.120, 1.3490630e-6, 1.8107892e-6
-0.121, 1.3921700e-6, 1.8448096e-6
-0.122, 1.3832815e-6, 1.8831506e-6
-0.123, 1.3678625e-6, 1.8568808e-6
-0.124, 1.3932585e-6, 1.8925668e-6
-0.125, 1.3443138e-6, 1.8515377e-6
-0.126, 1.4032848e-6, 1.8712608e-6
-0.127, 1.3518666e-6, 1.8039125e-6
-0.128, 1.3793072e-6, 1.8567819e-6
-0.129, 1.3882948e-6, 1.8623723e-6
-0.130, 1.3575558e-6, 1.8528901e-6
-0.131, 1.4026582e-6, 1.8708486e-6
-0.132, 1.3496568e-6, 1.8393347e-6
-0.133, 1.3946931e-6, 1.8731407e-6
-0.134, 1.3821931e-6, 1.8199084e-6
-0.135, 1.3701713e-6, 1.8326393e-6
-0.136, 1.3868271e-6, 1.8827714e-6
-0.137, 1.3536805e-6, 1.9048360e-6
-0.138, 1.3982221e-6, 1.8888070e-6
-0.139, 1.3605242e-6, 1.8316664e-6
-0.140, 1.3939675e-6, 1.8460958e-6
-0.141, 1.3932420e-6, 1.8240148e-6
-0.142, 1.3636904e-6, 1.8407859e-6
-0.143, 1.4010420e-6, 1.8481077e-6
-0.144, 1.3528230e-6, 1.8687542e-6
-0.145, 1.3855738e-6, 1.8936059e-6
-0.146, 1.3850295e-6, 1.8622404e-6
-0.147, 1.3784827e-6, 1.8340905e-6
-0.148, 1.4026252e-6, 1.8302153e-6
-0.149, 1.3610354e-6, 1.8681112e-6
-0.150, 1.3819458e-6, 1.8477449e-6
-0.151, 1.3629979e-6, 1.8853934e-6
-0.152, 1.3873382e-6, 1.8584310e-6
-0.153, 1.4038620e-6, 1.8716071e-6
-0.154, 1.3655374e-6, 1.8501031e-6
-0.155, 1.4028890e-6, 1.7958814e-6
-0.156, 1.3566982e-6, 1.8512080e-6
-0.157, 1.3862993e-6, 1.8798526e-6
-0.158, 1.3791587e-6, 1.9013399e-6
-0.159, 1.3823581e-6, 1.8586288e-6
-0.160, 1.4116786e-6, 1.8673854e-6
-0.161, 1.3695117e-6, 1.8127516e-6
-0.162, 1.4026747e-6, 1.8395820e-6
-0.163, 1.3651746e-6, 1.8512244e-6
-0.164, 1.3932255e-6, 1.8416763e-6
-0.165, 1.3941325e-6, 1.9262411e-6
-0.166, 1.3804286e-6, 1.8701064e-6
-0.167, 1.4091720e-6, 1.8391204e-6
-0.168, 1.3552966e-6, 1.8062705e-6
-0.169, 1.4148779e-6, 1.8198921e-6
-0.170, 1.3742281e-6, 1.8689191e-6
-0.171, 1.3863488e-6, 1.8500372e-6
-0.172, 1.4071437e-6, 1.9295062e-6
-0.173, 1.3614806e-6, 1.8718545e-6
-0.174, 1.4104583e-6, 1.8657695e-6
-0.175, 1.3693632e-6, 1.7981572e-6
-0.176, 1.4060718e-6, 1.8415940e-6
-0.177, 1.4014049e-6, 1.8786322e-6
-0.178, 1.3935223e-6, 1.8549844e-6
-0.179, 1.4048350e-6, 1.8965907e-6
-0.180, 1.3762069e-6, 1.8334804e-6
-0.181, 1.4291920e-6, 1.8558089e-6
-0.182, 1.3886246e-6, 1.8177482e-6
-0.183, 1.4129155e-6, 1.8497238e-6
-0.184, 1.4110850e-6, 1.8926329e-6
-0.185, 1.3770150e-6, 1.8842720e-6
-0.186, 1.4318140e-6, 1.9133290e-6
-0.187, 1.3781034e-6, 1.8431770e-6
-0.188, 1.4176812e-6, 1.8676988e-6
-0.189, 1.4194788e-6, 1.8426658e-6
-0.190, 1.4012894e-6, 1.8263399e-6
-0.191, 1.4165764e-6, 1.8643511e-6
-0.192, 1.3828362e-6, 1.8828046e-6
-0.193, 1.4335784e-6, 1.9043744e-6
-0.194, 1.3977769e-6, 1.8672206e-6
-0.195, 1.4095018e-6, 1.8760927e-6
-0.196, 1.4295547e-6, 1.8425833e-6
-0.197, 1.4090072e-6, 1.8804296e-6
-0.198, 1.4468536e-6, 1.8732397e-6
-0.199, 1.3900757e-6, 1.8929627e-6
-0.200, 1.4426649e-6, 1.9006968e-6
-0.201, 1.4265039e-6, 1.9011752e-6
-0.202, 1.4258773e-6, 1.8656375e-6
-0.203, 1.4485686e-6, 1.8427811e-6
-0.204, 1.4059565e-6, 1.8972009e-6
-0.205, 1.4561873e-6, 1.9033355e-6
-0.206, 1.4305606e-6, 1.9084971e-6
-0.207, 1.4456167e-6, 1.8919568e-6
-0.208, 1.4552144e-6, 1.9231575e-6
-0.209, 1.4410489e-6, 1.8861685e-6
-0.210, 1.4746406e-6, 1.8396315e-6
-0.211, 1.4286312e-6, 1.8983386e-6
-0.212, 1.4616128e-6, 1.9175836e-6
-0.213, 1.4600296e-6, 1.9371087e-6
-0.214, 1.4490963e-6, 1.9170063e-6
-0.215, 1.4781531e-6, 1.9299187e-6
-0.216, 1.4547692e-6, 1.9351628e-6
-0.217, 1.4925001e-6, 1.8802648e-6
-0.218, 1.4613984e-6, 1.9152087e-6
-0.219, 1.4931927e-6, 1.9204531e-6
-0.220, 1.4963096e-6, 1.9825407e-6
-0.221, 1.4690503e-6, 1.9308916e-6
-0.222, 1.5114645e-6, 1.9368777e-6
-0.223, 1.4783509e-6, 1.9066996e-6
-0.224, 1.5161972e-6, 1.9160993e-6
-0.225, 1.5127507e-6, 1.9653078e-6
-0.226, 1.4963919e-6, 1.9387576e-6
-0.227, 1.5414612e-6, 1.9740150e-6
-0.228, 1.4944790e-6, 1.9852948e-6
-0.229, 1.5494099e-6, 1.9658355e-6
-0.230, 1.5139876e-6, 1.9481408e-6
-0.231, 1.5407356e-6, 1.9240645e-6
-0.232, 1.5551982e-6, 1.9998067e-6
-0.233, 1.5353926e-6, 1.9721185e-6
-0.234, 1.5751685e-6, 2.0265218e-6
-0.235, 1.5271637e-6, 1.9891866e-6
-0.236, 1.5897463e-6, 2.0302487e-6
-0.237, 1.5604421e-6, 2.0026926e-6
-0.238, 1.5685887e-6, 1.9527420e-6
-0.239, 1.6064680e-6, 2.0393682e-6
-0.240, 1.5634766e-6, 2.0504003e-6
-0.241, 1.6207161e-6, 2.0881150e-6
-0.242, 1.5717053e-6, 2.0504003e-6
-0.243, 1.6257952e-6, 2.0328378e-6
-0.244, 1.6318804e-6, 2.0287646e-6
-0.245, 1.6147628e-6, 1.9989657e-6
-0.246, 1.6402743e-6, 2.0568814e-6
-0.247, 1.6041263e-6, 2.0598991e-6
-0.248, 1.6622234e-6, 2.1229434e-6
-0.249, 1.6291428e-6, 2.0677653e-6
-0.250, 1.6493935e-6, 2.0537809e-6
-0.251, 1.6688032e-6, 2.0707171e-6
-0.252, 1.6345683e-6, 2.0845198e-6
-0.253, 1.6805448e-6, 2.1018352e-6
-0.254, 1.6349476e-6, 2.1180952e-6
-0.255, 1.6817980e-6, 2.1263240e-6
-0.256, 1.6778072e-6, 2.1355258e-6
-0.257, 1.6856239e-6, 2.1089922e-6
-0.258, 1.6990969e-6, 2.0529894e-6
-0.259, 1.6638890e-6, 2.1314527e-6
-0.260, 1.7105250e-6, 2.1367791e-6
-0.261, 1.6904391e-6, 2.1560736e-6
-0.262, 1.7002346e-6, 2.1571122e-6
-0.263, 1.7256635e-6, 2.1532537e-6
-0.264, 1.6816331e-6, 2.1360866e-6
-0.265, 1.7263396e-6, 2.0959480e-6
-0.266, 1.6909505e-6, 2.1356909e-6
-0.267, 1.7163957e-6, 2.1355095e-6
-0.268, 1.7226787e-6, 2.2019674e-6
-0.269, 1.7043906e-6, 2.1274620e-6
-0.270, 1.7318146e-6, 2.1255985e-6
-0.271, 1.6934075e-6, 2.1327389e-6
-0.272, 1.7386583e-6, 2.0917098e-6
-0.273, 1.7005150e-6, 2.1514231e-6
-0.274, 1.7007460e-6, 2.1365979e-6
-0.275, 1.7276259e-6, 2.1904239e-6
-0.276, 1.6908516e-6, 2.1510602e-6
-0.277, 1.7328205e-6, 2.1408525e-6
-0.278, 1.6729425e-6, 2.1312383e-6
-0.279, 1.7124380e-6, 2.0936559e-6
-0.280, 1.7108052e-6, 2.1658857e-6
-0.281, 1.6886747e-6, 2.1094704e-6
-0.282, 1.7115310e-6, 2.1929800e-6
-0.283, 1.6632129e-6, 2.1336789e-6
-0.284, 1.7166926e-6, 2.1148794e-6
-0.285, 1.6674840e-6, 2.0545563e-6
-0.286, 1.6957492e-6, 2.0474322e-6
-0.287, 1.7008449e-6, 2.1293254e-6
-0.288, 1.6522301e-6, 2.0961788e-6
-0.289, 1.6882295e-6, 2.1418750e-6
-0.290, 1.6290934e-6, 2.0914460e-6
-0.291, 1.6656866e-6, 2.0912316e-6
-0.292, 1.6483712e-6, 2.0350474e-6
-0.293, 1.6402082e-6, 2.0258292e-6
-0.294, 1.6562373e-6, 2.0832665e-6
-0.295, 1.6065999e-6, 2.0713437e-6
-0.296, 1.6450072e-6, 2.1001038e-6
-0.297, 1.5985853e-6, 2.0212610e-6
-0.298, 1.6369102e-6, 2.0383127e-6
-0.299, 1.6300169e-6, 2.0012249e-6
-0.300, 1.5951059e-6, 2.0240318e-6
-0.301, 1.6078532e-6, 2.0168416e-6
-0.302, 1.5637569e-6, 2.0303146e-6
-0.303, 1.5937701e-6, 2.0710800e-6
-0.304, 1.5772463e-6, 2.0145164e-6
-0.305, 1.5682589e-6, 1.9896647e-6
-0.306, 1.5956665e-6, 1.9527583e-6
-0.307, 1.5346671e-6, 1.9633949e-6
-0.308, 1.5674673e-6, 2.0018019e-6
-0.309, 1.5238326e-6, 1.9864819e-6
-0.310, 1.5419561e-6, 1.9969209e-6
-0.311, 1.5524772e-6, 1.9777583e-6
-0.312, 1.5261413e-6, 1.9536158e-6
-0.313, 1.5551157e-6, 1.8916435e-6
-0.314, 1.5038622e-6, 1.9614654e-6
-0.315, 1.5253333e-6, 1.9608058e-6
-0.316, 1.4984862e-6, 1.9799518e-6
-0.317, 1.5053465e-6, 1.9470526e-6
-0.318, 1.5325727e-6, 1.9449087e-6
-0.319, 1.4848483e-6, 1.9511258e-6
-0.320, 1.5154058e-6, 1.8921382e-6
-0.321, 1.4651089e-6, 1.9352451e-6
-0.322, 1.4958972e-6, 1.9256970e-6
-0.323, 1.5041591e-6, 1.9655554e-6
-0.324, 1.4783014e-6, 1.9135928e-6
-0.325, 1.5002672e-6, 1.9044569e-6
-0.326, 1.4599473e-6, 1.8838268e-6
-0.327, 1.5003662e-6, 1.8648789e-6
-0.328, 1.4565171e-6, 1.9205354e-6
-0.329, 1.4623384e-6, 1.8710795e-6
-0.330, 1.4742448e-6, 1.9314357e-6
-0.331, 1.4371899e-6, 1.9190181e-6
-0.332, 1.4786478e-6, 1.8984211e-6
-0.333, 1.4246568e-6, 1.8991633e-6
-0.334, 1.4615798e-6, 1.8466401e-6
-0.335, 1.4541096e-6, 1.9238500e-6
-0.336, 1.4380804e-6, 1.8741302e-6
-0.337, 1.4661809e-6, 1.9092558e-6
-0.338, 1.4268667e-6, 1.8884443e-6
-0.339, 1.4652244e-6, 1.8945458e-6
-0.340, 1.4344359e-6, 1.8595194e-6
-0.341, 1.4436708e-6, 1.8313531e-6
-0.342, 1.4598813e-6, 1.9091403e-6
-0.343, 1.4123053e-6, 1.8905221e-6
-0.344, 1.4696603e-6, 1.9251199e-6
-0.345, 1.4142843e-6, 1.8986025e-6
-0.346, 1.4544063e-6, 1.8744765e-6
-0.347, 1.4435553e-6, 1.8563860e-6
-0.348, 1.4267679e-6, 1.8031043e-6
-0.349, 1.4510257e-6, 1.8837939e-6
-0.350, 1.3976120e-6, 1.8784178e-6
-0.351, 1.4469524e-6, 1.9249549e-6
-0.352, 1.4115963e-6, 1.8596843e-6
-0.353, 1.4198911e-6, 1.8787971e-6
-0.354, 1.4478595e-6, 1.8481736e-6
-0.355, 1.4174504e-6, 1.8003504e-6
-0.356, 1.4446769e-6, 1.8736191e-6
-0.357, 1.3811541e-6, 1.8874878e-6
-0.358, 1.4336445e-6, 1.9125043e-6
-0.359, 1.4316985e-6, 1.8883123e-6
-0.360, 1.4127176e-6, 1.8457165e-6
-0.361, 1.4452374e-6, 1.8179956e-6
-0.362, 1.3917248e-6, 1.8412146e-6
-0.363, 1.4391524e-6, 1.8883288e-6
-0.364, 1.4036145e-6, 1.8825241e-6
-0.365, 1.4387730e-6, 1.9029233e-6
-0.366, 1.4492612e-6, 1.8930123e-6
-0.367, 1.4171702e-6, 1.8398129e-6
-0.368, 1.4373219e-6, 1.8189521e-6
-0.369, 1.3979419e-6, 1.8529561e-6
-0.370, 1.4318470e-6, 1.8978275e-6
-0.371, 1.4185058e-6, 1.8885432e-6
-0.372, 1.4186378e-6, 1.8832661e-6
-0.373, 1.4335784e-6, 1.8714588e-6
-0.374, 1.4001681e-6, 1.8619435e-6
-0.375, 1.4293734e-6, 1.8249877e-6
-0.376, 1.4027901e-6, 1.8369600e-6
-0.377, 1.4299504e-6, 1.8747239e-6
-0.378, 1.4339578e-6, 1.9044239e-6
-0.379, 1.4018007e-6, 1.9099152e-6
-0.380, 1.4388720e-6, 1.8452713e-6
-0.381, 1.3931760e-6, 1.8539786e-6
-0.382, 1.4430111e-6, 1.8377186e-6
-0.383, 1.4195942e-6, 1.8667588e-6
-0.384, 1.4121240e-6, 1.8499052e-6
-0.385, 1.4457983e-6, 1.9042918e-6
-0.386, 1.4029551e-6, 1.8847173e-6
-0.387, 1.4415435e-6, 1.8698590e-6
-0.388, 1.3995415e-6, 1.8605913e-6
-0.389, 1.4417413e-6, 1.8063696e-6
-0.390, 1.4359861e-6, 1.8668247e-6
-0.391, 1.4112004e-6, 1.8572437e-6
-0.392, 1.4461940e-6, 1.8755816e-6
-0.393, 1.4012398e-6, 1.9111685e-6
-0.394, 1.4470679e-6, 1.8742786e-6
-0.395, 1.4188687e-6, 1.8738994e-6
-0.396, 1.4319459e-6, 1.8008286e-6
-0.397, 1.4394162e-6, 1.8989818e-6
-0.398, 1.3992610e-6, 1.8759113e-6
-0.399, 1.4404552e-6, 1.9064851e-6
-0.400, 1.3892346e-6, 1.8889059e-6
-0.401, 1.4290434e-6, 1.8601130e-6
-0.402, 1.4355244e-6, 1.8954527e-6
-0.403, 1.4229583e-6, 1.8106900e-6
-0.404, 1.4598318e-6, 1.8484045e-6
-0.405, 1.4023614e-6, 1.8643182e-6
-0.406, 1.4476616e-6, 1.9118611e-6
-0.407, 1.4225625e-6, 1.9237841e-6
-0.408, 1.4373549e-6, 1.8533847e-6
-0.409, 1.4428956e-6, 1.9059080e-6
-0.410, 1.4033178e-6, 1.8363828e-6
-0.411, 1.4614809e-6, 1.8755320e-6
-0.412, 1.4097162e-6, 1.8648789e-6
-0.413, 1.4383113e-6, 1.9005320e-6
-0.414, 1.4452704e-6, 1.9273295e-6
-0.415, 1.4277737e-6, 1.8509771e-6
-0.416, 1.4497393e-6, 1.8746249e-6
-0.417, 1.4192315e-6, 1.8478274e-6
-0.418, 1.4632288e-6, 1.8921546e-6
-0.419, 1.4244096e-6, 1.8994435e-6
-0.420, 1.4324900e-6, 1.8987016e-6
-0.421, 1.4654387e-6, 1.9589261e-6
-0.422, 1.4225295e-6, 1.8847174e-6
-0.423, 1.4738820e-6, 1.8947932e-6
-0.424, 1.4079517e-6, 1.8364323e-6
-0.425, 1.4622560e-6, 1.8897306e-6
-0.426, 1.4560223e-6, 1.9245263e-6
-0.427, 1.4355903e-6, 1.9064028e-6
-0.428, 1.4647954e-6, 1.9455024e-6
-0.429, 1.4261082e-6, 1.8822107e-6
-0.430, 1.4788621e-6, 1.8994272e-6
-0.431, 1.4458146e-6, 1.8369435e-6
-0.432, 1.4512071e-6, 1.8758452e-6
-0.433, 1.4607223e-6, 1.9316831e-6
-0.434, 1.4341063e-6, 1.9055287e-6
-0.435, 1.4728760e-6, 1.9457002e-6
-0.436, 1.4323746e-6, 1.8898460e-6
-0.437, 1.4773120e-6, 1.9213435e-6
-0.438, 1.4607058e-6, 1.8651758e-6
-0.439, 1.4517184e-6, 1.8891865e-6
-0.440, 1.4709301e-6, 1.9273955e-6
-0.441, 1.4345844e-6, 1.9503177e-6
-0.442, 1.4790601e-6, 1.9410500e-6
-0.443, 1.4423021e-6, 1.8834970e-6
-0.444, 1.4767679e-6, 1.9067985e-6
-0.445, 1.4843042e-6, 1.8835794e-6
-0.446, 1.4527077e-6, 1.8982892e-6
-0.447, 1.4812533e-6, 1.9028572e-6
-0.448, 1.4462270e-6, 1.9186059e-6
-0.449, 1.4735357e-6, 1.9808917e-6
-0.450, 1.4728100e-6, 1.9194470e-6
-0.451, 1.4607552e-6, 1.9034014e-6
-0.452, 1.4912962e-6, 1.8734542e-6
-0.453, 1.4509928e-6, 1.9215909e-6
-0.454, 1.4863821e-6, 1.9268348e-6
-0.455, 1.4489973e-6, 1.9377353e-6
-0.456, 1.4883939e-6, 1.9398626e-6
-0.457, 1.4873880e-6, 1.9385598e-6
-0.458, 1.4671207e-6, 1.9063864e-6
-0.459, 1.4925989e-6, 1.8668247e-6
-0.460, 1.4531861e-6, 1.9267195e-6
-0.461, 1.5005312e-6, 1.9429133e-6
-0.462, 1.4743932e-6, 1.9638567e-6
-0.463, 1.4926155e-6, 1.9285335e-6
-0.464, 1.5067151e-6, 1.9430290e-6
-0.465, 1.4643504e-6, 1.9338270e-6
-0.466, 1.5007290e-6, 1.8920061e-6
-0.467, 1.4702375e-6, 1.9328045e-6
-0.468, 1.4948582e-6, 1.9327385e-6
-0.469, 1.4892844e-6, 2.0112511e-6
-0.470, 1.4703694e-6, 1.9512909e-6
-0.471, 1.5022463e-6, 1.9251033e-6
-0.472, 1.4661973e-6, 1.9256311e-6
-0.473, 1.5074902e-6, 1.9071448e-6
-0.474, 1.4989480e-6, 1.9507302e-6
-0.475, 1.4862500e-6, 1.9134113e-6
-0.476, 1.5091064e-6, 1.9752024e-6
-0.477, 1.4579518e-6, 1.9631641e-6
-0.478, 1.5147957e-6, 1.9474649e-6
-0.479, 1.4776749e-6, 1.9382960e-6
-0.480, 1.5080344e-6, 1.9016368e-6
-0.481, 1.5156202e-6, 1.9936060e-6
-0.482, 1.4881795e-6, 1.9283355e-6
-0.483, 1.5113491e-6, 1.9871086e-6
-0.484, 1.4835291e-6, 1.9638403e-6
-0.485, 1.5239809e-6, 1.9515217e-6
-0.486, 1.4972163e-6, 1.9589424e-6
-0.487, 1.5060884e-6, 1.8887246e-6
-0.488, 1.5238491e-6, 2.0009279e-6
-0.489, 1.4692976e-6, 1.9661654e-6
-0.490, 1.5421539e-6, 1.9799352e-6
-0.491, 1.4808411e-6, 1.9787478e-6
-0.492, 1.5215073e-6, 1.9568811e-6
-0.493, 1.5260259e-6, 1.9861357e-6
-0.494, 1.5042581e-6, 1.9160993e-6
-0.495, 1.5274277e-6, 1.9841405e-6
-0.496, 1.4798682e-6, 1.9605257e-6
-0.497, 1.5325893e-6, 2.0168745e-6
-0.498, 1.5048846e-6, 1.9830024e-6
-0.499, 1.5175991e-6, 1.9814195e-6
-0.500, 1.5421209e-6, 1.9492295e-6
