Dec. 21, 2005   03:07:14
Square Wave Voltammetry
File: d:\ida_biofilms\12_10_18_dphzstar\a_760b\50um_pyo\a_50um_pyo_swvfast_6_5.txt
Data Source:  Experiment
Instrument Model:  CHI760E
Header: 
Note: 

Init E (V) = 0.1
Final E (V) = -0.5
Incr E (V) = 0.001
Amplitude (V) = 0.025
Frequency (Hz) = 300
Quiet Time (sec) = 2
Sensitivity (A/V) = 1e-6
Sens 2 (A/V) = 1e-6

Potential/V, i1/A, i2/A

0.099, 1.5336941e-6, 1.7936551e-6
0.098, 1.5125363e-6, 1.9338270e-6
0.097, 1.4721174e-6, 1.9326067e-6
0.096, 1.5148287e-6, 1.9646977e-6
0.095, 1.4749044e-6, 2.0183093e-6
0.094, 1.5163293e-6, 2.0127684e-6
0.093, 1.5148781e-6, 1.9982399e-6
0.092, 1.5056269e-6, 1.9728443e-6
0.091, 1.5406862e-6, 1.9576396e-6
0.090, 1.4955015e-6, 1.9530387e-6
0.089, 1.5364481e-6, 2.0105422e-6
0.088, 1.4879156e-6, 1.9931445e-6
0.087, 1.5273781e-6, 2.0247903e-6
0.086, 1.5284006e-6, 2.0425177e-6
0.085, 1.4951715e-6, 1.9666436e-6
0.084, 1.5319461e-6, 1.9933586e-6
0.083, 1.4861182e-6, 1.9376694e-6
0.082, 1.5149935e-6, 1.9941174e-6
0.081, 1.5218372e-6, 2.0073264e-6
0.080, 1.5011578e-6, 1.9737181e-6
0.079, 1.5403893e-6, 2.0344373e-6
0.078, 1.4853597e-6, 1.9976133e-6
0.077, 1.5273616e-6, 1.9942493e-6
0.076, 1.4793404e-6, 1.9786489e-6
0.075, 1.5091063e-6, 1.9527913e-6
0.074, 1.5215073e-6, 1.9584311e-6
0.073, 1.4782850e-6, 1.9907366e-6
0.072, 1.5105410e-6, 1.9766042e-6
0.071, 1.4777243e-6, 1.9987347e-6
0.070, 1.5149276e-6, 2.0128346e-6
0.069, 1.4920383e-6, 1.9856905e-6
0.068, 1.4948913e-6, 1.9799188e-6
0.067, 1.5157357e-6, 1.9452386e-6
0.066, 1.4812040e-6, 1.9699087e-6
0.065, 1.5161974e-6, 1.9989820e-6
0.064, 1.4556927e-6, 1.9738170e-6
0.063, 1.5131961e-6, 2.0170560e-6
0.062, 1.4869756e-6, 2.0293912e-6
0.061, 1.4837599e-6, 1.9571614e-6
0.060, 1.5026089e-6, 1.9726133e-6
0.059, 1.4628661e-6, 1.9218216e-6
0.058, 1.5065667e-6, 1.9484871e-6
0.057, 1.4747066e-6, 1.9772801e-6
0.056, 1.4763061e-6, 1.9490149e-6
0.055, 1.4913128e-6, 2.0087446e-6
0.054, 1.4641524e-6, 1.9927486e-6
0.053, 1.4969032e-6, 1.9583817e-6
0.052, 1.4619591e-6, 1.9577715e-6
0.051, 1.4859697e-6, 1.9237182e-6
0.050, 1.4849143e-6, 1.9461950e-6
0.049, 1.4802638e-6, 1.9479266e-6
0.048, 1.4750692e-6, 1.9603608e-6
0.047, 1.4450395e-6, 1.9936886e-6
0.046, 1.4857224e-6, 2.0268681e-6
0.045, 1.4667579e-6, 1.9487181e-6
0.044, 1.4594691e-6, 1.9563040e-6
0.043, 1.4846999e-6, 1.9560400e-6
0.042, 1.4591062e-6, 1.9085464e-6
0.041, 1.4939842e-6, 1.9642196e-6
0.040, 1.4375858e-6, 1.9551660e-6
0.039, 1.4807586e-6, 1.9805289e-6
0.038, 1.4831662e-6, 2.0384446e-6
0.037, 1.4581497e-6, 1.9504828e-6
0.036, 1.4911808e-6, 1.9607894e-6
0.035, 1.4389215e-6, 1.9438862e-6
0.034, 1.4860523e-6, 1.9216568e-6
0.033, 1.4632784e-6, 1.9482400e-6
0.032, 1.4486016e-6, 1.9397801e-6
0.031, 1.4808907e-6, 1.9862182e-6
0.030, 1.4450395e-6, 1.9785500e-6
0.029, 1.4711279e-6, 1.9714425e-6
0.028, 1.4264544e-6, 1.9274448e-6
0.027, 1.4674010e-6, 1.9569800e-6
0.026, 1.4577211e-6, 1.9076231e-6
0.025, 1.4446439e-6, 1.9053473e-6
0.024, 1.4711279e-6, 1.9615150e-6
0.023, 1.4313687e-6, 1.9404069e-6
0.022, 1.4644163e-6, 2.0087612e-6
0.021, 1.4359862e-6, 1.9382135e-6
0.020, 1.4703035e-6, 1.9259937e-6
0.019, 1.4740469e-6, 1.9561721e-6
0.018, 1.4240303e-6, 1.8898295e-6
0.017, 1.4646801e-6, 1.8900605e-6
0.016, 1.4298186e-6, 1.9358058e-6
0.015, 1.4518007e-6, 1.9539293e-6
0.014, 1.4548351e-6, 1.9588269e-6
0.013, 1.4342546e-6, 1.9528902e-6
0.012, 1.4704190e-6, 1.9505487e-6
0.011, 1.4164281e-6, 1.9227450e-6
0.010, 1.4671043e-6, 1.9322767e-6
0.009, 1.4129484e-6, 1.8804792e-6
0.008, 1.4552473e-6, 1.9128177e-6
0.007, 1.4428133e-6, 1.9496415e-6
0.006, 1.4193469e-6, 1.9483225e-6
0.005, 1.4575560e-6, 1.9474649e-6
0.004, 1.4073580e-6, 1.8968710e-6
0.003, 1.4688358e-6, 1.9229265e-6
0.002, 1.4271305e-6, 1.9395657e-6
0.001, 1.4248548e-6, 1.8505484e-6
-0.000, 1.4428463e-6, 1.9436720e-6
-0.001, 1.4035322e-6, 1.9347669e-6
-0.002, 1.4583147e-6, 1.9086951e-6
-0.003, 1.4142347e-6, 1.9300671e-6
-0.004, 1.4393502e-6, 1.9443314e-6
-0.005, 1.4333805e-6, 1.9309905e-6
-0.006, 1.4251023e-6, 1.9062708e-6
-0.007, 1.4460290e-6, 1.8690345e-6
-0.008, 1.4012401e-6, 1.8605747e-6
-0.009, 1.4502507e-6, 1.9431773e-6
-0.010, 1.4134762e-6, 1.9284344e-6
-0.011, 1.4303791e-6, 1.9197603e-6
-0.012, 1.4371404e-6, 1.9657202e-6
-0.013, 1.3947921e-6, 1.9026429e-6
-0.014, 1.4440666e-6, 1.9043249e-6
-0.015, 1.4020316e-6, 1.9122404e-6
-0.016, 1.4283178e-6, 1.8594205e-6
-0.017, 1.4296371e-6, 1.9506144e-6
-0.018, 1.4117115e-6, 1.8958651e-6
-0.019, 1.4282848e-6, 1.9320789e-6
-0.020, 1.3925987e-6, 1.9572767e-6
-0.021, 1.4395976e-6, 1.9297372e-6
-0.022, 1.4197262e-6, 1.9007630e-6
-0.023, 1.4127340e-6, 1.9036158e-6
-0.024, 1.4362499e-6, 1.8972503e-6
-0.025, 1.4123713e-6, 1.8887906e-6
-0.026, 1.4403231e-6, 1.9003342e-6
-0.027, 1.3795216e-6, 1.8904892e-6
-0.028, 1.4225296e-6, 1.9567822e-6
-0.029, 1.4221173e-6, 1.9492952e-6
-0.030, 1.4091225e-6, 1.8800504e-6
-0.031, 1.4430111e-6, 1.9086785e-6
-0.032, 1.3888059e-6, 1.8546382e-6
-0.033, 1.4436707e-6, 1.8656704e-6
-0.034, 1.4031859e-6, 1.8972999e-6
-0.035, 1.4120250e-6, 1.8921053e-6
-0.036, 1.4346998e-6, 1.9560730e-6
-0.037, 1.3946271e-6, 1.9004824e-6
-0.038, 1.4299010e-6, 1.8942160e-6
-0.039, 1.3942973e-6, 1.8717885e-6
-0.040, 1.4237829e-6, 1.8630649e-6
-0.041, 1.4170876e-6, 1.8614653e-6
-0.042, 1.3913290e-6, 1.8781210e-6
-0.043, 1.4254319e-6, 1.9127683e-6
-0.044, 1.3949734e-6, 1.8966732e-6
-0.045, 1.4270975e-6, 1.9478937e-6
-0.046, 1.3898944e-6, 1.8705516e-6
-0.047, 1.4238324e-6, 1.8835630e-6
-0.048, 1.4248053e-6, 1.8873229e-6
-0.049, 1.3844028e-6, 1.8497072e-6
-0.050, 1.4338918e-6, 1.8922535e-6
-0.051, 1.3764047e-6, 1.8957167e-6
-0.052, 1.4183739e-6, 1.9247900e-6
-0.053, 1.4043237e-6, 1.9481079e-6
-0.054, 1.4020810e-6, 1.8880320e-6
-0.055, 1.4344195e-6, 1.8976460e-6
-0.056, 1.3852605e-6, 1.8722172e-6
-0.057, 1.4222823e-6, 1.8505649e-6
-0.058, 1.3812861e-6, 1.8936223e-6
-0.059, 1.4097986e-6, 1.8816665e-6
-0.060, 1.4111015e-6, 1.9271151e-6
-0.061, 1.3910487e-6, 1.9298855e-6
-0.062, 1.4154056e-6, 1.8900603e-6
-0.063, 1.3800328e-6, 1.8681275e-6
-0.064, 1.4269326e-6, 1.8849812e-6
-0.065, 1.3856397e-6, 1.8456835e-6
-0.066, 1.3987499e-6, 1.8375372e-6
-0.067, 1.4181926e-6, 1.9043249e-6
-0.068, 1.3676317e-6, 1.8839753e-6
-0.069, 1.4099471e-6, 1.9270822e-6
-0.070, 1.3726450e-6, 1.8970029e-6
-0.071, 1.4060058e-6, 1.8814521e-6
-0.072, 1.4101120e-6, 1.9053638e-6
-0.073, 1.3976944e-6, 1.8150602e-6
-0.074, 1.4027571e-6, 1.8365972e-6
-0.075, 1.3743270e-6, 1.8867952e-6
-0.076, 1.4010751e-6, 1.8907859e-6
-0.077, 1.3911971e-6, 1.9097504e-6
-0.078, 1.4012564e-6, 1.8864158e-6
-0.079, 1.4045381e-6, 1.8949252e-6
-0.080, 1.3769820e-6, 1.8764060e-6
-0.081, 1.4185883e-6, 1.8300008e-6
-0.082, 1.3597986e-6, 1.8250206e-6
-0.083, 1.4043733e-6, 1.8853934e-6
-0.084, 1.4093370e-6, 1.8997899e-6
-0.085, 1.3906529e-6, 1.8731573e-6
-0.086, 1.4148944e-6, 1.9228276e-6
-0.087, 1.3632452e-6, 1.8546875e-6
-0.088, 1.4237829e-6, 1.8628341e-6
-0.089, 1.3938192e-6, 1.8473493e-6
-0.090, 1.3891192e-6, 1.8342224e-6
-0.091, 1.4159333e-6, 1.9148954e-6
-0.092, 1.3766522e-6, 1.8565016e-6
-0.093, 1.4103099e-6, 1.9068316e-6
-0.094, 1.3623712e-6, 1.9053967e-6
-0.095, 1.4048514e-6, 1.8944305e-6
-0.096, 1.4074735e-6, 1.8900273e-6
-0.097, 1.3928131e-6, 1.8539949e-6
-0.098, 1.4141523e-6, 1.8524779e-6
-0.099, 1.3768006e-6, 1.8780221e-6
-0.100, 1.4185059e-6, 1.8773294e-6
-0.101, 1.3783672e-6, 1.8871085e-6
-0.102, 1.4055111e-6, 1.9093052e-6
-0.103, 1.4155045e-6, 1.9126362e-6
-0.104, 1.3894655e-6, 1.8564685e-6
-0.105, 1.4092381e-6, 1.8756473e-6
-0.106, 1.3702703e-6, 1.8021314e-6
-0.107, 1.4056100e-6, 1.8942325e-6
-0.108, 1.3990797e-6, 1.8740973e-6
-0.109, 1.3891027e-6, 1.8696446e-6
-0.110, 1.4195612e-6, 1.9167755e-6
-0.111, 1.3670216e-6, 1.8863828e-6
-0.112, 1.4118435e-6, 1.8646811e-6
-0.113, 1.3895481e-6, 1.8578703e-6
-0.114, 1.4100956e-6, 1.8131802e-6
-0.115, 1.4225132e-6, 1.8723988e-6
-0.116, 1.3753164e-6, 1.8661322e-6
-0.117, 1.4134596e-6, 1.8558583e-6
-0.118, 1.3688850e-6, 1.9074582e-6
-0.119, 1.4204188e-6, 1.8988170e-6
-0.120, 1.3843699e-6, 1.8767358e-6
-0.121, 1.3926813e-6, 1.8451889e-6
-0.122, 1.4203033e-6, 1.8355747e-6
-0.123, 1.3815829e-6, 1.8411321e-6
-0.124, 1.4211773e-6, 1.8832661e-6
-0.125, 1.3570282e-6, 1.8721183e-6
-0.126, 1.4051483e-6, 1.8893347e-6
-0.127, 1.4077209e-6, 1.9235038e-6
-0.128, 1.3958970e-6, 1.8526263e-6
-0.129, 1.4158179e-6, 1.8508617e-6
-0.130, 1.3713421e-6, 1.8214751e-6
-0.131, 1.4207981e-6, 1.8396315e-6
-0.132, 1.3898778e-6, 1.8925834e-6
-0.133, 1.3959299e-6, 1.8371413e-6
-0.134, 1.4135256e-6, 1.9132463e-6
-0.135, 1.3805111e-6, 1.8830353e-6
-0.136, 1.4111345e-6, 1.8770161e-6
-0.137, 1.3797854e-6, 1.8649449e-6
-0.138, 1.4110850e-6, 1.8332165e-6
-0.139, 1.3950560e-6, 1.8593050e-6
-0.140, 1.4085454e-6, 1.8690180e-6
-0.141, 1.4051978e-6, 1.8644337e-6
-0.142, 1.3726284e-6, 1.8984213e-6
-0.143, 1.4175988e-6, 1.9181771e-6
-0.144, 1.3916753e-6, 1.8669239e-6
-0.145, 1.4101449e-6, 1.8655551e-6
-0.146, 1.4111345e-6, 1.8928142e-6
-0.147, 1.3854253e-6, 1.8260760e-6
-0.148, 1.4364479e-6, 1.8932925e-6
-0.149, 1.3709134e-6, 1.8752351e-6
-0.150, 1.4128494e-6, 1.8943974e-6
-0.151, 1.4103759e-6, 1.9416600e-6
-0.152, 1.3932090e-6, 1.8710134e-6
-0.153, 1.4277407e-6, 1.8803638e-6
-0.154, 1.3868435e-6, 1.8582826e-6
-0.155, 1.4261411e-6, 1.8326889e-6
-0.156, 1.4077704e-6, 1.8621579e-6
-0.157, 1.3937531e-6, 1.8623723e-6
-0.158, 1.4284499e-6, 1.9223821e-6
-0.159, 1.3942808e-6, 1.8948426e-6
-0.160, 1.4222493e-6, 1.8873889e-6
-0.161, 1.3813026e-6, 1.8570292e-6
-0.162, 1.4230902e-6, 1.8792423e-6
-0.163, 1.4188026e-6, 1.8415938e-6
-0.164, 1.3984695e-6, 1.8331011e-6
-0.165, 1.4250031e-6, 1.8867622e-6
-0.166, 1.3828857e-6, 1.8856738e-6
-0.167, 1.4316986e-6, 1.9044733e-6
-0.168, 1.3909166e-6, 1.8843546e-6
-0.169, 1.4271305e-6, 1.8677483e-6
-0.170, 1.4339248e-6, 1.8967391e-6
-0.171, 1.3957815e-6, 1.8189685e-6
-0.172, 1.4275099e-6, 1.8244599e-6
-0.173, 1.3950724e-6, 1.8732892e-6
-0.174, 1.4148119e-6, 1.9029067e-6
-0.175, 1.4127506e-6, 1.9103441e-6
-0.176, 1.4006133e-6, 1.8842886e-6
-0.177, 1.4317809e-6, 1.8635267e-6
-0.178, 1.3873052e-6, 1.8719865e-6
-0.179, 1.4343700e-6, 1.8442983e-6
-0.180, 1.3901581e-6, 1.8251195e-6
-0.181, 1.4167249e-6, 1.8744436e-6
-0.182, 1.4257289e-6, 1.9027582e-6
-0.183, 1.4003000e-6, 1.8906045e-6
-0.184, 1.4333971e-6, 1.9074416e-6
-0.185, 1.3880967e-6, 1.8923690e-6
-0.186, 1.4452539e-6, 1.8869600e-6
-0.187, 1.4005803e-6, 1.8948427e-6
-0.188, 1.4066160e-6, 1.8016696e-6
-0.189, 1.4341063e-6, 1.9125537e-6
-0.190, 1.3951549e-6, 1.8860367e-6
-0.191, 1.4307091e-6, 1.9142853e-6
-0.192, 1.3980243e-6, 1.9277088e-6
-0.193, 1.4336115e-6, 1.8954198e-6
-0.194, 1.4367447e-6, 1.9090576e-6
-0.195, 1.4339741e-6, 1.8676824e-6
-0.196, 1.4405871e-6, 1.8240806e-6
-0.197, 1.4109860e-6, 1.8811883e-6
-0.198, 1.4368932e-6, 1.9052484e-6
-0.199, 1.4069128e-6, 1.8919238e-6
-0.200, 1.4237828e-6, 1.9180288e-6
-0.201, 1.4309235e-6, 1.9232893e-6
-0.202, 1.4046701e-6, 1.8684409e-6
-0.203, 1.4457487e-6, 1.8855254e-6
-0.204, 1.4066325e-6, 1.8328044e-6
-0.205, 1.4423186e-6, 1.8534178e-6
-0.206, 1.4336279e-6, 1.9046217e-6
-0.207, 1.4276911e-6, 1.8753835e-6
-0.208, 1.4384432e-6, 1.9013235e-6
-0.209, 1.3966061e-6, 1.9050176e-6
-0.210, 1.4481893e-6, 1.8861851e-6
-0.211, 1.4271800e-6, 1.8923196e-6
-0.212, 1.4206331e-6, 1.8522964e-6
-0.213, 1.4461444e-6, 1.8808090e-6
-0.214, 1.4250527e-6, 1.8907365e-6
-0.215, 1.4410158e-6, 1.9066997e-6
-0.216, 1.4073746e-6, 1.9189192e-6
-0.217, 1.4452045e-6, 1.9206507e-6
-0.218, 1.4442151e-6, 1.9128177e-6
-0.219, 1.4255969e-6, 1.8678143e-6
-0.220, 1.4543405e-6, 1.8634937e-6
-0.221, 1.4149934e-6, 1.8362014e-6
-0.222, 1.4655872e-6, 1.9109377e-6
-0.223, 1.4261575e-6, 1.8868941e-6
-0.224, 1.4349966e-6, 1.9137246e-6
-0.225, 1.4626353e-6, 1.9431607e-6
-0.226, 1.4229913e-6, 1.8773128e-6
-0.227, 1.4632783e-6, 1.8940016e-6
-0.228, 1.4193963e-6, 1.8665280e-6
-0.229, 1.4513225e-6, 1.8647800e-6
-0.230, 1.4525593e-6, 1.9110696e-6
-0.231, 1.4328034e-6, 1.8782199e-6
-0.232, 1.4693800e-6, 1.9340907e-6
-0.233, 1.4213751e-6, 1.9441832e-6
-0.234, 1.4635917e-6, 1.9261256e-6
-0.235, 1.4411478e-6, 1.8691171e-6
-0.236, 1.4691985e-6, 1.8838599e-6
-0.237, 1.4642843e-6, 1.8670721e-6
-0.238, 1.4261411e-6, 1.8981409e-6
-0.239, 1.4583806e-6, 1.8924186e-6
-0.240, 1.4259597e-6, 1.9051988e-6
-0.241, 1.4633938e-6, 1.9644833e-6
-0.242, 1.4485190e-6, 1.9127517e-6
-0.243, 1.4404386e-6, 1.8723161e-6
-0.244, 1.4792250e-6, 1.8975636e-6
-0.245, 1.4177638e-6, 1.8403241e-6
-0.246, 1.4684069e-6, 1.9118943e-6
-0.247, 1.4226616e-6, 1.8945293e-6
-0.248, 1.4447592e-6, 1.9119930e-6
-0.249, 1.4643338e-6, 1.9685401e-6
-0.250, 1.4309070e-6, 1.9186882e-6
-0.251, 1.4665105e-6, 1.8856573e-6
-0.252, 1.4228100e-6, 1.8809410e-6
-0.253, 1.4701386e-6, 1.8455517e-6
-0.254, 1.4388554e-6, 1.9073923e-6
-0.255, 1.4369261e-6, 1.8802648e-6
-0.256, 1.4609037e-6, 1.9160334e-6
-0.257, 1.4211610e-6, 1.9459972e-6
-0.258, 1.4579849e-6, 1.9197932e-6
-0.259, 1.4212762e-6, 1.8816665e-6
-0.260, 1.4600627e-6, 1.8857727e-6
-0.261, 1.4613984e-6, 1.8743941e-6
-0.262, 1.4506628e-6, 1.8812541e-6
-0.263, 1.4545712e-6, 1.9054463e-6
-0.264, 1.4246075e-6, 1.8941665e-6
-0.265, 1.4720514e-6, 1.9399781e-6
-0.266, 1.4363819e-6, 1.9284507e-6
-0.267, 1.4430771e-6, 1.8845524e-6
-0.268, 1.4690007e-6, 1.9318645e-6
-0.269, 1.4244756e-6, 1.8354428e-6
-0.270, 1.4780541e-6, 1.8575735e-6
-0.271, 1.4207321e-6, 1.9028573e-6
-0.272, 1.4431926e-6, 1.9044403e-6
-0.273, 1.4603595e-6, 1.9451231e-6
-0.274, 1.4424339e-6, 1.8977945e-6
-0.275, 1.4646306e-6, 1.8863500e-6
-0.276, 1.4223153e-6, 1.8960300e-6
-0.277, 1.4808081e-6, 1.8385761e-6
-0.278, 1.4323416e-6, 1.8503836e-6
-0.279, 1.4353759e-6, 1.8925998e-6
-0.280, 1.4604419e-6, 1.9230915e-6
-0.281, 1.4273119e-6, 1.9101130e-6
-0.282, 1.4681926e-6, 1.9286983e-6
-0.283, 1.4045216e-6, 1.8739818e-6
-0.284, 1.4433574e-6, 1.8985530e-6
-0.285, 1.4487995e-6, 1.8755650e-6
-0.286, 1.4302473e-6, 1.8292424e-6
-0.287, 1.4582322e-6, 1.9288136e-6
-0.288, 1.4115137e-6, 1.8996909e-6
-0.289, 1.4605574e-6, 1.9267688e-6
-0.290, 1.4214412e-6, 1.9055452e-6
-0.291, 1.4434399e-6, 1.8709145e-6
-0.292, 1.4620580e-6, 1.9202716e-6
-0.293, 1.4122559e-6, 1.8280221e-6
-0.294, 1.4543405e-6, 1.8561057e-6
-0.295, 1.4126186e-6, 1.8616797e-6
-0.296, 1.4343866e-6, 1.9041270e-6
-0.297, 1.4306265e-6, 1.9315512e-6
-0.298, 1.4151253e-6, 1.8928143e-6
-0.299, 1.4592051e-6, 1.8869437e-6
-0.300, 1.4097822e-6, 1.8732231e-6
-0.301, 1.4453034e-6, 1.8336618e-6
-0.302, 1.4119920e-6, 1.8111517e-6
-0.303, 1.4404716e-6, 1.8827384e-6
-0.304, 1.4454353e-6, 1.8877186e-6
-0.305, 1.4122229e-6, 1.9026593e-6
-0.306, 1.4372395e-6, 1.8766204e-6
-0.307, 1.3979914e-6, 1.8637904e-6
-0.308, 1.4436873e-6, 1.8814027e-6
-0.309, 1.4285488e-6, 1.8235859e-6
-0.310, 1.4198416e-6, 1.8073260e-6
-0.311, 1.4536312e-6, 1.8943645e-6
-0.312, 1.3964907e-6, 1.8649778e-6
-0.313, 1.4505969e-6, 1.9265874e-6
-0.314, 1.3867282e-6, 1.8832168e-6
-0.315, 1.4225625e-6, 1.8590576e-6
-0.316, 1.4310554e-6, 1.8857232e-6
-0.317, 1.4147130e-6, 1.8160167e-6
-0.318, 1.4275098e-6, 1.8588762e-6
-0.319, 1.3841885e-6, 1.8594370e-6
-0.320, 1.4449241e-6, 1.8950900e-6
-0.321, 1.3993599e-6, 1.9253341e-6
-0.322, 1.4068797e-6, 1.8448425e-6
-0.323, 1.4249702e-6, 1.8811718e-6
-0.324, 1.3825559e-6, 1.8713268e-6
-0.325, 1.4245910e-6, 1.8108219e-6
-0.326, 1.3819457e-6, 1.8602120e-6
-0.327, 1.4118930e-6, 1.8660169e-6
-0.328, 1.4110520e-6, 1.9037477e-6
-0.329, 1.4102275e-6, 1.8823756e-6
-0.330, 1.4207651e-6, 1.8673525e-6
-0.331, 1.3912961e-6, 1.8541764e-6
-0.332, 1.4239642e-6, 1.8546216e-6
-0.333, 1.3951878e-6, 1.8109539e-6
-0.334, 1.4050329e-6, 1.8775274e-6
-0.335, 1.4124207e-6, 1.8894173e-6
-0.336, 1.3844193e-6, 1.8824745e-6
-0.337, 1.4287796e-6, 1.9152583e-6
-0.338, 1.3823745e-6, 1.8531705e-6
-0.339, 1.4195448e-6, 1.8491467e-6
-0.340, 1.4154880e-6, 1.8590576e-6
-0.341, 1.3986014e-6, 1.7737508e-6
-0.342, 1.4196107e-6, 1.8796381e-6
-0.343, 1.3751680e-6, 1.8480089e-6
-0.344, 1.4229748e-6, 1.8863004e-6
-0.345, 1.3912301e-6, 1.8932595e-6
-0.346, 1.3870084e-6, 1.8440840e-6
-0.347, 1.4276583e-6, 1.8875867e-6
-0.348, 1.3877504e-6, 1.7877679e-6
-0.349, 1.4233376e-6, 1.8393512e-6
-0.350, 1.3620413e-6, 1.8707660e-6
-0.351, 1.3967050e-6, 1.8698261e-6
-0.352, 1.4112334e-6, 1.9364984e-6
-0.353, 1.3934068e-6, 1.8483056e-6
-0.354, 1.4222492e-6, 1.8767853e-6
-0.355, 1.3810552e-6, 1.8513070e-6
-0.356, 1.4082486e-6, 1.8317819e-6
-0.357, 1.3942314e-6, 1.8208814e-6
-0.358, 1.4154220e-6, 1.8482561e-6
-0.359, 1.4177967e-6, 1.8817655e-6
-0.360, 1.3894490e-6, 1.8933914e-6
-0.361, 1.4280705e-6, 1.8363169e-6
-0.362, 1.3898942e-6, 1.8363498e-6
-0.363, 1.4113652e-6, 1.8528406e-6
-0.364, 1.4094524e-6, 1.8066004e-6
-0.365, 1.3935553e-6, 1.8523458e-6
-0.366, 1.4235850e-6, 1.8562542e-6
-0.367, 1.3769491e-6, 1.8731077e-6
-0.368, 1.4162961e-6, 1.9130484e-6
-0.369, 1.3813192e-6, 1.8683256e-6
-0.370, 1.4094360e-6, 1.8438529e-6
-0.371, 1.4253495e-6, 1.8808255e-6
-0.372, 1.3846338e-6, 1.8012573e-6
-0.373, 1.4274603e-6, 1.8646150e-6
-0.374, 1.3750196e-6, 1.8587442e-6
-0.375, 1.4252176e-6, 1.8899614e-6
-0.376, 1.3855242e-6, 1.9013070e-6
-0.377, 1.3871899e-6, 1.8399778e-6
-0.378, 1.4280211e-6, 1.8638235e-6
-0.379, 1.3792908e-6, 1.8023458e-6
-0.380, 1.4274767e-6, 1.8352615e-6
-0.381, 1.3775098e-6, 1.8663136e-6
-0.382, 1.4096173e-6, 1.8546710e-6
-0.383, 1.4231398e-6, 1.9055287e-6
-0.384, 1.3975625e-6, 1.8668247e-6
-0.385, 1.4130804e-6, 1.8519170e-6
-0.386, 1.3844689e-6, 1.8600141e-6
-0.387, 1.4269161e-6, 1.8214587e-6
-0.388, 1.4052803e-6, 1.8700074e-6
-0.389, 1.3979418e-6, 1.8351459e-6
-0.390, 1.4127177e-6, 1.9188203e-6
-0.391, 1.3787301e-6, 1.9135266e-6
-0.392, 1.4298515e-6, 1.8799021e-6
-0.393, 1.3949075e-6, 1.8585134e-6
-0.394, 1.4133277e-6, 1.8668909e-6
-0.395, 1.4116127e-6, 1.8544732e-6
-0.396, 1.4134432e-6, 1.8519336e-6
-0.397, 1.4095513e-6, 1.8714917e-6
-0.398, 1.3839411e-6, 1.9052979e-6
-0.399, 1.4351615e-6, 1.9096019e-6
-0.400, 1.4026252e-6, 1.8625042e-6
-0.401, 1.4096172e-6, 1.8748394e-6
-0.402, 1.4291918e-6, 1.8512410e-6
-0.403, 1.4001680e-6, 1.8181770e-6
-0.404, 1.4347493e-6, 1.8952219e-6
-0.405, 1.3773118e-6, 1.8694964e-6
-0.406, 1.4209464e-6, 1.8921712e-6
-0.407, 1.4105904e-6, 1.9216236e-6
-0.408, 1.4054947e-6, 1.8409013e-6
-0.409, 1.4269822e-6, 1.8797041e-6
-0.410, 1.3854748e-6, 1.8051658e-6
-0.411, 1.4499043e-6, 1.9019008e-6
-0.412, 1.4018171e-6, 1.8806277e-6
-0.413, 1.4093039e-6, 1.8816171e-6
-0.414, 1.4424504e-6, 1.9632134e-6
-0.415, 1.4056264e-6, 1.8732562e-6
-0.416, 1.4426978e-6, 1.8595690e-6
-0.417, 1.4036476e-6, 1.8599318e-6
-0.418, 1.4258443e-6, 1.8518842e-6
-0.419, 1.4219689e-6, 1.8987344e-6
-0.420, 1.4097989e-6, 1.8559078e-6
-0.421, 1.4472164e-6, 1.9225636e-6
-0.422, 1.3891192e-6, 1.9218053e-6
-0.423, 1.4348318e-6, 1.8965411e-6
-0.424, 1.4009102e-6, 1.8672041e-6
-0.425, 1.4301813e-6, 1.8378009e-6
-0.426, 1.4506629e-6, 1.8649614e-6
-0.427, 1.4009761e-6, 1.8853934e-6
-0.428, 1.4319459e-6, 1.8793908e-6
-0.429, 1.3997228e-6, 1.9246415e-6
-0.430, 1.4374208e-6, 1.9164952e-6
-0.431, 1.4465567e-6, 1.8992953e-6
-0.432, 1.4192809e-6, 1.8448426e-6
-0.433, 1.4565501e-6, 1.8310398e-6
-0.434, 1.4087764e-6, 1.9011751e-6
-0.435, 1.4473483e-6, 1.9032200e-6
-0.436, 1.4158672e-6, 1.9026098e-6
-0.437, 1.4388061e-6, 1.9212443e-6
-0.438, 1.4548680e-6, 1.8997735e-6
-0.439, 1.4152406e-6, 1.8839423e-6
-0.440, 1.4541424e-6, 1.8481078e-6
-0.441, 1.4262235e-6, 1.8619766e-6
-0.442, 1.4492282e-6, 1.9157696e-6
-0.443, 1.4175164e-6, 1.9109707e-6
-0.444, 1.4264378e-6, 1.9242621e-6
-0.445, 1.4555771e-6, 1.9329034e-6
-0.446, 1.4203694e-6, 1.8914620e-6
-0.447, 1.4529716e-6, 1.9121744e-6
-0.448, 1.4077374e-6, 1.8414124e-6
-0.449, 1.4502341e-6, 1.9166105e-6
-0.450, 1.4447593e-6, 1.9306608e-6
-0.451, 1.4269656e-6, 1.9171052e-6
-0.452, 1.4562038e-6, 1.9414292e-6
-0.453, 1.4210618e-6, 1.8864655e-6
-0.454, 1.4670384e-6, 1.9106737e-6
-0.455, 1.4396635e-6, 1.8905055e-6
-0.456, 1.4454024e-6, 1.8341730e-6
-0.457, 1.4496075e-6, 1.9382135e-6
-0.458, 1.4110685e-6, 1.9158686e-6
-0.459, 1.4644327e-6, 1.9367953e-6
-0.460, 1.4202374e-6, 1.9280387e-6
-0.461, 1.4497230e-6, 1.8978275e-6
-0.462, 1.4571108e-6, 1.9331674e-6
-0.463, 1.4456332e-6, 1.8456012e-6
-0.464, 1.4600955e-6, 1.9137906e-6
-0.465, 1.4195118e-6, 1.9171052e-6
-0.466, 1.4720019e-6, 1.9397967e-6
-0.467, 1.4503496e-6, 1.9677486e-6
-0.468, 1.4404716e-6, 1.9386587e-6
-0.469, 1.4773286e-6, 1.9438039e-6
-0.470, 1.4503166e-6, 1.8927153e-6
-0.471, 1.4820449e-6, 1.8718545e-6
-0.472, 1.4302967e-6, 1.9254992e-6
-0.473, 1.4632784e-6, 1.9344370e-6
-0.474, 1.4608212e-6, 1.9751528e-6
-0.475, 1.4476121e-6, 1.9394668e-6
-0.476, 1.4723483e-6, 1.9386753e-6
-0.477, 1.4323252e-6, 1.9207332e-6
-0.478, 1.4874868e-6, 1.8874053e-6
-0.479, 1.4436213e-6, 1.9200243e-6
-0.480, 1.4618107e-6, 1.9331674e-6
-0.481, 1.4764380e-6, 1.9749220e-6
-0.482, 1.4420052e-6, 1.9679301e-6
-0.483, 1.4789281e-6, 1.9458487e-6
-0.484, 1.4517678e-6, 1.9011093e-6
-0.485, 1.4734696e-6, 1.9451891e-6
-0.486, 1.4675495e-6, 1.8999879e-6
-0.487, 1.4574572e-6, 1.9364820e-6
-0.488, 1.4815502e-6, 1.9496415e-6
-0.489, 1.4391359e-6, 1.9537972e-6
-0.490, 1.4847164e-6, 1.9635763e-6
-0.491, 1.4540601e-6, 1.9057761e-6
-0.492, 1.4863160e-6, 1.9473164e-6
-0.493, 1.4891029e-6, 1.9241468e-6
-0.494, 1.4512896e-6, 1.9231904e-6
-0.495, 1.4950728e-6, 1.9556112e-6
-0.496, 1.4379816e-6, 1.9663139e-6
-0.497, 1.4832322e-6, 2.0122570e-6
-0.498, 1.4687533e-6, 1.9711788e-6
-0.499, 1.4765865e-6, 1.9350966e-6
-0.500, 1.5008610e-6, 1.9651759e-6
