Dec. 21, 2005   06:34:30
Square Wave Voltammetry
File: d:\ida_biofilms\12_10_18_dphzstar\a_760b\75um_pyo\a_75um_pyo_swvfast_5_2.txt
Data Source:  Experiment
Instrument Model:  CHI760E
Header: 
Note: 

Init E (V) = 0.1
Final E (V) = -0.5
Incr E (V) = 0.001
Amplitude (V) = 0.025
Frequency (Hz) = 300
Quiet Time (sec) = 2
Sensitivity (A/V) = 1e-6
Sens 2 (A/V) = 1e-6

Potential/V, i1/A, i2/A

0.099, 1.5701717e-6, 1.8181935e-6
0.098, 1.5319295e-6, 1.9592558e-6
0.097, 1.5550002e-6, 2.0068153e-6
0.096, 1.5315338e-6, 1.9910005e-6
0.095, 1.5631631e-6, 2.0215416e-6
0.094, 1.5324573e-6, 1.9790282e-6
0.093, 1.5565008e-6, 2.0325904e-6
0.092, 1.5628664e-6, 1.9773131e-6
0.091, 1.5442977e-6, 1.9517195e-6
0.090, 1.5842713e-6, 2.0461623e-6
0.089, 1.5187039e-6, 2.0248067e-6
0.088, 1.5665273e-6, 2.0693153e-6
0.087, 1.5397462e-6, 2.0310731e-6
0.086, 1.5702212e-6, 2.0306279e-6
0.085, 1.5628003e-6, 2.0476793e-6
0.084, 1.5298847e-6, 1.9772638e-6
0.083, 1.5683413e-6, 2.0288303e-6
0.082, 1.5201222e-6, 2.0254004e-6
0.081, 1.5658181e-6, 2.0603115e-6
0.080, 1.5401090e-6, 2.0704699e-6
0.079, 1.5321109e-6, 1.9887084e-6
0.078, 1.5784667e-6, 2.0277585e-6
0.077, 1.5223978e-6, 1.9554957e-6
0.076, 1.5742780e-6, 1.9833487e-6
0.075, 1.5095021e-6, 2.0209150e-6
0.074, 1.5480082e-6, 2.0218054e-6
0.073, 1.5577707e-6, 2.1046387e-6
0.072, 1.5226124e-6, 2.0318316e-6
0.071, 1.5563194e-6, 2.0081345e-6
0.070, 1.5078365e-6, 2.0167756e-6
0.069, 1.5582818e-6, 1.9744273e-6
0.068, 1.5192976e-6, 2.0381808e-6
0.067, 1.5143174e-6, 1.9858553e-6
0.066, 1.5404883e-6, 2.0541934e-6
0.065, 1.5002837e-6, 2.0426662e-6
0.064, 1.5370912e-6, 2.0047044e-6
0.063, 1.5122725e-6, 1.9958652e-6
0.062, 1.5255641e-6, 1.9511754e-6
0.061, 1.5253497e-6, 2.0007467e-6
0.060, 1.5220846e-6, 2.0012412e-6
0.059, 1.5216228e-6, 2.0029399e-6
0.058, 1.5005639e-6, 2.0221846e-6
0.057, 1.5335787e-6, 2.0184743e-6
0.056, 1.5095352e-6, 2.0016205e-6
0.055, 1.5165108e-6, 1.9658355e-6
0.054, 1.5338426e-6, 1.9798529e-6
0.053, 1.4848483e-6, 2.0020329e-6
0.052, 1.5263556e-6, 2.0084149e-6
0.051, 1.4864315e-6, 2.0016701e-6
0.050, 1.5146308e-6, 2.0409182e-6
0.049, 1.5287964e-6, 2.0324751e-6
0.048, 1.5052640e-6, 1.9787149e-6
0.047, 1.5222495e-6, 1.9538631e-6
0.046, 1.4856894e-6, 1.9748559e-6
0.045, 1.5277574e-6, 2.0072439e-6
0.044, 1.4854586e-6, 2.0081509e-6
0.043, 1.4904717e-6, 2.0426332e-6
0.042, 1.5113161e-6, 2.0133787e-6
0.041, 1.4897627e-6, 1.9629497e-6
0.040, 1.5352277e-6, 1.9886425e-6
0.039, 1.4675165e-6, 1.9230254e-6
0.038, 1.5152079e-6, 1.9886588e-6
0.037, 1.5142680e-6, 2.0106577e-6
0.036, 1.4946934e-6, 1.9844867e-6
0.035, 1.5175826e-6, 2.0534346e-6
0.034, 1.4713919e-6, 1.9655386e-6
0.033, 1.5207984e-6, 1.9937215e-6
0.032, 1.4841557e-6, 1.9367953e-6
0.031, 1.5037963e-6, 1.9238996e-6
0.030, 1.5160654e-6, 2.0164130e-6
0.029, 1.4817811e-6, 1.9455190e-6
0.028, 1.5101288e-6, 1.9839756e-6
0.027, 1.4638555e-6, 1.9661820e-6
0.026, 1.4945449e-6, 1.9849979e-6
0.025, 1.4920713e-6, 1.9707993e-6
0.024, 1.4766028e-6, 1.8987510e-6
0.023, 1.5138556e-6, 1.9833490e-6
0.022, 1.4603595e-6, 1.9722670e-6
0.021, 1.4997891e-6, 1.9866304e-6
0.020, 1.4690172e-6, 1.9827553e-6
0.019, 1.5045053e-6, 1.9866634e-6
0.018, 1.4993439e-6, 1.9823101e-6
0.017, 1.4659499e-6, 1.9217887e-6
0.016, 1.5071439e-6, 1.9122735e-6
0.015, 1.4487171e-6, 1.9695460e-6
0.014, 1.4930938e-6, 1.9697604e-6
0.013, 1.4800989e-6, 1.9894339e-6
0.012, 1.4737336e-6, 1.9520987e-6
0.011, 1.5049836e-6, 1.9626696e-6
0.010, 1.4563193e-6, 1.9360202e-6
0.009, 1.4985358e-6, 1.9123725e-6
0.008, 1.4605409e-6, 1.9645163e-6
0.007, 1.4800989e-6, 1.9450572e-6
0.006, 1.4821273e-6, 2.0026760e-6
0.005, 1.4612006e-6, 1.9772801e-6
0.004, 1.4813688e-6, 1.9279892e-6
0.003, 1.4394492e-6, 1.9433587e-6
0.002, 1.4987995e-6, 1.9066335e-6
0.001, 1.4472329e-6, 1.9094205e-6
-0.000, 1.4670547e-6, 1.9212612e-6
-0.001, 1.4732553e-6, 1.9650440e-6
-0.002, 1.4314841e-6, 1.9676165e-6
-0.003, 1.4816985e-6, 1.9596187e-6
-0.004, 1.4300824e-6, 1.9180452e-6
-0.005, 1.4701880e-6, 1.9181934e-6
-0.006, 1.4757125e-6, 1.9225968e-6
-0.007, 1.4618272e-6, 1.9440181e-6
-0.008, 1.4716227e-6, 1.9398956e-6
-0.009, 1.4364808e-6, 1.9654562e-6
-0.010, 1.4821437e-6, 1.9901431e-6
-0.011, 1.4409168e-6, 1.9476629e-6
-0.012, 1.4646965e-6, 1.9285169e-6
-0.013, 1.4654387e-6, 1.9082167e-6
-0.014, 1.4205343e-6, 1.9218546e-6
-0.015, 1.4695613e-6, 1.9525935e-6
-0.016, 1.4373218e-6, 1.9244767e-6
-0.017, 1.4616624e-6, 1.9764720e-6
-0.018, 1.4564841e-6, 1.9811059e-6
-0.019, 1.4543898e-6, 1.9098989e-6
-0.020, 1.4739974e-6, 1.9472175e-6
-0.021, 1.4311379e-6, 1.8958815e-6
-0.022, 1.4775594e-6, 1.9430947e-6
-0.023, 1.4349966e-6, 1.9264226e-6
-0.024, 1.4372723e-6, 1.9529232e-6
-0.025, 1.4663457e-6, 1.9841405e-6
-0.026, 1.4348482e-6, 1.9131310e-6
-0.027, 1.4777409e-6, 1.9347669e-6
-0.028, 1.4189345e-6, 1.8752517e-6
-0.029, 1.4620912e-6, 1.9344866e-6
-0.030, 1.4519657e-6, 1.9532861e-6
-0.031, 1.4399604e-6, 1.9298031e-6
-0.032, 1.4716722e-6, 1.9989657e-6
-0.033, 1.4259927e-6, 1.9453541e-6
-0.034, 1.4855739e-6, 1.9208321e-6
-0.035, 1.4426154e-6, 1.8792093e-6
-0.036, 1.4583970e-6, 1.8720855e-6
-0.037, 1.4696768e-6, 1.9631475e-6
-0.038, 1.4221339e-6, 1.9033683e-6
-0.039, 1.4728100e-6, 1.9484214e-6
-0.040, 1.4046370e-6, 1.9184904e-6
-0.041, 1.4500363e-6, 1.9384443e-6
-0.042, 1.4492941e-6, 1.9263234e-6
-0.043, 1.4280046e-6, 1.8497568e-6
-0.044, 1.4690831e-6, 1.9505651e-6
-0.045, 1.4030045e-6, 1.9224649e-6
-0.046, 1.4506795e-6, 1.9568647e-6
-0.047, 1.4223976e-6, 1.9305780e-6
-0.048, 1.4591392e-6, 1.9023460e-6
-0.049, 1.4544557e-6, 1.9573592e-6
-0.050, 1.4254979e-6, 1.8725800e-6
-0.051, 1.4649769e-6, 1.8923031e-6
-0.052, 1.4144655e-6, 1.9231243e-6
-0.053, 1.4437038e-6, 1.9281540e-6
-0.054, 1.4328858e-6, 1.9643019e-6
-0.055, 1.4230079e-6, 1.9062543e-6
-0.056, 1.4689017e-6, 1.9136257e-6
-0.057, 1.4168073e-6, 1.9101130e-6
-0.058, 1.4548846e-6, 1.8757135e-6
-0.059, 1.4121568e-6, 1.9187707e-6
-0.060, 1.4325066e-6, 1.8946117e-6
-0.061, 1.4462598e-6, 1.9531542e-6
-0.062, 1.4180441e-6, 1.9299846e-6
-0.063, 1.4521471e-6, 1.8987346e-6
-0.064, 1.3997723e-6, 1.9025933e-6
-0.065, 1.4534664e-6, 1.8669236e-6
-0.066, 1.4210455e-6, 1.9182596e-6
-0.067, 1.4191985e-6, 1.8825734e-6
-0.068, 1.4483871e-6, 1.9459972e-6
-0.069, 1.4070777e-6, 1.9392194e-6
-0.070, 1.4522955e-6, 1.9017193e-6
-0.071, 1.4014214e-6, 1.8904066e-6
-0.072, 1.4472494e-6, 1.8529890e-6
-0.073, 1.4370580e-6, 1.8868445e-6
-0.074, 1.4277572e-6, 1.9013730e-6
-0.075, 1.4369756e-6, 1.8993776e-6
-0.076, 1.4036146e-6, 1.9421877e-6
-0.077, 1.4413952e-6, 1.9214917e-6
-0.078, 1.4182749e-6, 1.9198924e-6
-0.079, 1.4258278e-6, 1.8642853e-6
-0.080, 1.4477275e-6, 1.8864653e-6
-0.081, 1.3897294e-6, 1.9175341e-6
-0.082, 1.4437038e-6, 1.9051165e-6
-0.083, 1.4132947e-6, 1.9209147e-6
-0.084, 1.4397460e-6, 1.9140380e-6
-0.085, 1.4301648e-6, 1.9237345e-6
-0.086, 1.4254484e-6, 1.8933586e-6
-0.087, 1.4397131e-6, 1.8556441e-6
-0.088, 1.3997394e-6, 1.8789291e-6
-0.089, 1.4396471e-6, 1.9233717e-6
-0.090, 1.4122229e-6, 1.9105419e-6
-0.091, 1.4151253e-6, 1.9414788e-6
-0.092, 1.4469854e-6, 1.9422373e-6
-0.093, 1.4133277e-6, 1.8871085e-6
-0.094, 1.4462435e-6, 1.8595524e-6
-0.095, 1.3907024e-6, 1.8496248e-6
-0.096, 1.4383113e-6, 1.9134279e-6
-0.097, 1.4350131e-6, 1.9184411e-6
-0.098, 1.4270811e-6, 1.8981739e-6
-0.099, 1.4461775e-6, 1.9397637e-6
-0.100, 1.4092544e-6, 1.8942820e-6
-0.101, 1.4432090e-6, 1.9072273e-6
-0.102, 1.4185059e-6, 1.8401427e-6
-0.103, 1.4306761e-6, 1.8987180e-6
-0.104, 1.4481398e-6, 1.9271811e-6
-0.105, 1.4177308e-6, 1.9025438e-6
-0.106, 1.4383443e-6, 1.9182762e-6
-0.107, 1.3865797e-6, 1.8733388e-6
-0.108, 1.4283014e-6, 1.9159675e-6
-0.109, 1.4303462e-6, 1.8535827e-6
-0.110, 1.4200725e-6, 1.8550339e-6
-0.111, 1.4529880e-6, 1.9192162e-6
-0.112, 1.3972492e-6, 1.9111026e-6
-0.113, 1.4435388e-6, 1.9450076e-6
-0.114, 1.4046041e-6, 1.8730254e-6
-0.115, 1.4406036e-6, 1.9059739e-6
-0.116, 1.4397460e-6, 1.8954198e-6
-0.117, 1.4079353e-6, 1.8476790e-6
-0.118, 1.4466227e-6, 1.9058421e-6
-0.119, 1.3942973e-6, 1.8908519e-6
-0.120, 1.4409004e-6, 1.9294073e-6
-0.121, 1.4303628e-6, 1.9261752e-6
-0.122, 1.4160653e-6, 1.8787146e-6
-0.123, 1.4583477e-6, 1.9079857e-6
-0.124, 1.4130144e-6, 1.8288630e-6
-0.125, 1.4507125e-6, 1.8988335e-6
-0.126, 1.4024768e-6, 1.8966732e-6
-0.127, 1.4309894e-6, 1.9134936e-6
-0.128, 1.4474472e-6, 1.9450736e-6
-0.129, 1.4111838e-6, 1.8890214e-6
-0.130, 1.4577374e-6, 1.8816830e-6
-0.131, 1.3940499e-6, 1.8449746e-6
-0.132, 1.4485851e-6, 1.8771151e-6
-0.133, 1.4105574e-6, 1.9133124e-6
-0.134, 1.4114313e-6, 1.8890544e-6
-0.135, 1.4466721e-6, 1.9549846e-6
-0.136, 1.3981892e-6, 1.9166105e-6
-0.137, 1.4488819e-6, 1.9072604e-6
-0.138, 1.4029880e-6, 1.8817325e-6
-0.139, 1.4367777e-6, 1.8442324e-6
-0.140, 1.4406201e-6, 1.9354595e-6
-0.141, 1.4171371e-6, 1.8840742e-6
-0.142, 1.4482059e-6, 1.9416930e-6
-0.143, 1.3981397e-6, 1.9081672e-6
-0.144, 1.4496735e-6, 1.8888236e-6
-0.145, 1.4217546e-6, 1.9045393e-6
-0.146, 1.4281694e-6, 1.8345852e-6
-0.147, 1.4496404e-6, 1.9249219e-6
-0.148, 1.3977274e-6, 1.9000538e-6
-0.149, 1.4553957e-6, 1.9260433e-6
-0.150, 1.4259102e-6, 1.9316831e-6
-0.151, 1.4447097e-6, 1.8818644e-6
-0.152, 1.4387565e-6, 1.9237841e-6
-0.153, 1.4316325e-6, 1.8472338e-6
-0.154, 1.4423351e-6, 1.8617785e-6
-0.155, 1.4146470e-6, 1.9011752e-6
-0.156, 1.4433904e-6, 1.9067161e-6
-0.157, 1.4258113e-6, 1.9320955e-6
-0.158, 1.4291588e-6, 1.9006145e-6
-0.159, 1.4562862e-6, 1.9098329e-6
-0.160, 1.4146469e-6, 1.8860860e-6
-0.161, 1.4689678e-6, 1.8506638e-6
-0.162, 1.4144821e-6, 1.9032530e-6
-0.163, 1.4382288e-6, 1.8948590e-6
-0.164, 1.4465732e-6, 1.9566833e-6
-0.165, 1.4328529e-6, 1.8947273e-6
-0.166, 1.4569295e-6, 1.9208487e-6
-0.167, 1.4256959e-6, 1.9006804e-6
-0.168, 1.4709960e-6, 1.8514388e-6
-0.169, 1.4258937e-6, 1.8507628e-6
-0.170, 1.4466887e-6, 1.8973327e-6
-0.171, 1.4482717e-6, 1.9473496e-6
-0.172, 1.4316161e-6, 1.9315182e-6
-0.173, 1.4589579e-6, 1.9244108e-6
-0.174, 1.4168238e-6, 1.8826065e-6
-0.175, 1.4557256e-6, 1.9019997e-6
-0.176, 1.4476286e-6, 1.8649284e-6
-0.177, 1.4369261e-6, 1.8857397e-6
-0.178, 1.4541920e-6, 1.9167423e-6
-0.179, 1.4251682e-6, 1.9338763e-6
-0.180, 1.4623054e-6, 1.9361025e-6
-0.181, 1.4352770e-6, 1.8853439e-6
-0.182, 1.4611676e-6, 1.9016700e-6
-0.183, 1.4568964e-6, 1.9006475e-6
-0.184, 1.4313026e-6, 1.8753010e-6
-0.185, 1.4674340e-6, 1.8940016e-6
-0.186, 1.4339907e-6, 1.9068975e-6
-0.187, 1.4563688e-6, 1.9678969e-6
-0.188, 1.4551649e-6, 1.9148131e-6
-0.189, 1.4486510e-6, 1.8944140e-6
-0.190, 1.4784828e-6, 1.8861685e-6
-0.191, 1.4324901e-6, 1.8559244e-6
-0.192, 1.4687533e-6, 1.9283191e-6
-0.193, 1.4220678e-6, 1.8979431e-6
-0.194, 1.4586115e-6, 1.9238500e-6
-0.195, 1.4728760e-6, 1.9378176e-6
-0.196, 1.4358872e-6, 1.9021152e-6
-0.197, 1.4736511e-6, 1.9020822e-6
-0.198, 1.4286147e-6, 1.8592391e-6
-0.199, 1.4774605e-6, 1.9086124e-6
-0.200, 1.4420052e-6, 1.9170723e-6
-0.201, 1.4601121e-6, 1.9119436e-6
-0.202, 1.4700890e-6, 1.9693975e-6
-0.203, 1.4343866e-6, 1.9077715e-6
-0.204, 1.4766031e-6, 1.9300010e-6
-0.205, 1.4346339e-6, 1.8575570e-6
-0.206, 1.4743272e-6, 1.8645985e-6
-0.207, 1.4745910e-6, 1.9522472e-6
-0.208, 1.4535817e-6, 1.8957826e-6
-0.209, 1.4694789e-6, 1.9510269e-6
-0.210, 1.4308905e-6, 1.9145987e-6
-0.211, 1.4805937e-6, 1.9172371e-6
-0.212, 1.4589743e-6, 1.9269503e-6
-0.213, 1.4583972e-6, 1.8421711e-6
-0.214, 1.4854915e-6, 1.9420722e-6
-0.215, 1.4324736e-6, 1.9199417e-6
-0.216, 1.4800660e-6, 1.9384279e-6
-0.217, 1.4480408e-6, 1.9125043e-6
-0.218, 1.4715897e-6, 1.9017688e-6
-0.219, 1.4723978e-6, 1.9412807e-6
-0.220, 1.4577374e-6, 1.8541598e-6
-0.221, 1.4725297e-6, 1.8809903e-6
-0.222, 1.4466061e-6, 1.9297702e-6
-0.223, 1.4777078e-6, 1.9353770e-6
-0.224, 1.4592217e-6, 1.9484214e-6
-0.225, 1.4597823e-6, 1.9360532e-6
-0.226, 1.4863656e-6, 1.9356739e-6
-0.227, 1.4597824e-6, 1.8879000e-6
-0.228, 1.4947263e-6, 1.8754495e-6
-0.229, 1.4471503e-6, 1.9332826e-6
-0.230, 1.4774769e-6, 1.9267522e-6
-0.231, 1.4945944e-6, 1.9793415e-6
-0.232, 1.4596175e-6, 1.9380650e-6
-0.233, 1.4918734e-6, 1.9384775e-6
-0.234, 1.4581497e-6, 1.9192491e-6
-0.235, 1.5023945e-6, 1.8940347e-6
-0.236, 1.4719030e-6, 1.9043249e-6
-0.237, 1.4738655e-6, 1.9147305e-6
-0.238, 1.4939843e-6, 1.9564195e-6
-0.239, 1.4600957e-6, 1.9474319e-6
-0.240, 1.4972495e-6, 1.9478607e-6
-0.241, 1.4508773e-6, 1.9052320e-6
-0.242, 1.4927639e-6, 1.9342722e-6
-0.243, 1.4780542e-6, 1.8894998e-6
-0.244, 1.4826551e-6, 1.9077549e-6
-0.245, 1.4954189e-6, 1.9577551e-6
-0.246, 1.4628827e-6, 1.9629003e-6
-0.247, 1.5034004e-6, 1.9918909e-6
-0.248, 1.4687698e-6, 1.9005321e-6
-0.249, 1.5015205e-6, 1.9332003e-6
-0.250, 1.5071109e-6, 1.9338268e-6
-0.251, 1.4558575e-6, 1.8819799e-6
-0.252, 1.5037633e-6, 1.9267522e-6
-0.253, 1.4575891e-6, 1.9262411e-6
-0.254, 1.4945780e-6, 1.9745098e-6
-0.255, 1.4914283e-6, 1.9645493e-6
-0.256, 1.4747559e-6, 1.9155057e-6
-0.257, 1.5095186e-6, 1.9322604e-6
-0.258, 1.4504155e-6, 1.8808585e-6
-0.259, 1.5071769e-6, 1.9369436e-6
-0.260, 1.4604420e-6, 1.9306938e-6
-0.261, 1.4833641e-6, 1.9549188e-6
-0.262, 1.5042909e-6, 2.0097011e-6
-0.263, 1.4792415e-6, 1.9230090e-6
-0.264, 1.5095352e-6, 1.9287643e-6
-0.265, 1.4555276e-6, 1.8827220e-6
-0.266, 1.5094525e-6, 1.9037313e-6
-0.267, 1.4764876e-6, 1.9493777e-6
-0.268, 1.4653727e-6, 1.9177155e-6
-0.269, 1.5055278e-6, 1.9830684e-6
-0.270, 1.4568141e-6, 1.9640052e-6
-0.271, 1.5048516e-6, 1.9545560e-6
-0.272, 1.4687698e-6, 1.9369768e-6
-0.273, 1.4988491e-6, 1.8928473e-6
-0.274, 1.4951552e-6, 1.9830850e-6
-0.275, 1.4802145e-6, 1.9340741e-6
-0.276, 1.4942812e-6, 1.9581673e-6
-0.277, 1.4568139e-6, 1.9667427e-6
-0.278, 1.4962600e-6, 1.9493282e-6
-0.279, 1.4735522e-6, 1.9465742e-6
-0.280, 1.4756959e-6, 1.8607232e-6
-0.281, 1.4962600e-6, 1.9076724e-6
-0.282, 1.4444294e-6, 1.9281870e-6
-0.283, 1.4908344e-6, 1.9367790e-6
-0.284, 1.4516030e-6, 1.9544570e-6
-0.285, 1.4897131e-6, 1.9471681e-6
-0.286, 1.4879815e-6, 1.9652255e-6
-0.287, 1.4758443e-6, 1.8834805e-6
-0.288, 1.4907191e-6, 1.8821117e-6
-0.289, 1.4569789e-6, 1.9422207e-6
-0.290, 1.4900595e-6, 1.9496251e-6
-0.291, 1.4662962e-6, 1.9635927e-6
-0.292, 1.4689513e-6, 1.9723002e-6
-0.293, 1.4936049e-6, 1.9416930e-6
-0.294, 1.4619096e-6, 1.9276758e-6
-0.295, 1.4902737e-6, 1.8980584e-6
-0.296, 1.4469360e-6, 1.9079857e-6
-0.297, 1.4795053e-6, 1.9299846e-6
-0.298, 1.4704354e-6, 1.9591239e-6
-0.299, 1.4621570e-6, 1.9633785e-6
-0.300, 1.4845681e-6, 1.9622901e-6
-0.301, 1.4441325e-6, 1.9229597e-6
-0.302, 1.4967712e-6, 1.9398462e-6
-0.303, 1.4503330e-6, 1.8771646e-6
-0.304, 1.4593206e-6, 1.9162476e-6
-0.305, 1.4746736e-6, 1.9653410e-6
-0.306, 1.4459631e-6, 1.9264062e-6
-0.307, 1.4804452e-6, 1.9708818e-6
-0.308, 1.4243601e-6, 1.8966402e-6
-0.309, 1.4668240e-6, 1.9425836e-6
-0.310, 1.4681102e-6, 1.8914620e-6
-0.311, 1.4453034e-6, 1.8430451e-6
-0.312, 1.4776914e-6, 1.9546715e-6
-0.313, 1.4256959e-6, 1.9341237e-6
-0.314, 1.4718701e-6, 1.9593053e-6
-0.315, 1.4397954e-6, 1.9243282e-6
-0.316, 1.4646471e-6, 1.9214258e-6
-0.317, 1.4712929e-6, 1.9559411e-6
-0.318, 1.4406694e-6, 1.8486520e-6
-0.319, 1.4721174e-6, 1.9236193e-6
-0.320, 1.4288127e-6, 1.9149284e-6
-0.321, 1.4631298e-6, 1.9681938e-6
-0.322, 1.4604254e-6, 1.9544900e-6
-0.323, 1.4378165e-6, 1.8973494e-6
-0.324, 1.4756134e-6, 1.9124218e-6
-0.325, 1.4201385e-6, 1.8589258e-6
-0.326, 1.4653398e-6, 1.8893184e-6
-0.327, 1.4216721e-6, 1.9104430e-6
-0.328, 1.4474967e-6, 1.9268182e-6
-0.329, 1.4590566e-6, 1.9919075e-6
-0.330, 1.4284333e-6, 1.9148295e-6
-0.331, 1.4703035e-6, 1.9114655e-6
-0.332, 1.4215071e-6, 1.9029230e-6
-0.333, 1.4566656e-6, 1.8818314e-6
-0.334, 1.4407025e-6, 1.9380650e-6
-0.335, 1.4223647e-6, 1.9005979e-6
-0.336, 1.4658179e-6, 1.9573099e-6
-0.337, 1.4207815e-6, 1.9198098e-6
-0.338, 1.4598154e-6, 1.9155386e-6
-0.339, 1.4225296e-6, 1.9218051e-6
-0.340, 1.4484531e-6, 1.8657365e-6
-0.341, 1.4669558e-6, 1.9256311e-6
-0.342, 1.4301813e-6, 1.9065677e-6
-0.343, 1.4548350e-6, 1.9322440e-6
-0.344, 1.4114314e-6, 1.9570625e-6
-0.345, 1.4550001e-6, 1.9202550e-6
-0.346, 1.4289114e-6, 1.9229265e-6
-0.347, 1.4409497e-6, 1.8501361e-6
-0.348, 1.4532025e-6, 1.8821117e-6
-0.349, 1.4102604e-6, 1.9194304e-6
-0.350, 1.4437697e-6, 1.9113829e-6
-0.351, 1.4176649e-6, 1.9280055e-6
-0.352, 1.4386576e-6, 1.9402253e-6
-0.353, 1.4451219e-6, 1.9424187e-6
-0.354, 1.4300989e-6, 1.9024284e-6
-0.355, 1.4531695e-6, 1.8508781e-6
-0.356, 1.4151912e-6, 1.9209147e-6
-0.357, 1.4427968e-6, 1.9378508e-6
-0.358, 1.4270975e-6, 1.9557433e-6
-0.359, 1.4349142e-6, 1.9314357e-6
-0.360, 1.4585785e-6, 1.9491304e-6
-0.361, 1.4155376e-6, 1.9076397e-6
-0.362, 1.4579518e-6, 1.8672040e-6
-0.363, 1.4101780e-6, 1.9055287e-6
-0.364, 1.4482058e-6, 1.9166437e-6
-0.365, 1.4461939e-6, 1.9728607e-6
-0.366, 1.4249373e-6, 1.9396648e-6
-0.367, 1.4534662e-6, 1.9470031e-6
-0.368, 1.4115961e-6, 1.9101296e-6
-0.369, 1.4668403e-6, 1.8988170e-6
-0.370, 1.4276748e-6, 1.8871581e-6
-0.371, 1.4202703e-6, 1.9125703e-6
-0.372, 1.4547691e-6, 1.9379497e-6
-0.373, 1.4250527e-6, 1.9399945e-6
-0.374, 1.4621405e-6, 1.9413962e-6
-0.375, 1.4006628e-6, 1.9061224e-6
-0.376, 1.4489974e-6, 1.9407366e-6
-0.377, 1.4493601e-6, 1.8883122e-6
-0.378, 1.4300329e-6, 1.9050340e-6
-0.379, 1.4481398e-6, 1.9266206e-6
-0.380, 1.4075724e-6, 1.9605916e-6
-0.381, 1.4538621e-6, 1.9664458e-6
-0.382, 1.4355574e-6, 1.8935730e-6
-0.383, 1.4539776e-6, 1.9097174e-6
-0.384, 1.4604420e-6, 1.9009772e-6
-0.385, 1.4278891e-6, 1.9073757e-6
-0.386, 1.4573912e-6, 1.9280221e-6
-0.387, 1.4084135e-6, 1.9416766e-6
-0.388, 1.4469689e-6, 1.9975969e-6
-0.389, 1.4507783e-6, 1.9244767e-6
-0.390, 1.4337269e-6, 1.8980089e-6
-0.391, 1.4591886e-6, 1.8803473e-6
-0.392, 1.4143501e-6, 1.8640874e-6
-0.393, 1.4591226e-6, 1.9360696e-6
-0.394, 1.4139544e-6, 1.9186718e-6
-0.395, 1.4500032e-6, 1.9755487e-6
-0.396, 1.4585291e-6, 1.9427484e-6
-0.397, 1.4274109e-6, 1.9092556e-6
-0.398, 1.4660982e-6, 1.8915941e-6
-0.399, 1.4231067e-6, 1.8692490e-6
-0.400, 1.4613984e-6, 1.9494933e-6
-0.401, 1.4252836e-6, 1.9449253e-6
-0.402, 1.4456497e-6, 1.9363169e-6
-0.403, 1.4631464e-6, 1.9562049e-6
-0.404, 1.4251847e-6, 1.9189026e-6
-0.405, 1.4718206e-6, 1.9334475e-6
-0.406, 1.4160652e-6, 1.8926823e-6
-0.407, 1.4552638e-6, 1.9266040e-6
-0.408, 1.4601781e-6, 1.9687050e-6
-0.409, 1.4299504e-6, 1.9481740e-6
-0.410, 1.4601781e-6, 1.9557267e-6
-0.411, 1.4208970e-6, 1.9281870e-6
-0.412, 1.4778562e-6, 1.9562708e-6
-0.413, 1.4435884e-6, 1.8919404e-6
-0.414, 1.4417413e-6, 1.8821282e-6
-0.415, 1.4616788e-6, 1.9628342e-6
-0.416, 1.4275593e-6, 1.9550671e-6
-0.417, 1.4637897e-6, 2.0016371e-6
-0.418, 1.4257947e-6, 1.9536983e-6
-0.419, 1.4629979e-6, 1.9357235e-6
-0.420, 1.4702705e-6, 1.9463600e-6
-0.421, 1.4518173e-6, 1.8838433e-6
-0.422, 1.4718701e-6, 1.9462775e-6
-0.423, 1.4181101e-6, 1.9378012e-6
-0.424, 1.4643832e-6, 2.0159841e-6
-0.425, 1.4428133e-6, 1.9632962e-6
-0.426, 1.4573912e-6, 1.9157037e-6
-0.427, 1.4881136e-6, 1.9825738e-6
-0.428, 1.4316655e-6, 1.8941665e-6
-0.429, 1.4945119e-6, 1.9549846e-6
-0.430, 1.4303956e-6, 1.9523791e-6
-0.431, 1.4773284e-6, 1.9804793e-6
-0.432, 1.4782026e-6, 2.0123066e-6
-0.433, 1.4565336e-6, 1.9217061e-6
-0.434, 1.4788787e-6, 1.9650770e-6
-0.435, 1.4367282e-6, 1.8938863e-6
-0.436, 1.4853925e-6, 1.9606246e-6
-0.437, 1.4445284e-6, 1.9610038e-6
-0.438, 1.4489974e-6, 1.9774945e-6
-0.439, 1.4935886e-6, 2.0405223e-6
-0.440, 1.4526089e-6, 1.9378672e-6
-0.441, 1.4894822e-6, 1.9609543e-6
-0.442, 1.4242447e-6, 1.9101958e-6
-0.443, 1.4643997e-6, 1.9312215e-6
-0.444, 1.4661313e-6, 1.9855422e-6
-0.445, 1.4422857e-6, 1.9315512e-6
-0.446, 1.4873053e-6, 2.0140219e-6
-0.447, 1.4419722e-6, 1.9999220e-6
-0.448, 1.4872725e-6, 1.9821121e-6
-0.449, 1.4606728e-6, 1.9350637e-6
-0.450, 1.4870086e-6, 1.9032200e-6
-0.451, 1.4970185e-6, 2.0068810e-6
-0.452, 1.4468040e-6, 1.9480915e-6
-0.453, 1.4988491e-6, 1.9693975e-6
-0.454, 1.4464413e-6, 1.9686390e-6
-0.455, 1.4817975e-6, 1.9879662e-6
-0.456, 1.4959962e-6, 1.9582333e-6
-0.457, 1.4633443e-6, 1.8969040e-6
-0.458, 1.5004321e-6, 1.9747406e-6
-0.459, 1.4438027e-6, 1.9719866e-6
-0.460, 1.4902243e-6, 1.9834642e-6
-0.461, 1.4596174e-6, 2.0118118e-6
-0.462, 1.4925000e-6, 1.9591735e-6
-0.463, 1.4931597e-6, 1.9957993e-6
-0.464, 1.4585785e-6, 1.9164456e-6
-0.465, 1.4994591e-6, 1.9085464e-6
-0.466, 1.4482057e-6, 1.9704530e-6
-0.467, 1.4850791e-6, 2.0136258e-6
-0.468, 1.4822758e-6, 2.0386260e-6
-0.469, 1.4703199e-6, 1.9735533e-6
-0.470, 1.5040107e-6, 1.9898628e-6
-0.471, 1.4788127e-6, 1.9723329e-6
-0.472, 1.4996900e-6, 1.9459476e-6
-0.473, 1.4607223e-6, 2.0142031e-6
-0.474, 1.4873219e-6, 1.9731574e-6
-0.475, 1.5013886e-6, 2.0689856e-6
-0.476, 1.4692645e-6, 2.0024781e-6
-0.477, 1.4945779e-6, 1.9706181e-6
-0.478, 1.4499867e-6, 1.9838269e-6
-0.479, 1.5067646e-6, 1.9472834e-6
-0.480, 1.4795712e-6, 1.9900110e-6
-0.481, 1.4794230e-6, 1.9403737e-6
-0.482, 1.5058413e-6, 2.0209479e-6
-0.483, 1.4561050e-6, 2.0260436e-6
-0.484, 1.5026089e-6, 1.9870429e-6
-0.485, 1.4691326e-6, 1.9776760e-6
-0.486, 1.4981729e-6, 1.9396316e-6
-0.487, 1.4950397e-6, 1.9855256e-6
-0.488, 1.4791921e-6, 1.9782860e-6
-0.489, 1.5078861e-6, 2.0084149e-6
-0.490, 1.4785157e-6, 2.0365810e-6
-0.491, 1.5037963e-6, 2.0252189e-6
-0.492, 1.4955344e-6, 2.0074583e-6
-0.493, 1.4933246e-6, 1.9635434e-6
-0.494, 1.5111345e-6, 1.9889558e-6
-0.495, 1.4668403e-6, 2.0160996e-6
-0.496, 1.5048518e-6, 2.0116140e-6
-0.497, 1.4845516e-6, 2.0215580e-6
-0.498, 1.5063358e-6, 2.0187711e-6
-0.499, 1.5139217e-6, 2.0204366e-6
-0.500, 1.5006301e-6, 1.9606409e-6
