Dec. 21, 2005   06:24:43
Square Wave Voltammetry
File: d:\ida_biofilms\12_10_18_dphzstar\a_760b\75um_pyo\a_75um_pyo_swvfast_4_1.txt
Data Source:  Experiment
Instrument Model:  CHI760E
Header: 
Note: 

Init E (V) = 0.1
Final E (V) = -0.5
Incr E (V) = 0.001
Amplitude (V) = 0.025
Frequency (Hz) = 300
Quiet Time (sec) = 2
Sensitivity (A/V) = 1e-6
Sens 2 (A/V) = 1e-6

Potential/V, i1/A, i2/A

0.099, 1.4247560e-6, 1.7844367e-6
0.098, 1.5354585e-6, 1.8724977e-6
0.097, 1.5325232e-6, 1.9218051e-6
0.096, 1.5425497e-6, 1.9196118e-6
0.095, 1.5645649e-6, 1.9457334e-6
0.094, 1.5246901e-6, 1.9184411e-6
0.093, 1.5674178e-6, 1.9063532e-6
0.092, 1.5348651e-6, 1.9510599e-6
0.091, 1.5635590e-6, 1.9465413e-6
0.090, 1.5756962e-6, 2.0014722e-6
0.089, 1.5480081e-6, 1.9572440e-6
0.088, 1.5684732e-6, 1.9485203e-6
0.087, 1.5445780e-6, 1.9522968e-6
0.086, 1.5796704e-6, 1.9092886e-6
0.085, 1.5506466e-6, 1.9357894e-6
0.084, 1.5443143e-6, 1.9641370e-6
0.083, 1.5718043e-6, 2.0074913e-6
0.082, 1.5370252e-6, 1.9847507e-6
0.081, 1.5721671e-6, 1.9474812e-6
0.080, 1.5201716e-6, 1.9496911e-6
0.079, 1.5549672e-6, 1.9106903e-6
0.078, 1.5550991e-6, 1.9323429e-6
0.077, 1.5385094e-6, 1.9408353e-6
0.076, 1.5611017e-6, 1.9980421e-6
0.075, 1.5140041e-6, 2.0005818e-6
0.074, 1.5662634e-6, 1.9785170e-6
0.073, 1.5439349e-6, 1.9382628e-6
0.072, 1.5452872e-6, 1.9243116e-6
0.071, 1.5701883e-6, 1.9553308e-6
0.070, 1.5197429e-6, 1.9461290e-6
0.069, 1.5461446e-6, 1.9433751e-6
0.068, 1.5150761e-6, 1.9701561e-6
0.067, 1.5443306e-6, 1.9893680e-6
0.066, 1.5556104e-6, 1.9338599e-6
0.065, 1.5323749e-6, 1.9184245e-6
0.064, 1.5538624e-6, 1.9228771e-6
0.063, 1.5103760e-6, 1.9547206e-6
0.062, 1.5466560e-6, 1.9458982e-6
0.061, 1.5159665e-6, 1.9492954e-6
0.060, 1.5437535e-6, 1.9516701e-6
0.059, 1.5507620e-6, 1.9491304e-6
0.058, 1.5041755e-6, 1.9232398e-6
0.057, 1.5442811e-6, 1.8821448e-6
0.056, 1.5113161e-6, 1.9388071e-6
0.055, 1.5326716e-6, 1.9624879e-6
0.054, 1.5329686e-6, 1.9661159e-6
0.053, 1.5168735e-6, 1.9359709e-6
0.052, 1.5491130e-6, 1.9330355e-6
0.051, 1.5017185e-6, 1.9112017e-6
0.050, 1.5380806e-6, 1.8788630e-6
0.049, 1.4960126e-6, 1.8848164e-6
0.048, 1.5207818e-6, 1.9196282e-6
0.047, 1.5270648e-6, 1.9729925e-6
0.046, 1.4912798e-6, 1.9582992e-6
0.045, 1.5317153e-6, 1.8989984e-6
0.044, 1.4901749e-6, 1.9191502e-6
0.043, 1.5339580e-6, 1.9002516e-6
0.042, 1.4985687e-6, 1.8917094e-6
0.041, 1.4964744e-6, 1.9083486e-6
0.040, 1.5226783e-6, 1.9381969e-6
0.039, 1.4805278e-6, 1.9654892e-6
0.038, 1.5216558e-6, 1.9524120e-6
0.037, 1.4765865e-6, 1.9018348e-6
0.036, 1.5196770e-6, 1.9171546e-6
0.035, 1.5101123e-6, 1.9027748e-6
0.034, 1.4928135e-6, 1.9162476e-6
0.033, 1.5069626e-6, 1.9229924e-6
0.032, 1.4771965e-6, 1.9296713e-6
0.031, 1.5146637e-6, 1.9442491e-6
0.030, 1.4832652e-6, 1.9185236e-6
0.029, 1.4974638e-6, 1.8780880e-6
0.028, 1.5111348e-6, 1.8839753e-6
0.027, 1.4737665e-6, 1.9247570e-6
0.026, 1.5074078e-6, 1.9243776e-6
0.025, 1.4700231e-6, 1.9202548e-6
0.024, 1.4918899e-6, 1.9355421e-6
0.023, 1.5018338e-6, 1.9341896e-6
0.022, 1.4932750e-6, 1.8939357e-6
0.021, 1.5045714e-6, 1.8597007e-6
0.020, 1.4593370e-6, 1.8884277e-6
0.019, 1.5031037e-6, 1.9238337e-6
0.018, 1.4802145e-6, 1.9305617e-6
0.017, 1.4707488e-6, 1.9504168e-6
0.016, 1.5003168e-6, 1.9546219e-6
0.015, 1.4694954e-6, 1.8949416e-6
0.014, 1.5044723e-6, 1.8677978e-6
0.013, 1.4550000e-6, 1.8593545e-6
0.012, 1.4886082e-6, 1.9116633e-6
0.011, 1.4871406e-6, 1.9479762e-6
0.010, 1.4758773e-6, 1.9334807e-6
0.009, 1.5065502e-6, 1.9224153e-6
0.008, 1.4627012e-6, 1.8945955e-6
0.007, 1.5096834e-6, 1.9246086e-6
0.006, 1.4706333e-6, 1.8507628e-6
0.005, 1.4705508e-6, 1.8919402e-6
0.004, 1.4915602e-6, 1.9193149e-6
0.003, 1.4572757e-6, 1.9161819e-6
0.002, 1.4946769e-6, 1.9129661e-6
0.001, 1.4461609e-6, 1.8801328e-6
-0.000, 1.4875199e-6, 1.9032531e-6
-0.001, 1.4769328e-6, 1.8642687e-6
-0.002, 1.4679454e-6, 1.8824087e-6
-0.003, 1.4938523e-6, 1.9154231e-6
-0.004, 1.4387731e-6, 1.9234542e-6
-0.005, 1.4823088e-6, 1.9334807e-6
-0.006, 1.4567150e-6, 1.8788301e-6
-0.007, 1.4809896e-6, 1.8925668e-6
-0.008, 1.4863984e-6, 1.8754660e-6
-0.009, 1.4582652e-6, 1.8759113e-6
-0.010, 1.4874209e-6, 1.8907695e-6
-0.011, 1.4429617e-6, 1.9038300e-6
-0.012, 1.4716557e-6, 1.9560730e-6
-0.013, 1.4721010e-6, 1.8989488e-6
-0.014, 1.4656861e-6, 1.8682265e-6
-0.015, 1.4906202e-6, 1.8482398e-6
-0.016, 1.4382124e-6, 1.8438695e-6
-0.017, 1.4741788e-6, 1.8916764e-6
-0.018, 1.4392017e-6, 1.8773954e-6
-0.019, 1.4716393e-6, 1.9258782e-6
-0.020, 1.4755145e-6, 1.9040610e-6
-0.021, 1.4393008e-6, 1.8720194e-6
-0.022, 1.4812699e-6, 1.8493281e-6
-0.023, 1.4272789e-6, 1.8331341e-6
-0.024, 1.4769987e-6, 1.8995261e-6
-0.025, 1.4487995e-6, 1.9079364e-6
-0.026, 1.4465568e-6, 1.8940511e-6
-0.027, 1.4792249e-6, 1.9154727e-6
-0.028, 1.4335619e-6, 1.8723492e-6
-0.029, 1.4739314e-6, 1.9016204e-6
-0.030, 1.4263060e-6, 1.8485696e-6
-0.031, 1.4729420e-6, 1.8930123e-6
-0.032, 1.4640370e-6, 1.9159013e-6
-0.033, 1.4417249e-6, 1.8964092e-6
-0.034, 1.4642019e-6, 1.9017358e-6
-0.035, 1.4200725e-6, 1.8704199e-6
-0.036, 1.4750692e-6, 1.8893842e-6
-0.037, 1.4364973e-6, 1.8437377e-6
-0.038, 1.4526584e-6, 1.8611024e-6
-0.039, 1.4608378e-6, 1.9026593e-6
-0.040, 1.4180936e-6, 1.8946118e-6
-0.041, 1.4614479e-6, 1.9448594e-6
-0.042, 1.4204353e-6, 1.8977614e-6
-0.043, 1.4541920e-6, 1.8817983e-6
-0.044, 1.4607388e-6, 1.8670391e-6
-0.045, 1.4380144e-6, 1.8675174e-6
-0.046, 1.4488489e-6, 1.8963599e-6
-0.047, 1.4139708e-6, 1.8805617e-6
-0.048, 1.4562039e-6, 1.9383949e-6
-0.049, 1.4410323e-6, 1.9073098e-6
-0.050, 1.4495911e-6, 1.8786158e-6
-0.051, 1.4573416e-6, 1.8881310e-6
-0.052, 1.4143667e-6, 1.8384607e-6
-0.053, 1.4584961e-6, 1.9027418e-6
-0.054, 1.4153891e-6, 1.8742458e-6
-0.055, 1.4467546e-6, 1.9067985e-6
-0.056, 1.4503661e-6, 1.9359873e-6
-0.057, 1.4444624e-6, 1.8671547e-6
-0.058, 1.4628001e-6, 1.8973988e-6
-0.059, 1.4146635e-6, 1.8380979e-6
-0.060, 1.4605574e-6, 1.8912312e-6
-0.061, 1.4196602e-6, 1.8955024e-6
-0.062, 1.4263060e-6, 1.9223494e-6
-0.063, 1.4539116e-6, 1.9252352e-6
-0.064, 1.4284662e-6, 1.8612840e-6
-0.065, 1.4551154e-6, 1.8938038e-6
-0.066, 1.3992940e-6, 1.8195622e-6
-0.067, 1.4469196e-6, 1.9017357e-6
-0.068, 1.4448252e-6, 1.9214094e-6
-0.069, 1.4265204e-6, 1.8858223e-6
-0.070, 1.4561874e-6, 1.9405222e-6
-0.071, 1.4088423e-6, 1.8810729e-6
-0.072, 1.4584300e-6, 1.8919898e-6
-0.073, 1.4227770e-6, 1.8385761e-6
-0.074, 1.4518503e-6, 1.8849646e-6
-0.075, 1.4530706e-6, 1.9290940e-6
-0.076, 1.4213092e-6, 1.8923527e-6
-0.077, 1.4570778e-6, 1.9160830e-6
-0.078, 1.3986510e-6, 1.8637245e-6
-0.079, 1.4353759e-6, 1.9028241e-6
-0.080, 1.4428133e-6, 1.8490477e-6
-0.081, 1.4240798e-6, 1.8349810e-6
-0.082, 1.4463918e-6, 1.9123065e-6
-0.083, 1.4003165e-6, 1.9026429e-6
-0.084, 1.4468536e-6, 1.9512083e-6
-0.085, 1.4118600e-6, 1.8636090e-6
-0.086, 1.4520316e-6, 1.8917260e-6
-0.087, 1.4518007e-6, 1.8913631e-6
-0.088, 1.4094690e-6, 1.8636752e-6
-0.089, 1.4543568e-6, 1.8919404e-6
-0.090, 1.4017677e-6, 1.9054628e-6
-0.091, 1.4534169e-6, 1.9580189e-6
-0.092, 1.4323746e-6, 1.9234708e-6
-0.093, 1.4251516e-6, 1.8740477e-6
-0.094, 1.4558575e-6, 1.8745754e-6
-0.095, 1.4042413e-6, 1.8467886e-6
-0.096, 1.4483212e-6, 1.9138731e-6
-0.097, 1.4012235e-6, 1.8937708e-6
-0.098, 1.4409993e-6, 1.9135102e-6
-0.099, 1.4496570e-6, 1.9421548e-6
-0.100, 1.4175660e-6, 1.8984872e-6
-0.101, 1.4531695e-6, 1.8832825e-6
-0.102, 1.3970183e-6, 1.8527583e-6
-0.103, 1.4558080e-6, 1.9158190e-6
-0.104, 1.4058739e-6, 1.9089259e-6
-0.105, 1.4229254e-6, 1.9009442e-6
-0.106, 1.4430772e-6, 1.9395657e-6
-0.107, 1.4001846e-6, 1.9167919e-6
-0.108, 1.4577704e-6, 1.9136257e-6
-0.109, 1.4027571e-6, 1.8609212e-6
-0.110, 1.4421537e-6, 1.9196777e-6
-0.111, 1.4363654e-6, 1.9346021e-6
-0.112, 1.4276253e-6, 1.9327219e-6
-0.113, 1.4376021e-6, 1.9357892e-6
-0.114, 1.4112334e-6, 1.9002022e-6
-0.115, 1.4514875e-6, 1.9196777e-6
-0.116, 1.4184399e-6, 1.8750537e-6
-0.117, 1.4326384e-6, 1.9227286e-6
-0.118, 1.4447758e-6, 1.9428144e-6
-0.119, 1.4080836e-6, 1.9371250e-6
-0.120, 1.4519658e-6, 1.9448921e-6
-0.121, 1.4136247e-6, 1.8988994e-6
-0.122, 1.4430441e-6, 1.9194304e-6
-0.123, 1.4360355e-6, 1.9085135e-6
-0.124, 1.4190666e-6, 1.9145161e-6
-0.125, 1.4394986e-6, 1.9287809e-6
-0.126, 1.4000196e-6, 1.9541601e-6
-0.127, 1.4416260e-6, 1.9662148e-6
-0.128, 1.4189511e-6, 1.9302649e-6
-0.129, 1.4281201e-6, 1.9250870e-6
-0.130, 1.4488160e-6, 1.9116962e-6
-0.131, 1.4181101e-6, 1.9305617e-6
-0.132, 1.4529880e-6, 1.9339918e-6
-0.133, 1.4078528e-6, 1.9581344e-6
-0.134, 1.4427968e-6, 1.9905224e-6
-0.135, 1.4386741e-6, 1.9618778e-6
-0.136, 1.4249042e-6, 1.9319634e-6
-0.137, 1.4505309e-6, 1.9264555e-6
-0.138, 1.4149769e-6, 1.9187048e-6
-0.139, 1.4569459e-6, 1.9644667e-6
-0.140, 1.4322757e-6, 1.9645493e-6
-0.141, 1.4420217e-6, 1.9722174e-6
-0.142, 1.4564017e-6, 1.9757135e-6
-0.143, 1.4240632e-6, 1.9279726e-6
-0.144, 1.4476121e-6, 1.9182596e-6
-0.145, 1.4074076e-6, 1.8959147e-6
-0.146, 1.4397131e-6, 1.9832664e-6
-0.147, 1.4366458e-6, 1.9971185e-6
-0.148, 1.4249538e-6, 1.9821121e-6
-0.149, 1.4548846e-6, 2.0070297e-6
-0.150, 1.4280211e-6, 1.9767856e-6
-0.151, 1.4572922e-6, 1.9391205e-6
-0.152, 1.4237994e-6, 1.9534839e-6
-0.153, 1.4480903e-6, 1.9797703e-6
-0.154, 1.4471834e-6, 2.0182763e-6
-0.155, 1.4223812e-6, 2.0110699e-6
-0.156, 1.4603102e-6, 1.9887084e-6
-0.157, 1.4360851e-6, 1.9701231e-6
-0.158, 1.4527078e-6, 1.9509939e-6
-0.159, 1.4490633e-6, 1.9432100e-6
-0.160, 1.4307914e-6, 1.9796714e-6
-0.161, 1.4649770e-6, 1.9941997e-6
-0.162, 1.4127011e-6, 2.0306279e-6
-0.163, 1.4521306e-6, 2.0280720e-6
-0.164, 1.4274109e-6, 1.9836457e-6
-0.165, 1.4505310e-6, 1.9539127e-6
-0.166, 1.4571767e-6, 2.0135599e-6
-0.167, 1.4228100e-6, 1.9917591e-6
-0.168, 1.4577211e-6, 1.9901595e-6
-0.169, 1.4180606e-6, 2.0453047e-6
-0.170, 1.4606399e-6, 2.0315515e-6
-0.171, 1.4365633e-6, 2.0264229e-6
-0.172, 1.4391853e-6, 1.9732565e-6
-0.173, 1.4672197e-6, 1.9893350e-6
-0.174, 1.4275098e-6, 2.0161820e-6
-0.175, 1.4647295e-6, 2.0318648e-6
-0.176, 1.4177967e-6, 2.0727455e-6
-0.177, 1.4554453e-6, 2.0345199e-6
-0.178, 1.4696438e-6, 2.0621419e-6
-0.179, 1.4471999e-6, 2.0197772e-6
-0.180, 1.4674671e-6, 1.9865811e-6
-0.181, 1.4275428e-6, 2.0358555e-6
-0.182, 1.4582486e-6, 2.0507466e-6
-0.183, 1.4351946e-6, 2.0963603e-6
-0.184, 1.4481234e-6, 2.0217394e-6
-0.185, 1.4696438e-6, 2.0513733e-6
-0.186, 1.4277903e-6, 2.0511095e-6
-0.187, 1.4680277e-6, 1.9994768e-6
-0.188, 1.4369920e-6, 2.0518680e-6
-0.189, 1.4615798e-6, 2.0496418e-6
-0.190, 1.4568304e-6, 2.1155886e-6
-0.191, 1.4466227e-6, 2.0740481e-6
-0.192, 1.4710951e-6, 2.0608061e-6
-0.193, 1.4377013e-6, 2.0652915e-6
-0.194, 1.4776255e-6, 2.0364162e-6
-0.195, 1.4470349e-6, 2.0942493e-6
-0.196, 1.4468865e-6, 2.0732400e-6
-0.197, 1.4750362e-6, 2.1434580e-6
-0.198, 1.4436214e-6, 2.0987350e-6
-0.199, 1.4807092e-6, 2.0902257e-6
-0.200, 1.4373547e-6, 2.0852453e-6
-0.201, 1.4707653e-6, 2.0463272e-6
-0.202, 1.4696108e-6, 2.1399289e-6
-0.203, 1.4483048e-6, 2.0783523e-6
-0.204, 1.4829354e-6, 2.1330029e-6
-0.205, 1.4361181e-6, 2.1407041e-6
-0.206, 1.4911643e-6, 2.1092396e-6
-0.207, 1.4607717e-6, 2.1319638e-6
-0.208, 1.4555937e-6, 2.0731577e-6
-0.209, 1.4885587e-6, 2.1447772e-6
-0.210, 1.4460620e-6, 2.1036658e-6
-0.211, 1.4914283e-6, 2.1531216e-6
-0.212, 1.4335949e-6, 2.1488340e-6
-0.213, 1.4701055e-6, 2.1466903e-6
-0.214, 1.4758444e-6, 2.1679964e-6
-0.215, 1.4565336e-6, 2.0805292e-6
-0.216, 1.5022791e-6, 2.1680953e-6
-0.217, 1.4527736e-6, 2.1574092e-6
-0.218, 1.4907686e-6, 2.1985372e-6
-0.219, 1.4587434e-6, 2.2176830e-6
-0.220, 1.4978267e-6, 2.1466738e-6
-0.221, 1.4985192e-6, 2.2014233e-6
-0.222, 1.4579848e-6, 2.1077226e-6
-0.223, 1.4957487e-6, 2.1630490e-6
-0.224, 1.4578693e-6, 2.1615815e-6
-0.225, 1.4822923e-6, 2.2283857e-6
-0.226, 1.4847494e-6, 2.2460472e-6
-0.227, 1.4660322e-6, 2.1768849e-6
-0.228, 1.5053959e-6, 2.2196455e-6
-0.229, 1.4581663e-6, 2.1662977e-6
-0.230, 1.4924506e-6, 2.1821290e-6
-0.231, 1.4743107e-6, 2.2089757e-6
-0.232, 1.4943965e-6, 2.2419576e-6
-0.233, 1.5024605e-6, 2.3048865e-6
-0.234, 1.4652078e-6, 2.2332670e-6
-0.235, 1.5079354e-6, 2.2273136e-6
-0.236, 1.4624374e-6, 2.1881647e-6
-0.237, 1.4994428e-6, 2.2133790e-6
-0.238, 1.4815666e-6, 2.2826239e-6
-0.239, 1.4780871e-6, 2.2642862e-6
-0.240, 1.5144494e-6, 2.3374064e-6
-0.241, 1.4739479e-6, 2.2843060e-6
-0.242, 1.5168405e-6, 2.2739496e-6
-0.243, 1.4679123e-6, 2.2462452e-6
-0.244, 1.5088590e-6, 2.2315189e-6
-0.245, 1.5045714e-6, 2.3367138e-6
-0.246, 1.4803628e-6, 2.3062553e-6
-0.247, 1.5089909e-6, 2.3468060e-6
-0.248, 1.4594031e-6, 2.2993950e-6
-0.249, 1.5149276e-6, 2.3238013e-6
-0.250, 1.4757950e-6, 2.3165455e-6
-0.251, 1.4866953e-6, 2.2414958e-6
-0.252, 1.5148617e-6, 2.3700088e-6
-0.253, 1.4581992e-6, 2.3642369e-6
-0.254, 1.5139052e-6, 2.3990985e-6
-0.255, 1.4706497e-6, 2.3633299e-6
-0.256, 1.5124704e-6, 2.3546722e-6
-0.257, 1.5070120e-6, 2.3671394e-6
-0.258, 1.4922198e-6, 2.3170567e-6
-0.259, 1.5082653e-6, 2.3897483e-6
-0.260, 1.4727441e-6, 2.3819316e-6
-0.261, 1.5167911e-6, 2.4519020e-6
-0.262, 1.4901749e-6, 2.4104770e-6
-0.263, 1.5088260e-6, 2.3760442e-6
-0.264, 1.5118109e-6, 2.4205860e-6
-0.265, 1.4743437e-6, 2.3534353e-6
-0.266, 1.5165272e-6, 2.4461633e-6
-0.267, 1.4748055e-6, 2.4125056e-6
-0.268, 1.5067810e-6, 2.4922715e-6
-0.269, 1.5077869e-6, 2.4992141e-6
-0.270, 1.4870910e-6, 2.4198273e-6
-0.271, 1.5119757e-6, 2.4548704e-6
-0.272, 1.4739314e-6, 2.4082508e-6
-0.273, 1.5222331e-6, 2.4786666e-6
-0.274, 1.4830673e-6, 2.4726473e-6
-0.275, 1.4883279e-6, 2.5118131e-6
-0.276, 1.5176321e-6, 2.5395011e-6
-0.277, 1.4850298e-6, 2.4773967e-6
-0.278, 1.5204685e-6, 2.4820968e-6
-0.279, 1.4676319e-6, 2.4452067e-6
-0.280, 1.5043734e-6, 2.5252530e-6
-0.281, 1.4938194e-6, 2.5572451e-6
-0.282, 1.4853431e-6, 2.5161171e-6
-0.283, 1.5178300e-6, 2.5724335e-6
-0.284, 1.4682586e-6, 2.5383633e-6
-0.285, 1.5200231e-6, 2.5632314e-6
-0.286, 1.4838920e-6, 2.4959159e-6
-0.287, 1.5030212e-6, 2.5397155e-6
-0.288, 1.5061215e-6, 2.5943000e-6
-0.289, 1.4765370e-6, 2.5723839e-6
-0.290, 1.5053959e-6, 2.5979446e-6
-0.291, 1.4653068e-6, 2.5460481e-6
-0.292, 1.5052476e-6, 2.5748905e-6
-0.293, 1.4978596e-6, 2.5420243e-6
-0.294, 1.4891195e-6, 2.5676509e-6
-0.295, 1.5044229e-6, 2.6299697e-6
-0.296, 1.4601286e-6, 2.6362527e-6
-0.297, 1.4972329e-6, 2.6445309e-6
-0.298, 1.4716227e-6, 2.5912657e-6
-0.299, 1.5097494e-6, 2.6146497e-6
-0.300, 1.5082487e-6, 2.6156226e-6
-0.301, 1.4668733e-6, 2.6350820e-6
-0.302, 1.4913458e-6, 2.6362527e-6
-0.303, 1.4615798e-6, 2.6610878e-6
-0.304, 1.4794064e-6, 2.6941354e-6
-0.305, 1.4799341e-6, 2.6730600e-6
-0.306, 1.4638886e-6, 2.6368630e-6
-0.307, 1.5038787e-6, 2.6145508e-6
-0.308, 1.4504485e-6, 2.6880175e-6
-0.309, 1.4870086e-6, 2.6840266e-6
-0.310, 1.4583970e-6, 2.7013252e-6
-0.311, 1.4798187e-6, 2.6989505e-6
-0.312, 1.4821603e-6, 2.7252536e-6
-0.313, 1.4527573e-6, 2.6880339e-6
-0.314, 1.4833641e-6, 2.6426676e-6
-0.315, 1.4299999e-6, 2.7104118e-6
-0.316, 1.4782024e-6, 2.7399137e-6
-0.317, 1.4547526e-6, 2.7584824e-6
-0.318, 1.4528727e-6, 2.7187068e-6
-0.319, 1.4836941e-6, 2.7399303e-6
-0.320, 1.4372558e-6, 2.7364013e-6
-0.321, 1.4794230e-6, 2.6948940e-6
-0.322, 1.4363819e-6, 2.7605604e-6
-0.323, 1.4707158e-6, 2.7576909e-6
-0.324, 1.4659170e-6, 2.8332847e-6
-0.325, 1.4586774e-6, 2.7774799e-6
-0.326, 1.4703860e-6, 2.7570313e-6
-0.327, 1.4354089e-6, 2.7651777e-6
-0.328, 1.4762402e-6, 2.7298379e-6
-0.329, 1.4496570e-6, 2.8006989e-6
-0.330, 1.4468040e-6, 2.7408043e-6
-0.331, 1.4702044e-6, 2.8359893e-6
-0.332, 1.4231068e-6, 2.8165466e-6
-0.333, 1.4654881e-6, 2.8014247e-6
-0.334, 1.4407025e-6, 2.8014740e-6
-0.335, 1.4601947e-6, 2.7418268e-6
-0.336, 1.4659498e-6, 2.8479121e-6
-0.337, 1.4416754e-6, 2.8036509e-6
-0.338, 1.4603760e-6, 2.8447789e-6
-0.339, 1.4202703e-6, 2.8592085e-6
-0.340, 1.4685060e-6, 2.8420909e-6
-0.341, 1.4452869e-6, 2.8505176e-6
-0.342, 1.4423021e-6, 2.7640895e-6
-0.343, 1.4701716e-6, 2.8792283e-6
-0.344, 1.4310388e-6, 2.8369293e-6
-0.345, 1.4720021e-6, 2.8671404e-6
-0.346, 1.4228758e-6, 2.8748252e-6
-0.347, 1.4517184e-6, 2.8324769e-6
-0.348, 1.4613985e-6, 2.8980771e-6
-0.349, 1.4394326e-6, 2.7690699e-6
-0.350, 1.4753166e-6, 2.8685422e-6
-0.351, 1.4136575e-6, 2.8617974e-6
-0.352, 1.4783179e-6, 2.8904419e-6
-0.353, 1.4321438e-6, 2.8895845e-6
-0.354, 1.4350296e-6, 2.8309100e-6
-0.355, 1.4738985e-6, 2.8881166e-6
-0.356, 1.4326879e-6, 2.7695478e-6
-0.357, 1.4642349e-6, 2.8683112e-6
-0.358, 1.4047030e-6, 2.8490006e-6
-0.359, 1.4560553e-6, 2.8862203e-6
-0.360, 1.4499373e-6, 2.9157718e-6
-0.361, 1.4291919e-6, 2.8297393e-6
-0.362, 1.4697098e-6, 2.8502375e-6
-0.363, 1.4163785e-6, 2.8191357e-6
-0.364, 1.4639875e-6, 2.8804648e-6
-0.365, 1.4304946e-6, 2.8469556e-6
-0.366, 1.4612501e-6, 2.8576087e-6
-0.367, 1.4648451e-6, 2.9138423e-6
-0.368, 1.4351450e-6, 2.8272655e-6
-0.369, 1.4638886e-6, 2.8471700e-6
-0.370, 1.4190830e-6, 2.7742312e-6
-0.371, 1.4564841e-6, 2.8553495e-6
-0.372, 1.4362499e-6, 2.8456527e-6
-0.373, 1.4348813e-6, 2.8377538e-6
-0.374, 1.4771308e-6, 2.8581694e-6
-0.375, 1.4237499e-6, 2.8192508e-6
-0.376, 1.4571108e-6, 2.7959991e-6
-0.377, 1.4232552e-6, 2.7448448e-6
-0.378, 1.4564016e-6, 2.8079385e-6
-0.379, 1.4611180e-6, 2.8363024e-6
-0.380, 1.4213093e-6, 2.8376714e-6
-0.381, 1.4593536e-6, 2.8118302e-6
-0.382, 1.4229090e-6, 2.7979286e-6
-0.383, 1.4563357e-6, 2.7654746e-6
-0.384, 1.4399275e-6, 2.7463948e-6
-0.385, 1.4412797e-6, 2.7576250e-6
-0.386, 1.4590403e-6, 2.7725159e-6
-0.387, 1.4310717e-6, 2.7972028e-6
-0.388, 1.4693140e-6, 2.7492642e-6
-0.389, 1.4337598e-6, 2.7332353e-6
-0.390, 1.4548516e-6, 2.7067176e-6
-0.391, 1.4633938e-6, 2.7127535e-6
-0.392, 1.4323416e-6, 2.7206197e-6
-0.393, 1.4685885e-6, 2.7086803e-6
-0.394, 1.4065665e-6, 2.7391552e-6
-0.395, 1.4732058e-6, 2.7220378e-6
-0.396, 1.4348813e-6, 2.6969719e-6
-0.397, 1.4396636e-6, 2.5893198e-6
-0.398, 1.4683906e-6, 2.6299367e-6
-0.399, 1.4197757e-6, 2.6514076e-6
-0.400, 1.4683575e-6, 2.6558107e-6
-0.401, 1.4197262e-6, 2.6665793e-6
-0.402, 1.4578035e-6, 2.6075422e-6
-0.403, 1.4598813e-6, 2.6368300e-6
-0.404, 1.4370250e-6, 2.5613681e-6
-0.405, 1.4571108e-6, 2.5765394e-6
-0.406, 1.4112663e-6, 2.5752365e-6
-0.407, 1.4641523e-6, 2.5977961e-6
-0.408, 1.4372888e-6, 2.6068660e-6
-0.409, 1.4384102e-6, 2.5375716e-6
-0.410, 1.4705508e-6, 2.5716417e-6
-0.411, 1.4135751e-6, 2.4672386e-6
-0.412, 1.4720515e-6, 2.5187228e-6
-0.413, 1.4154715e-6, 2.4911171e-6
-0.414, 1.4591557e-6, 2.5142704e-6
-0.415, 1.4646965e-6, 2.5499894e-6
-0.416, 1.4380145e-6, 2.4516216e-6
-0.417, 1.4584466e-6, 2.4640392e-6
-0.418, 1.4330013e-6, 2.3888740e-6
-0.419, 1.4808575e-6, 2.4403914e-6
-0.420, 1.4377010e-6, 2.4387259e-6
-0.421, 1.4335290e-6, 2.4404080e-6
-0.422, 1.4728595e-6, 2.4599990e-6
-0.423, 1.4347328e-6, 2.3632640e-6
-0.424, 1.4814182e-6, 2.3956684e-6
-0.425, 1.4187202e-6, 2.3225316e-6
-0.426, 1.4624868e-6, 2.3682605e-6
-0.427, 1.4643338e-6, 2.3768030e-6
-0.428, 1.4557421e-6, 2.3372745e-6
-0.429, 1.4707323e-6, 2.3884950e-6
-0.430, 1.4345515e-6, 2.3193161e-6
-0.431, 1.4933740e-6, 2.3179143e-6
-0.432, 1.4494095e-6, 2.2503843e-6
-0.433, 1.4630144e-6, 2.2946788e-6
-0.434, 1.4746075e-6, 2.3168093e-6
-0.435, 1.4377836e-6, 2.3009782e-6
-0.436, 1.4758114e-6, 2.2786003e-6
-0.437, 1.4411808e-6, 2.2408858e-6
-0.438, 1.4719526e-6, 2.2657869e-6
-0.439, 1.4675329e-6, 2.1991639e-6
-0.440, 1.4566820e-6, 2.2122742e-6
-0.441, 1.4740963e-6, 2.2458494e-6
-0.442, 1.4372888e-6, 2.2589268e-6
-0.443, 1.4794064e-6, 2.2396325e-6
-0.444, 1.4580014e-6, 2.1920068e-6
-0.445, 1.4847659e-6, 2.1489000e-6
-0.446, 1.4943471e-6, 2.2117629e-6
-0.447, 1.4364313e-6, 2.1861856e-6
-0.448, 1.4807422e-6, 2.1854601e-6
-0.449, 1.4517514e-6, 2.2198435e-6
-0.450, 1.4735850e-6, 2.2185407e-6
-0.451, 1.4806267e-6, 2.1741967e-6
-0.452, 1.4541260e-6, 2.0838602e-6
-0.453, 1.4863325e-6, 2.1172705e-6
-0.454, 1.4515864e-6, 2.1508458e-6
-0.455, 1.4900430e-6, 2.1730755e-6
-0.456, 1.4418733e-6, 2.1897313e-6
-0.457, 1.4737335e-6, 2.1165451e-6
-0.458, 1.4962435e-6, 2.1617793e-6
-0.459, 1.4581497e-6, 2.0624389e-6
-0.460, 1.4894988e-6, 2.1019341e-6
-0.461, 1.4350131e-6, 2.1330359e-6
-0.462, 1.4892679e-6, 2.1507799e-6
-0.463, 1.4598153e-6, 2.1609380e-6
-0.464, 1.4594525e-6, 2.0832995e-6
-0.465, 1.4962600e-6, 2.1330193e-6
-0.466, 1.4455013e-6, 2.0577058e-6
-0.467, 1.5103926e-6, 2.1068813e-6
-0.468, 1.4370085e-6, 2.1224819e-6
-0.469, 1.4841393e-6, 2.1244771e-6
-0.470, 1.4845680e-6, 2.1573103e-6
-0.471, 1.4683740e-6, 2.0888569e-6
-0.472, 1.5008939e-6, 2.0988339e-6
-0.473, 1.4426978e-6, 2.0488503e-6
-0.474, 1.4952210e-6, 2.1145497e-6
-0.475, 1.4574900e-6, 2.1026763e-6
-0.476, 1.4699407e-6, 2.0804632e-6
-0.477, 1.4908840e-6, 2.1325575e-6
-0.478, 1.4506959e-6, 2.0826401e-6
-0.479, 1.4946439e-6, 2.1029236e-6
-0.480, 1.4628167e-6, 2.0196615e-6
-0.481, 1.4880475e-6, 2.1048365e-6
-0.482, 1.4909665e-6, 2.1253018e-6
-0.483, 1.4762567e-6, 2.0938867e-6
-0.484, 1.4880641e-6, 2.1215583e-6
-0.485, 1.4691821e-6, 2.0798859e-6
-0.486, 1.5108049e-6, 2.1159512e-6
-0.487, 1.4867943e-6, 2.0422540e-6
-0.488, 1.4880475e-6, 2.0903412e-6
-0.489, 1.4994262e-6, 2.1160668e-6
-0.490, 1.4762237e-6, 2.1023959e-6
-0.491, 1.5052475e-6, 2.1195465e-6
-0.492, 1.4675494e-6, 2.0770826e-6
-0.493, 1.5057917e-6, 2.0575740e-6
-0.494, 1.5070945e-6, 2.0670395e-6
-0.495, 1.4787962e-6, 2.0752354e-6
-0.496, 1.5055278e-6, 2.0997079e-6
-0.497, 1.4675494e-6, 2.1129006e-6
-0.498, 1.5259270e-6, 2.1095034e-6
-0.499, 1.4833806e-6, 2.0901102e-6
-0.500, 1.4820449e-6, 2.0753509e-6
