Dec. 21, 2005   06:00:32
Square Wave Voltammetry
File: d:\ida_biofilms\12_10_18_dphzstar\a_760b\75um_pyo\a_75um_pyo_swvfast_1_3.txt
Data Source:  Experiment
Instrument Model:  CHI760E
Header: 
Note: 

Init E (V) = 0.1
Final E (V) = -0.5
Incr E (V) = 0.001
Amplitude (V) = 0.025
Frequency (Hz) = 300
Quiet Time (sec) = 2
Sensitivity (A/V) = 1e-6
Sens 2 (A/V) = 1e-6

Potential/V, i1/A, i2/A

0.099, 1.4797031e-6, 1.7781538e-6
0.098, 1.4627177e-6, 1.9282202e-6
0.097, 1.4611180e-6, 1.9505817e-6
0.096, 1.4609861e-6, 1.9504496e-6
0.095, 1.4934070e-6, 2.0392856e-6
0.094, 1.4538786e-6, 1.9513732e-6
0.093, 1.5005312e-6, 1.9761424e-6
0.092, 1.4721834e-6, 1.9444142e-6
0.091, 1.4912962e-6, 1.9248723e-6
0.090, 1.4940997e-6, 2.0184411e-6
0.089, 1.4564182e-6, 1.9546383e-6
0.088, 1.5026585e-6, 2.0015877e-6
0.087, 1.4553464e-6, 1.9674846e-6
0.086, 1.4825067e-6, 1.9785334e-6
0.085, 1.4976451e-6, 1.9708652e-6
0.084, 1.4800825e-6, 1.9086951e-6
0.083, 1.5050662e-6, 1.9834476e-6
0.082, 1.4520151e-6, 1.9671879e-6
0.081, 1.4929124e-6, 2.0074749e-6
0.080, 1.4692646e-6, 2.0130321e-6
0.079, 1.4909169e-6, 1.9933586e-6
0.078, 1.5041755e-6, 1.9893021e-6
0.077, 1.4602442e-6, 1.9317986e-6
0.076, 1.4842713e-6, 1.9280717e-6
0.075, 1.4428298e-6, 1.9639226e-6
0.074, 1.4936215e-6, 1.9868448e-6
0.073, 1.4653067e-6, 2.0054795e-6
0.072, 1.4589413e-6, 1.9700242e-6
0.071, 1.5051650e-6, 1.9718714e-6
0.070, 1.4565832e-6, 1.9613665e-6
0.069, 1.4910160e-6, 1.9278573e-6
0.068, 1.4582156e-6, 1.9690349e-6
0.067, 1.4625527e-6, 1.9636589e-6
0.066, 1.4774109e-6, 2.0137909e-6
0.065, 1.4472494e-6, 2.0053640e-6
0.064, 1.4844195e-6, 1.9653407e-6
0.063, 1.4290765e-6, 1.9536324e-6
0.062, 1.4760753e-6, 1.9264555e-6
0.061, 1.4450725e-6, 1.9293086e-6
0.060, 1.4518668e-6, 1.9339425e-6
0.059, 1.4670877e-6, 1.9772142e-6
0.058, 1.4246569e-6, 1.9769668e-6
0.057, 1.4803958e-6, 1.9749714e-6
0.056, 1.4407190e-6, 1.9249712e-6
0.055, 1.4623549e-6, 1.9550835e-6
0.054, 1.4646471e-6, 1.9204199e-6
0.053, 1.4549505e-6, 1.9480915e-6
0.052, 1.4653726e-6, 1.9658025e-6
0.051, 1.4188522e-6, 1.9512413e-6
0.050, 1.4595020e-6, 2.0106081e-6
0.049, 1.4326055e-6, 1.9888237e-6
0.048, 1.4532025e-6, 1.9295062e-6
0.047, 1.4615632e-6, 1.9430947e-6
0.046, 1.4071436e-6, 1.9170063e-6
0.045, 1.4662962e-6, 1.9462941e-6
0.044, 1.4126681e-6, 1.9260929e-6
0.043, 1.4572262e-6, 1.9823924e-6
0.042, 1.4469524e-6, 1.9831509e-6
0.041, 1.4320942e-6, 1.9186555e-6
0.040, 1.4584300e-6, 1.9378176e-6
0.039, 1.4132288e-6, 1.8892028e-6
0.038, 1.4585290e-6, 1.9332663e-6
0.037, 1.4140699e-6, 1.9467227e-6
0.036, 1.4236180e-6, 1.9470360e-6
0.035, 1.4553464e-6, 2.0058753e-6
0.034, 1.4146965e-6, 1.9087445e-6
0.033, 1.4547527e-6, 1.9346846e-6
0.032, 1.4016853e-6, 1.8984872e-6
0.031, 1.4452044e-6, 1.8913631e-6
0.030, 1.4385751e-6, 1.9614986e-6
0.029, 1.4211114e-6, 1.9167423e-6
0.028, 1.4619920e-6, 1.9706674e-6
0.027, 1.3993435e-6, 1.9545228e-6
0.026, 1.4597165e-6, 1.9227616e-6
0.025, 1.4189346e-6, 1.9151098e-6
0.024, 1.4484860e-6, 1.8736355e-6
0.023, 1.4480245e-6, 1.9432762e-6
0.022, 1.4097986e-6, 1.9054133e-6
0.021, 1.4457157e-6, 1.9265051e-6
0.020, 1.4009431e-6, 1.9448923e-6
0.019, 1.4272625e-6, 1.9521976e-6
0.018, 1.4405706e-6, 1.9152089e-6
0.017, 1.4194952e-6, 1.9001363e-6
0.016, 1.4437862e-6, 1.8809410e-6
0.015, 1.4028560e-6, 1.9047866e-6
0.014, 1.4335619e-6, 1.9200900e-6
0.013, 1.4025757e-6, 1.9238994e-6
0.012, 1.4372395e-6, 1.9399449e-6
0.011, 1.4390698e-6, 1.9269999e-6
0.010, 1.3980903e-6, 1.9258289e-6
0.009, 1.4307254e-6, 1.8644337e-6
0.008, 1.3864312e-6, 1.8753672e-6
0.007, 1.4350956e-6, 1.9300837e-6
0.006, 1.4018171e-6, 1.9422866e-6
0.005, 1.4032684e-6, 1.9249219e-6
0.004, 1.4432916e-6, 1.9306938e-6
0.003, 1.4026912e-6, 1.8760596e-6
0.002, 1.4277077e-6, 1.9172041e-6
0.001, 1.3867941e-6, 1.8541929e-6
-0.000, 1.4214742e-6, 1.9063532e-6
-0.001, 1.4250857e-6, 1.9195954e-6
-0.002, 1.3951714e-6, 1.9136423e-6
-0.003, 1.4233542e-6, 1.9304134e-6
-0.004, 1.3697920e-6, 1.8945294e-6
-0.005, 1.4232883e-6, 1.9111851e-6
-0.006, 1.3860025e-6, 1.8521974e-6
-0.007, 1.3974636e-6, 1.8249546e-6
-0.008, 1.4180112e-6, 1.9186718e-6
-0.009, 1.3678955e-6, 1.9083323e-6
-0.010, 1.4198747e-6, 1.9302813e-6
-0.011, 1.3753988e-6, 1.8924679e-6
-0.012, 1.4148119e-6, 1.8850305e-6
-0.013, 1.4061047e-6, 1.9197769e-6
-0.014, 1.3988817e-6, 1.8429130e-6
-0.015, 1.4141854e-6, 1.9100144e-6
-0.016, 1.3714246e-6, 1.8903243e-6
-0.017, 1.4186212e-6, 1.9240974e-6
-0.018, 1.3839742e-6, 1.9407034e-6
-0.019, 1.3860024e-6, 1.8786818e-6
-0.020, 1.4170546e-6, 1.9092063e-6
-0.021, 1.3663785e-6, 1.8373559e-6
-0.022, 1.4075559e-6, 1.8542258e-6
-0.023, 1.3783507e-6, 1.8749713e-6
-0.024, 1.4054121e-6, 1.8864488e-6
-0.025, 1.4064181e-6, 1.9358388e-6
-0.026, 1.3959134e-6, 1.8912147e-6
-0.027, 1.4192644e-6, 1.8797866e-6
-0.028, 1.3746403e-6, 1.8744599e-6
-0.029, 1.4110685e-6, 1.8421381e-6
-0.030, 1.3727274e-6, 1.8946778e-6
-0.031, 1.3763058e-6, 1.8895491e-6
-0.032, 1.4160157e-6, 1.9259774e-6
-0.033, 1.3706001e-6, 1.8999053e-6
-0.034, 1.4163950e-6, 1.9120262e-6
-0.035, 1.3577043e-6, 1.8698261e-6
-0.036, 1.4010091e-6, 1.8489818e-6
-0.037, 1.3969523e-6, 1.8751856e-6
-0.038, 1.3793897e-6, 1.8567655e-6
-0.039, 1.3987828e-6, 1.8983718e-6
-0.040, 1.3645480e-6, 1.9311719e-6
-0.041, 1.4101615e-6, 1.8958651e-6
-0.042, 1.3680935e-6, 1.8601460e-6
-0.043, 1.4094524e-6, 1.8703372e-6
-0.044, 1.4061872e-6, 1.8598823e-6
-0.045, 1.3738487e-6, 1.8574250e-6
-0.046, 1.4000361e-6, 1.8805781e-6
-0.047, 1.3589081e-6, 1.8770161e-6
-0.048, 1.3931265e-6, 1.9410004e-6
-0.049, 1.3886740e-6, 1.8649450e-6
-0.050, 1.3857716e-6, 1.8447272e-6
-0.051, 1.4085454e-6, 1.8488663e-6
-0.052, 1.3676977e-6, 1.8174513e-6
-0.053, 1.3969689e-6, 1.8851460e-6
-0.054, 1.3601449e-6, 1.8576724e-6
-0.055, 1.4002505e-6, 1.8859871e-6
-0.056, 1.4004154e-6, 1.9068480e-6
-0.057, 1.3639873e-6, 1.8603934e-6
-0.058, 1.4001681e-6, 1.8566006e-6
-0.059, 1.3534167e-6, 1.8175833e-6
-0.060, 1.3995084e-6, 1.8666929e-6
-0.061, 1.3724305e-6, 1.8828539e-6
-0.062, 1.3695941e-6, 1.8637081e-6
-0.063, 1.4128495e-6, 1.9152913e-6
-0.064, 1.3644985e-6, 1.8642852e-6
-0.065, 1.4076054e-6, 1.8587114e-6
-0.066, 1.3568302e-6, 1.8404889e-6
-0.067, 1.3902900e-6, 1.8133617e-6
-0.068, 1.3983706e-6, 1.9064687e-6
-0.069, 1.3621402e-6, 1.8599976e-6
-0.070, 1.3938521e-6, 1.8846843e-6
-0.071, 1.3473810e-6, 1.8644503e-6
-0.072, 1.3983871e-6, 1.8551823e-6
-0.073, 1.3660981e-6, 1.8706836e-6
-0.074, 1.3767841e-6, 1.7829857e-6
-0.075, 1.3954848e-6, 1.8502186e-6
-0.076, 1.3350789e-6, 1.8649284e-6
-0.077, 1.3939346e-6, 1.8766368e-6
-0.078, 1.3547359e-6, 1.8852780e-6
-0.079, 1.3871899e-6, 1.8729099e-6
-0.080, 1.3852605e-6, 1.8826395e-6
-0.081, 1.3714906e-6, 1.8479759e-6
-0.082, 1.3912795e-6, 1.8172534e-6
-0.083, 1.3537465e-6, 1.8620590e-6
-0.084, 1.3807585e-6, 1.8785993e-6
-0.085, 1.3675328e-6, 1.8818810e-6
-0.086, 1.3724634e-6, 1.8624053e-6
-0.087, 1.3888554e-6, 1.8766862e-6
-0.088, 1.3586277e-6, 1.8515543e-6
-0.089, 1.3960619e-6, 1.8221017e-6
-0.090, 1.3515862e-6, 1.8352778e-6
-0.091, 1.3918402e-6, 1.8600472e-6
-0.092, 1.3845678e-6, 1.9131310e-6
-0.093, 1.3693138e-6, 1.8851131e-6
-0.094, 1.3915104e-6, 1.8824087e-6
-0.095, 1.3555605e-6, 1.8562872e-6
-0.096, 1.3996898e-6, 1.8662477e-6
-0.097, 1.3526910e-6, 1.8135100e-6
-0.098, 1.3767841e-6, 1.8600141e-6
-0.099, 1.3837928e-6, 1.8743941e-6
-0.100, 1.3609365e-6, 1.8603769e-6
-0.101, 1.3943798e-6, 1.8797537e-6
-0.102, 1.3356726e-6, 1.8277251e-6
-0.103, 1.3813851e-6, 1.8626855e-6
-0.104, 1.3841885e-6, 1.8214751e-6
-0.105, 1.3690828e-6, 1.8095523e-6
-0.106, 1.4002339e-6, 1.8819469e-6
-0.107, 1.3505637e-6, 1.8693975e-6
-0.108, 1.4034993e-6, 1.9129002e-6
-0.109, 1.3622227e-6, 1.8414455e-6
-0.110, 1.3939840e-6, 1.8560397e-6
-0.111, 1.4039281e-6, 1.8597502e-6
-0.112, 1.3620743e-6, 1.7883617e-6
-0.113, 1.3984695e-6, 1.8668412e-6
-0.114, 1.3470677e-6, 1.8356077e-6
-0.115, 1.3841226e-6, 1.8883125e-6
-0.116, 1.3827869e-6, 1.8734540e-6
-0.117, 1.3674999e-6, 1.8337278e-6
-0.118, 1.4156200e-6, 1.8458650e-6
-0.119, 1.3552636e-6, 1.7920390e-6
-0.120, 1.3977605e-6, 1.8416763e-6
-0.121, 1.3634760e-6, 1.8576559e-6
-0.122, 1.3928627e-6, 1.8566005e-6
-0.123, 1.4001516e-6, 1.9241963e-6
-0.124, 1.3687201e-6, 1.8861355e-6
-0.125, 1.3989147e-6, 1.8497238e-6
-0.126, 1.3557749e-6, 1.8296051e-6
-0.127, 1.4032519e-6, 1.8250867e-6
-0.128, 1.3784827e-6, 1.8873559e-6
-0.129, 1.3729583e-6, 1.8399119e-6
-0.130, 1.4152076e-6, 1.8888070e-6
-0.131, 1.3694128e-6, 1.8656539e-6
-0.132, 1.4042248e-6, 1.8568974e-6
-0.133, 1.3668237e-6, 1.8617457e-6
-0.134, 1.3968040e-6, 1.8088925e-6
-0.135, 1.4169887e-6, 1.8821777e-6
-0.136, 1.3753495e-6, 1.8525438e-6
-0.137, 1.4076054e-6, 1.8741632e-6
-0.138, 1.3501844e-6, 1.8983883e-6
-0.139, 1.4117446e-6, 1.8939027e-6
-0.140, 1.3836607e-6, 1.8683750e-6
-0.141, 1.3874371e-6, 1.7791432e-6
-0.142, 1.4062862e-6, 1.8233550e-6
-0.143, 1.3475953e-6, 1.8586288e-6
-0.144, 1.4039609e-6, 1.8647966e-6
-0.145, 1.3692478e-6, 1.8778571e-6
-0.146, 1.3948745e-6, 1.8691005e-6
-0.147, 1.3931924e-6, 1.8828209e-6
-0.148, 1.3816159e-6, 1.8548194e-6
-0.149, 1.4146635e-6, 1.8137575e-6
-0.150, 1.3739807e-6, 1.8650603e-6
-0.151, 1.4015533e-6, 1.8754824e-6
-0.152, 1.3744095e-6, 1.9009772e-6
-0.153, 1.3944953e-6, 1.9028572e-6
-0.154, 1.4104254e-6, 1.9071449e-6
-0.155, 1.3681429e-6, 1.8584146e-6
-0.156, 1.4239642e-6, 1.8382298e-6
-0.157, 1.3769820e-6, 1.8149448e-6
-0.158, 1.4160652e-6, 1.8628505e-6
-0.159, 1.4006463e-6, 1.8935730e-6
-0.160, 1.4007453e-6, 1.8844864e-6
-0.161, 1.4159992e-6, 1.8833980e-6
-0.162, 1.3702537e-6, 1.8506308e-6
-0.163, 1.4240303e-6, 1.8797371e-6
-0.164, 1.3740466e-6, 1.8176493e-6
-0.165, 1.3971833e-6, 1.8702549e-6
-0.166, 1.4178463e-6, 1.9044239e-6
-0.167, 1.3827868e-6, 1.8596347e-6
-0.168, 1.4258771e-6, 1.9137083e-6
-0.169, 1.3687367e-6, 1.8534508e-6
-0.170, 1.4252176e-6, 1.8722997e-6
-0.171, 1.4213258e-6, 1.8603934e-6
-0.172, 1.4025921e-6, 1.7995424e-6
-0.173, 1.4342711e-6, 1.9020821e-6
-0.174, 1.3842380e-6, 1.8857397e-6
-0.175, 1.4310554e-6, 1.9118447e-6
-0.176, 1.4036148e-6, 1.8950075e-6
-0.177, 1.4326220e-6, 1.8722337e-6
-0.178, 1.4423515e-6, 1.9023461e-6
-0.179, 1.4049833e-6, 1.8096512e-6
-0.180, 1.4421207e-6, 1.8656045e-6
-0.181, 1.3937037e-6, 1.8766698e-6
-0.182, 1.4292414e-6, 1.9166600e-6
-0.183, 1.4386246e-6, 1.9286983e-6
-0.184, 1.4183574e-6, 1.8852782e-6
-0.185, 1.4642183e-6, 1.8779397e-6
-0.186, 1.4074405e-6, 1.8286486e-6
-0.187, 1.4460289e-6, 1.8571448e-6
-0.188, 1.4089907e-6, 1.8929462e-6
-0.189, 1.4401749e-6, 1.8745260e-6
-0.190, 1.4541920e-6, 1.9448923e-6
-0.191, 1.4188852e-6, 1.9224813e-6
-0.192, 1.4628166e-6, 1.8830847e-6
-0.193, 1.4266028e-6, 1.9024285e-6
-0.194, 1.4688358e-6, 1.8640213e-6
-0.195, 1.4498714e-6, 1.9270988e-6
-0.196, 1.4469855e-6, 1.8871415e-6
-0.197, 1.4874043e-6, 1.9354595e-6
-0.198, 1.4484201e-6, 1.9590743e-6
-0.199, 1.4897462e-6, 1.9366962e-6
-0.200, 1.4541920e-6, 1.9227450e-6
-0.201, 1.4933576e-6, 1.8850470e-6
-0.202, 1.4986676e-6, 1.9098823e-6
-0.203, 1.4692976e-6, 1.9283850e-6
-0.204, 1.4946274e-6, 1.9371580e-6
-0.205, 1.4629650e-6, 1.9554134e-6
-0.206, 1.5037303e-6, 1.9714919e-6
-0.207, 1.4848154e-6, 1.9494437e-6
-0.208, 1.5054784e-6, 1.9182596e-6
-0.209, 1.5272792e-6, 1.9186884e-6
-0.210, 1.4884104e-6, 1.9595359e-6
-0.211, 1.5418075e-6, 1.9766865e-6
-0.212, 1.5016030e-6, 1.9848660e-6
-0.213, 1.5429619e-6, 1.9982399e-6
-0.214, 1.5469363e-6, 2.0299683e-6
-0.215, 1.5470023e-6, 1.9804299e-6
-0.216, 1.5699244e-6, 1.9664292e-6
-0.217, 1.5310720e-6, 1.9669076e-6
-0.218, 1.5761744e-6, 2.0251034e-6
-0.219, 1.5599969e-6, 2.0194802e-6
-0.220, 1.5784831e-6, 2.0645002e-6
-0.221, 1.6036811e-6, 2.0706677e-6
-0.222, 1.5769660e-6, 2.0319142e-6
-0.223, 1.6308086e-6, 2.0515054e-6
-0.224, 1.5881467e-6, 2.0069801e-6
-0.225, 1.6458810e-6, 2.0602290e-6
-0.226, 1.6407193e-6, 2.1088274e-6
-0.227, 1.6379984e-6, 2.1009778e-6
-0.228, 1.6797367e-6, 2.1440846e-6
-0.229, 1.6310559e-6, 2.0935897e-6
-0.230, 1.7068146e-6, 2.1040121e-6
-0.231, 1.6703699e-6, 2.0921882e-6
-0.232, 1.6890374e-6, 2.0788470e-6
-0.233, 1.7269333e-6, 2.1671058e-6
-0.234, 1.6915440e-6, 2.1213932e-6
-0.235, 1.7466728e-6, 2.1900446e-6
-0.236, 1.7094533e-6, 2.1861526e-6
-0.237, 1.7573918e-6, 2.1808921e-6
-0.238, 1.7742784e-6, 2.2042925e-6
-0.239, 1.7714915e-6, 2.1259614e-6
-0.240, 1.8125371e-6, 2.2436395e-6
-0.241, 1.7732559e-6, 2.2298864e-6
-0.242, 1.8297369e-6, 2.2830197e-6
-0.243, 1.8155549e-6, 2.2815354e-6
-0.244, 1.8511585e-6, 2.2538968e-6
-0.245, 1.8658683e-6, 2.3190687e-6
-0.246, 1.8398459e-6, 2.2228116e-6
-0.247, 1.8971679e-6, 2.2598667e-6
-0.248, 1.8607232e-6, 2.3078383e-6
-0.249, 1.8925340e-6, 2.3401440e-6
-0.250, 1.9196614e-6, 2.3886269e-6
-0.251, 1.8991467e-6, 2.3452394e-6
-0.252, 1.9558422e-6, 2.3424031e-6
-0.253, 1.9211291e-6, 2.3511761e-6
-0.254, 1.9650276e-6, 2.3324260e-6
-0.255, 1.9496911e-6, 2.3986531e-6
-0.256, 1.9600475e-6, 2.3853947e-6
-0.257, 1.9952881e-6, 2.4546230e-6
-0.258, 1.9565841e-6, 2.4334158e-6
-0.259, 2.0010104e-6, 2.4163642e-6
-0.260, 1.9770823e-6, 2.4256981e-6
-0.261, 2.0246252e-6, 2.3889236e-6
-0.262, 2.0074090e-6, 2.4201242e-6
-0.263, 2.0118778e-6, 2.4451408e-6
-0.264, 2.0567163e-6, 2.4618296e-6
-0.265, 2.0165778e-6, 2.5116647e-6
-0.266, 2.0627353e-6, 2.4594219e-6
-0.267, 2.0350144e-6, 2.4538315e-6
-0.268, 2.0612019e-6, 2.4490162e-6
-0.269, 2.0656544e-6, 2.4451078e-6
-0.270, 2.0470529e-6, 2.4769352e-6
-0.271, 2.0690350e-6, 2.4697615e-6
-0.272, 2.0291272e-6, 2.4892538e-6
-0.273, 2.0646321e-6, 2.5176014e-6
-0.274, 2.0378509e-6, 2.4831190e-6
-0.275, 2.0531872e-6, 2.4455198e-6
-0.276, 2.0651926e-6, 2.4344877e-6
-0.277, 2.0088601e-6, 2.4448768e-6
-0.278, 2.0593550e-6, 2.4783039e-6
-0.279, 2.0207335e-6, 2.4507146e-6
-0.280, 2.0415778e-6, 2.4809588e-6
-0.281, 2.0397474e-6, 2.4975816e-6
-0.282, 2.0217394e-6, 2.4357246e-6
-0.283, 2.0241637e-6, 2.4431124e-6
-0.284, 1.9839754e-6, 2.3873076e-6
-0.285, 2.0139887e-6, 2.4393194e-6
-0.286, 1.9771317e-6, 2.4337951e-6
-0.287, 1.9725969e-6, 2.4280894e-6
-0.288, 1.9856575e-6, 2.4327067e-6
-0.289, 1.9495592e-6, 2.3837126e-6
-0.290, 1.9857566e-6, 2.3687226e-6
-0.291, 1.9267359e-6, 2.3156715e-6
-0.292, 1.9696943e-6, 2.3575251e-6
-0.293, 1.9358718e-6, 2.3808266e-6
-0.294, 1.9043250e-6, 2.3507969e-6
-0.295, 1.9155386e-6, 2.3838609e-6
-0.296, 1.8833816e-6, 2.3094544e-6
-0.297, 1.9048196e-6, 2.3137586e-6
-0.298, 1.8473656e-6, 2.2397478e-6
-0.299, 1.8525106e-6, 2.2076238e-6
-0.300, 1.8540114e-6, 2.3028251e-6
-0.301, 1.8079032e-6, 2.2249885e-6
-0.302, 1.8261419e-6, 2.2837287e-6
-0.303, 1.7784341e-6, 2.2337617e-6
-0.304, 1.8135099e-6, 2.2141708e-6
-0.305, 1.7955515e-6, 2.1825247e-6
-0.306, 1.7631637e-6, 2.1185238e-6
-0.307, 1.7913135e-6, 2.2160011e-6
-0.308, 1.7231898e-6, 2.1789792e-6
-0.309, 1.7503997e-6, 2.2020333e-6
-0.310, 1.7126854e-6, 2.1861197e-6
-0.311, 1.7301327e-6, 2.1352125e-6
-0.312, 1.7247071e-6, 2.1656876e-6
-0.313, 1.6836944e-6, 2.0564196e-6
-0.314, 1.6991463e-6, 2.1028081e-6
-0.315, 1.6448421e-6, 2.1049025e-6
-0.316, 1.6622895e-6, 2.1290120e-6
-0.317, 1.6597169e-6, 2.1455523e-6
-0.318, 1.6257459e-6, 2.0817165e-6
-0.319, 1.6644663e-6, 2.0638900e-6
-0.320, 1.6055611e-6, 2.0051330e-6
-0.321, 1.6347662e-6, 2.0094537e-6
-0.322, 1.5911976e-6, 2.0572111e-6
-0.323, 1.6016527e-6, 2.0181114e-6
-0.324, 1.6159502e-6, 2.0876696e-6
-0.325, 1.5617119e-6, 2.0405225e-6
-0.326, 1.5990802e-6, 1.9942822e-6
-0.327, 1.5540107e-6, 2.0035172e-6
-0.328, 1.5834469e-6, 1.9678309e-6
-0.329, 1.5580675e-6, 2.0218877e-6
-0.330, 1.5400925e-6, 1.9595855e-6
-0.331, 1.5726124e-6, 2.0287480e-6
-0.332, 1.5256467e-6, 2.0009941e-6
-0.333, 1.5577542e-6, 1.9858555e-6
-0.334, 1.5088920e-6, 1.9833819e-6
-0.335, 1.5436875e-6, 1.9162148e-6
-0.336, 1.5319132e-6, 1.9373065e-6
-0.337, 1.5068141e-6, 1.9496747e-6
-0.338, 1.5182916e-6, 1.9856575e-6
-0.339, 1.4814348e-6, 1.9918746e-6
-0.340, 1.5218702e-6, 1.9616471e-6
-0.341, 1.4919228e-6, 1.9547538e-6
-0.342, 1.4945284e-6, 1.8956671e-6
-0.343, 1.5099638e-6, 1.9119270e-6
-0.344, 1.4579848e-6, 1.9346680e-6
-0.345, 1.4995087e-6, 1.9333486e-6
-0.346, 1.4670711e-6, 1.9557763e-6
-0.347, 1.4916920e-6, 1.9410170e-6
-0.348, 1.4857718e-6, 1.9375702e-6
-0.349, 1.4786643e-6, 1.9013236e-6
-0.350, 1.4887237e-6, 1.8770655e-6
-0.351, 1.4505310e-6, 1.9308586e-6
-0.352, 1.4879321e-6, 1.9393515e-6
-0.353, 1.4536313e-6, 1.9558586e-6
-0.354, 1.4612830e-6, 1.9566996e-6
-0.355, 1.4851452e-6, 1.9263236e-6
-0.356, 1.4584796e-6, 1.8960795e-6
-0.357, 1.4790601e-6, 1.8870260e-6
-0.358, 1.4311872e-6, 1.8636422e-6
-0.359, 1.4768832e-6, 1.9107563e-6
-0.360, 1.4617613e-6, 1.9620261e-6
-0.361, 1.4515039e-6, 1.9406707e-6
-0.362, 1.4821769e-6, 1.9495428e-6
-0.363, 1.4335290e-6, 1.8934904e-6
-0.364, 1.4881136e-6, 1.9153902e-6
-0.365, 1.4484202e-6, 1.8579692e-6
-0.366, 1.4521636e-6, 1.8943974e-6
-0.367, 1.4740469e-6, 1.9267359e-6
-0.368, 1.4339413e-6, 1.9014224e-6
-0.369, 1.4691491e-6, 1.9330519e-6
-0.370, 1.4280705e-6, 1.8626525e-6
-0.371, 1.4563852e-6, 1.9123063e-6
-0.372, 1.4643667e-6, 1.8500373e-6
-0.373, 1.4438851e-6, 1.8637904e-6
-0.374, 1.4692481e-6, 1.9293579e-6
-0.375, 1.4284992e-6, 1.8941830e-6
-0.376, 1.4671703e-6, 1.9530880e-6
-0.377, 1.4469031e-6, 1.8785663e-6
-0.378, 1.4704848e-6, 1.8946614e-6
-0.379, 1.4723483e-6, 1.8987676e-6
-0.380, 1.4228430e-6, 1.8472667e-6
-0.381, 1.4742118e-6, 1.9053144e-6
-0.382, 1.4129320e-6, 1.8946614e-6
-0.383, 1.4571439e-6, 1.9332333e-6
-0.384, 1.4466887e-6, 1.9289621e-6
-0.385, 1.4264378e-6, 1.8720689e-6
-0.386, 1.4820944e-6, 1.8944963e-6
-0.387, 1.4425659e-6, 1.8305120e-6
-0.388, 1.4688522e-6, 1.9064522e-6
-0.389, 1.4172690e-6, 1.9012741e-6
-0.390, 1.4593206e-6, 1.9100637e-6
-0.391, 1.4691821e-6, 1.9696120e-6
-0.392, 1.4303132e-6, 1.9043415e-6
-0.393, 1.4722989e-6, 1.8959970e-6
-0.394, 1.4130310e-6, 1.8480252e-6
-0.395, 1.4651418e-6, 1.8565015e-6
-0.396, 1.4269491e-6, 1.9187873e-6
-0.397, 1.4294062e-6, 1.8623558e-6
-0.398, 1.4772297e-6, 1.9372076e-6
-0.399, 1.4157025e-6, 1.9186225e-6
-0.400, 1.4629981e-6, 1.8937708e-6
-0.401, 1.4297857e-6, 1.8773294e-6
-0.402, 1.4572593e-6, 1.8567819e-6
-0.403, 1.4657026e-6, 1.9343051e-6
-0.404, 1.4273614e-6, 1.9042094e-6
-0.405, 1.4664940e-6, 1.9329364e-6
-0.406, 1.4317644e-6, 1.9235367e-6
-0.407, 1.4678793e-6, 1.9140050e-6
-0.408, 1.4473978e-6, 1.9248891e-6
-0.409, 1.4449240e-6, 1.8271480e-6
-0.410, 1.4630805e-6, 1.8676824e-6
-0.411, 1.4179948e-6, 1.9095855e-6
-0.412, 1.4700231e-6, 1.9065842e-6
-0.413, 1.4356233e-6, 1.9090742e-6
-0.414, 1.4678792e-6, 1.8956342e-6
-0.415, 1.4616788e-6, 1.9339093e-6
-0.416, 1.4578363e-6, 1.8630815e-6
-0.417, 1.4730740e-6, 1.8680946e-6
-0.418, 1.4380639e-6, 1.9136421e-6
-0.419, 1.4619097e-6, 1.9271481e-6
-0.420, 1.4399275e-6, 1.9414786e-6
-0.421, 1.4483543e-6, 1.9515710e-6
-0.422, 1.4853266e-6, 1.9346514e-6
-0.423, 1.4460455e-6, 1.9059739e-6
-0.424, 1.4866458e-6, 1.8674846e-6
-0.425, 1.4323251e-6, 1.8854100e-6
-0.426, 1.4807587e-6, 1.9179297e-6
-0.427, 1.4669063e-6, 1.9454860e-6
-0.428, 1.4693304e-6, 1.9388895e-6
-0.429, 1.4889051e-6, 1.9613831e-6
-0.430, 1.4308245e-6, 1.9109214e-6
-0.431, 1.4938687e-6, 1.9325407e-6
-0.432, 1.4514380e-6, 1.8650603e-6
-0.433, 1.4864645e-6, 1.9290283e-6
-0.434, 1.4918734e-6, 1.9478771e-6
-0.435, 1.4506794e-6, 1.9314193e-6
-0.436, 1.4918734e-6, 1.9796385e-6
-0.437, 1.4335620e-6, 1.8905880e-6
-0.438, 1.4789446e-6, 1.9305949e-6
-0.439, 1.4864313e-6, 1.8796877e-6
-0.440, 1.4539446e-6, 1.8517687e-6
-0.441, 1.5038623e-6, 1.9487841e-6
-0.442, 1.4415600e-6, 1.9129825e-6
-0.443, 1.4812864e-6, 1.9761917e-6
-0.444, 1.4647296e-6, 1.9246249e-6
-0.445, 1.4906036e-6, 1.9130487e-6
-0.446, 1.4995911e-6, 1.9392853e-6
-0.447, 1.4480079e-6, 1.8757132e-6
-0.448, 1.5002179e-6, 1.9187873e-6
-0.449, 1.4463258e-6, 1.9098657e-6
-0.450, 1.4941986e-6, 1.9662809e-6
-0.451, 1.4742284e-6, 1.9472177e-6
-0.452, 1.4644988e-6, 1.9109211e-6
-0.453, 1.5113491e-6, 1.9471352e-6
-0.454, 1.4640698e-6, 1.8567325e-6
-0.455, 1.5018504e-6, 1.9100307e-6
-0.456, 1.4560060e-6, 1.9349648e-6
-0.457, 1.4844856e-6, 1.9483059e-6
-0.458, 1.5007620e-6, 2.0055454e-6
-0.459, 1.4620416e-6, 1.9539787e-6
-0.460, 1.5077211e-6, 1.9217555e-6
-0.461, 1.4576714e-6, 1.9389390e-6
-0.462, 1.5059567e-6, 1.8912312e-6
-0.463, 1.4739974e-6, 1.9561721e-6
-0.464, 1.4665766e-6, 1.9019832e-6
-0.465, 1.5037468e-6, 2.0127850e-6
-0.466, 1.4497889e-6, 1.9669899e-6
-0.467, 1.5103926e-6, 1.9478935e-6
-0.468, 1.4669392e-6, 1.9308750e-6
-0.469, 1.5013063e-6, 1.8885927e-6
-0.470, 1.5091229e-6, 1.9759775e-6
-0.471, 1.4780047e-6, 1.9377849e-6
-0.472, 1.5089745e-6, 1.9815679e-6
-0.473, 1.4712271e-6, 1.9947111e-6
-0.474, 1.5089083e-6, 1.9414786e-6
-0.475, 1.4922857e-6, 1.9727452e-6
-0.476, 1.4916920e-6, 1.9116633e-6
-0.477, 1.5136413e-6, 1.9409017e-6
-0.478, 1.4667745e-6, 1.9576560e-6
-0.479, 1.4918900e-6, 1.9624053e-6
-0.480, 1.4812698e-6, 1.9552815e-6
-0.481, 1.5098485e-6, 1.9537972e-6
-0.482, 1.5049342e-6, 1.9723166e-6
-0.483, 1.4992612e-6, 1.9495262e-6
-0.484, 1.5146143e-6, 1.9095030e-6
-0.485, 1.4745251e-6, 1.9642359e-6
-0.486, 1.5200727e-6, 1.9718218e-6
-0.487, 1.4790766e-6, 1.9930455e-6
-0.488, 1.4913128e-6, 2.0137579e-6
-0.489, 1.5228101e-6, 1.9763402e-6
-0.490, 1.4880146e-6, 1.9423692e-6
-0.491, 1.5280048e-6, 1.9243612e-6
-0.492, 1.4825231e-6, 1.8954198e-6
-0.493, 1.5306434e-6, 1.9776430e-6
-0.494, 1.5124374e-6, 1.9816832e-6
-0.495, 1.5117613e-6, 1.9734873e-6
-0.496, 1.5406862e-6, 2.0165448e-6
-0.497, 1.5006960e-6, 1.9617294e-6
-0.498, 1.5362338e-6, 1.9803804e-6
-0.499, 1.5049836e-6, 1.9120425e-6
-0.500, 1.5378333e-6, 1.9739489e-6
