Dec. 21, 2005   06:52:52
Square Wave Voltammetry
File: d:\ida_biofilms\12_10_18_dphzstar\a_760b\75um_pyo\a_75um_pyo_swvfast_7_3.txt
Data Source:  Experiment
Instrument Model:  CHI760E
Header: 
Note: 

Init E (V) = 0.1
Final E (V) = -0.5
Incr E (V) = 0.001
Amplitude (V) = 0.025
Frequency (Hz) = 300
Quiet Time (sec) = 2
Sensitivity (A/V) = 1e-6
Sens 2 (A/V) = 1e-6

Potential/V, i1/A, i2/A

0.099, 1.5967385e-6, 1.8979429e-6
0.098, 1.4931102e-6, 1.9155386e-6
0.097, 1.5558081e-6, 1.9452880e-6
0.096, 1.5404388e-6, 2.0150442e-6
0.095, 1.5359203e-6, 2.0204532e-6
0.094, 1.5762733e-6, 2.0890220e-6
0.093, 1.5475134e-6, 2.0436391e-6
0.092, 1.5808084e-6, 2.0323594e-6
0.091, 1.5329850e-6, 1.9778079e-6
0.090, 1.5624870e-6, 2.0229104e-6
0.089, 1.5677806e-6, 2.0624552e-6
0.088, 1.5484864e-6, 2.0323264e-6
0.087, 1.5811546e-6, 2.0966900e-6
0.086, 1.5269659e-6, 2.0312709e-6
0.085, 1.5842713e-6, 2.0372572e-6
0.084, 1.5516691e-6, 1.9889062e-6
0.083, 1.5634105e-6, 2.0396815e-6
0.082, 1.5705511e-6, 2.0676662e-6
0.081, 1.5394824e-6, 2.0292428e-6
0.080, 1.5718538e-6, 2.0527257e-6
0.079, 1.5268339e-6, 2.0031707e-6
0.078, 1.5606402e-6, 2.0510436e-6
0.077, 1.5552641e-6, 1.9777749e-6
0.076, 1.5425167e-6, 2.0057435e-6
0.075, 1.5682754e-6, 2.0516043e-6
0.074, 1.5207983e-6, 2.0462944e-6
0.073, 1.5474969e-6, 2.0460304e-6
0.072, 1.5388061e-6, 1.9926167e-6
0.071, 1.5624212e-6, 2.0084312e-6
0.070, 1.5548683e-6, 1.9973165e-6
0.069, 1.5267515e-6, 2.0362183e-6
0.068, 1.5552475e-6, 2.0174352e-6
0.067, 1.5112996e-6, 2.0307268e-6
0.066, 1.5553135e-6, 2.0522803e-6
0.065, 1.5361182e-6, 2.0366965e-6
0.064, 1.5149770e-6, 1.9764393e-6
0.063, 1.5516362e-6, 1.9853278e-6
0.062, 1.5177640e-6, 2.0161160e-6
0.061, 1.5454686e-6, 2.0160664e-6
0.060, 1.5054949e-6, 2.0629336e-6
0.059, 1.5374540e-6, 1.9948100e-6
0.058, 1.5484864e-6, 2.0350474e-6
0.057, 1.5162138e-6, 1.9742954e-6
0.056, 1.5378993e-6, 1.9389227e-6
0.055, 1.4920219e-6, 2.0052651e-6
0.054, 1.5426815e-6, 2.0401596e-6
0.053, 1.5010918e-6, 2.0584480e-6
0.052, 1.5226783e-6, 1.9536490e-6
0.051, 1.5343703e-6, 2.0157368e-6
0.050, 1.4893833e-6, 1.9579529e-6
0.049, 1.5380147e-6, 1.9909016e-6
0.048, 1.4890205e-6, 1.9982235e-6
0.047, 1.5178960e-6, 2.0145328e-6
0.046, 1.5233379e-6, 2.0531709e-6
0.045, 1.5076387e-6, 1.9622241e-6
0.044, 1.5244593e-6, 2.0068151e-6
0.043, 1.4826221e-6, 1.9562215e-6
0.042, 1.5270318e-6, 2.0192329e-6
0.041, 1.4994262e-6, 1.9942822e-6
0.040, 1.4881959e-6, 2.0379662e-6
0.039, 1.5223154e-6, 2.0312050e-6
0.038, 1.4940997e-6, 1.9749550e-6
0.037, 1.5375199e-6, 1.9970362e-6
0.036, 1.4862665e-6, 1.9480090e-6
0.035, 1.5134599e-6, 1.9944471e-6
0.034, 1.5098319e-6, 2.0160501e-6
0.033, 1.4922857e-6, 2.0094208e-6
0.032, 1.5192977e-6, 2.0229268e-6
0.031, 1.4844691e-6, 1.9780884e-6
0.030, 1.5243108e-6, 1.9591073e-6
0.029, 1.4884929e-6, 1.9589920e-6
0.028, 1.4884104e-6, 1.9791767e-6
0.027, 1.5084302e-6, 2.0334148e-6
0.026, 1.4763887e-6, 2.0087282e-6
0.025, 1.5110852e-6, 1.9590580e-6
0.024, 1.4626353e-6, 1.9605586e-6
0.023, 1.4952871e-6, 1.9325735e-6
0.022, 1.4943964e-6, 1.9897473e-6
0.021, 1.4719196e-6, 1.9470031e-6
0.020, 1.5107884e-6, 2.0169900e-6
0.019, 1.4593536e-6, 1.9910665e-6
0.018, 1.4987502e-6, 1.9726956e-6
0.017, 1.4774605e-6, 1.9516535e-6
0.016, 1.4958476e-6, 1.9268841e-6
0.015, 1.5161479e-6, 1.9986358e-6
0.014, 1.4551320e-6, 1.9751528e-6
0.013, 1.5050166e-6, 1.9857730e-6
0.012, 1.4634268e-6, 1.9761258e-6
0.011, 1.4968371e-6, 1.9687709e-6
0.010, 1.4898121e-6, 1.9439688e-6
0.009, 1.4711609e-6, 1.9009278e-6
0.008, 1.5065337e-6, 1.9852287e-6
0.007, 1.4418567e-6, 1.9479430e-6
0.006, 1.4891855e-6, 2.0137577e-6
0.005, 1.4529880e-6, 1.9640875e-6
0.004, 1.4840898e-6, 1.9554134e-6
0.003, 1.4759598e-6, 1.9309741e-6
0.002, 1.4574737e-6, 1.9174186e-6
0.001, 1.4764710e-6, 1.9553804e-6
-0.000, 1.4289116e-6, 1.9632796e-6
-0.001, 1.4944790e-6, 2.0078046e-6
-0.002, 1.4570778e-6, 1.9530717e-6
-0.003, 1.4728760e-6, 1.9242293e-6
-0.004, 1.4857553e-6, 1.9287149e-6
-0.005, 1.4381958e-6, 1.9467557e-6
-0.006, 1.4761742e-6, 1.9706840e-6
-0.007, 1.4363159e-6, 1.9641370e-6
-0.008, 1.4707323e-6, 1.9717722e-6
-0.009, 1.4664117e-6, 1.9738832e-6
-0.010, 1.4616294e-6, 1.9285003e-6
-0.011, 1.4734367e-6, 1.8989490e-6
-0.012, 1.4490963e-6, 1.9535005e-6
-0.013, 1.4720845e-6, 1.9474978e-6
-0.014, 1.4593371e-6, 1.9645493e-6
-0.015, 1.4466061e-6, 1.9675508e-6
-0.016, 1.4709137e-6, 1.9712445e-6
-0.017, 1.4368271e-6, 1.9370923e-6
-0.018, 1.4772296e-6, 1.9090578e-6
-0.019, 1.4329518e-6, 1.9470526e-6
-0.020, 1.4586774e-6, 1.9450408e-6
-0.021, 1.4710126e-6, 2.0227453e-6
-0.022, 1.4493107e-6, 1.9407860e-6
-0.023, 1.4770646e-6, 1.9463930e-6
-0.024, 1.4399603e-6, 1.9352615e-6
-0.025, 1.4768339e-6, 1.9022800e-6
-0.026, 1.4387072e-6, 1.9401100e-6
-0.027, 1.4432751e-6, 1.9186882e-6
-0.028, 1.4709796e-6, 2.0076893e-6
-0.029, 1.4336114e-6, 1.9234049e-6
-0.030, 1.4848154e-6, 1.9302320e-6
-0.031, 1.4198581e-6, 1.8881969e-6
-0.032, 1.4608543e-6, 1.9180452e-6
-0.033, 1.4436544e-6, 1.9546712e-6
-0.034, 1.4341391e-6, 1.9182266e-6
-0.035, 1.4673845e-6, 1.9983554e-6
-0.036, 1.4286642e-6, 1.9508291e-6
-0.037, 1.4814677e-6, 1.9353440e-6
-0.038, 1.4362336e-6, 1.8694138e-6
-0.039, 1.4627838e-6, 1.8887080e-6
-0.040, 1.4726286e-6, 1.9591898e-6
-0.041, 1.4225132e-6, 1.9348988e-6
-0.042, 1.4736675e-6, 1.9630322e-6
-0.043, 1.4259927e-6, 1.9264555e-6
-0.044, 1.4520152e-6, 1.9403408e-6
-0.045, 1.4428133e-6, 1.8948263e-6
-0.046, 1.4430607e-6, 1.8854430e-6
-0.047, 1.4609697e-6, 1.9396316e-6
-0.048, 1.4162135e-6, 1.9287147e-6
-0.049, 1.4594525e-6, 1.9452220e-6
-0.050, 1.4214412e-6, 1.9057102e-6
-0.051, 1.4474142e-6, 1.9186718e-6
-0.052, 1.4589907e-6, 1.8959475e-6
-0.053, 1.4366292e-6, 1.9247570e-6
-0.054, 1.4482058e-6, 1.9271811e-6
-0.055, 1.4066325e-6, 1.9379991e-6
-0.056, 1.4588093e-6, 1.9565348e-6
-0.057, 1.4217051e-6, 1.9237182e-6
-0.058, 1.4294063e-6, 1.8893018e-6
-0.059, 1.4500692e-6, 1.8901758e-6
-0.060, 1.4062697e-6, 1.9308916e-6
-0.061, 1.4543239e-6, 1.9121251e-6
-0.062, 1.4074241e-6, 1.9266370e-6
-0.063, 1.4452210e-6, 1.9290283e-6
-0.064, 1.4426485e-6, 1.9384938e-6
-0.065, 1.4305937e-6, 1.9134113e-6
-0.066, 1.4384432e-6, 1.8734871e-6
-0.067, 1.4171701e-6, 1.9150275e-6
-0.068, 1.4532850e-6, 1.9296053e-6
-0.069, 1.4224801e-6, 1.9522636e-6
-0.070, 1.4391853e-6, 1.9331012e-6
-0.071, 1.4472658e-6, 1.9314029e-6
-0.072, 1.4102438e-6, 1.9104100e-6
-0.073, 1.4509267e-6, 1.8693315e-6
-0.074, 1.4191819e-6, 1.9130321e-6
-0.075, 1.4392513e-6, 1.9075239e-6
-0.076, 1.4388224e-6, 1.9527747e-6
-0.077, 1.4174834e-6, 1.9035828e-6
-0.078, 1.4515699e-6, 1.9137083e-6
-0.079, 1.4165105e-6, 1.8756639e-6
-0.080, 1.4526254e-6, 1.8635596e-6
-0.081, 1.4146306e-6, 1.9342558e-6
-0.082, 1.4103099e-6, 1.9172044e-6
-0.083, 1.4498548e-6, 1.9503836e-6
-0.084, 1.4142843e-6, 1.8921548e-6
-0.085, 1.4526089e-6, 1.9052814e-6
-0.086, 1.3960948e-6, 1.9037477e-6
-0.087, 1.4387566e-6, 1.8734047e-6
-0.088, 1.4445118e-6, 1.9293909e-6
-0.089, 1.4082157e-6, 1.8764058e-6
-0.090, 1.4510422e-6, 1.9479760e-6
-0.091, 1.4072756e-6, 1.9293250e-6
-0.092, 1.4447592e-6, 1.9260103e-6
-0.093, 1.4258113e-6, 1.8644502e-6
-0.094, 1.4482223e-6, 1.8550174e-6
-0.095, 1.4500692e-6, 1.9402582e-6
-0.096, 1.4032354e-6, 1.8889718e-6
-0.097, 1.4505640e-6, 1.9474319e-6
-0.098, 1.4007287e-6, 1.9010432e-6
-0.099, 1.4318799e-6, 1.9221843e-6
-0.100, 1.4347329e-6, 1.8754824e-6
-0.101, 1.4192150e-6, 1.8403405e-6
-0.102, 1.4485851e-6, 1.9175009e-6
-0.103, 1.4028890e-6, 1.8880155e-6
-0.104, 1.4459465e-6, 1.9444965e-6
-0.105, 1.4058738e-6, 1.8878342e-6
-0.106, 1.4349637e-6, 1.8928638e-6
-0.107, 1.4471009e-6, 1.9010267e-6
-0.108, 1.4164939e-6, 1.8493611e-6
-0.109, 1.4444294e-6, 1.9005486e-6
-0.110, 1.3991951e-6, 1.9223162e-6
-0.111, 1.4524439e-6, 1.9524120e-6
-0.112, 1.4190335e-6, 1.9315842e-6
-0.113, 1.4311379e-6, 1.8768181e-6
-0.114, 1.4490633e-6, 1.8644830e-6
-0.115, 1.3992611e-6, 1.8564026e-6
-0.116, 1.4494426e-6, 1.9210465e-6
-0.117, 1.3935553e-6, 1.9035169e-6
-0.118, 1.4351122e-6, 1.9566337e-6
-0.119, 1.4323416e-6, 1.9219369e-6
-0.120, 1.4235025e-6, 1.8935729e-6
-0.121, 1.4369261e-6, 1.8865808e-6
-0.122, 1.4066984e-6, 1.8377680e-6
-0.123, 1.4371734e-6, 1.9115644e-6
-0.124, 1.4063521e-6, 1.9328045e-6
-0.125, 1.4324736e-6, 1.9369932e-6
-0.126, 1.4405705e-6, 1.9395659e-6
-0.127, 1.4001680e-6, 1.8827220e-6
-0.128, 1.4419393e-6, 1.8558419e-6
-0.129, 1.4056430e-6, 1.8316498e-6
-0.130, 1.4245414e-6, 1.9051989e-6
-0.131, 1.4405375e-6, 1.9454035e-6
-0.132, 1.4241623e-6, 1.9124877e-6
-0.133, 1.4393997e-6, 1.8999878e-6
-0.134, 1.4165105e-6, 1.8884114e-6
-0.135, 1.4514875e-6, 1.8582001e-6
-0.136, 1.4078857e-6, 1.8599152e-6
-0.137, 1.4111509e-6, 1.9125537e-6
-0.138, 1.4503826e-6, 1.9564689e-6
-0.139, 1.4255310e-6, 1.9325078e-6
-0.140, 1.4608377e-6, 1.8971020e-6
-0.141, 1.4102440e-6, 1.8826229e-6
-0.142, 1.4312861e-6, 1.8685068e-6
-0.143, 1.4448747e-6, 1.8839918e-6
-0.144, 1.4194293e-6, 1.8805781e-6
-0.145, 1.4538787e-6, 1.9484708e-6
-0.146, 1.4072426e-6, 1.9539291e-6
-0.147, 1.4530376e-6, 1.8964092e-6
-0.148, 1.4256793e-6, 1.8954858e-6
-0.149, 1.4559234e-6, 1.8521480e-6
-0.150, 1.4605574e-6, 1.9317986e-6
-0.151, 1.4146306e-6, 1.8818314e-6
-0.152, 1.4429947e-6, 1.9126198e-6
-0.153, 1.4144821e-6, 1.8999714e-6
-0.154, 1.4399603e-6, 1.9228276e-6
-0.155, 1.4478264e-6, 1.9029562e-6
-0.156, 1.4218699e-6, 1.8282858e-6
-0.157, 1.4680443e-6, 1.9022141e-6
-0.158, 1.4065171e-6, 1.9035829e-6
-0.159, 1.4423845e-6, 1.9303968e-6
-0.160, 1.4276583e-6, 1.9182596e-6
-0.161, 1.4480408e-6, 1.8826724e-6
-0.162, 1.4512566e-6, 1.9269007e-6
-0.163, 1.4209959e-6, 1.8400108e-6
-0.164, 1.4639875e-6, 1.8919732e-6
-0.165, 1.4049009e-6, 1.9093050e-6
-0.166, 1.4618437e-6, 1.9298857e-6
-0.167, 1.4304452e-6, 1.9441009e-6
-0.168, 1.4349637e-6, 1.8783189e-6
-0.169, 1.4580837e-6, 1.9099318e-6
-0.170, 1.4193469e-6, 1.8499877e-6
-0.171, 1.4737170e-6, 1.9151594e-6
-0.172, 1.4027077e-6, 1.9177814e-6
-0.173, 1.4573252e-6, 1.9222834e-6
-0.174, 1.4604254e-6, 1.9876200e-6
-0.175, 1.4275099e-6, 1.8910168e-6
-0.176, 1.4537137e-6, 1.8895162e-6
-0.177, 1.4159332e-6, 1.8529066e-6
-0.178, 1.4696933e-6, 1.9083982e-6
-0.179, 1.4314842e-6, 1.9195295e-6
-0.180, 1.4362334e-6, 1.8952879e-6
-0.181, 1.4537137e-6, 1.9548197e-6
-0.182, 1.4145810e-6, 1.8917590e-6
-0.183, 1.4706497e-6, 1.8985696e-6
-0.184, 1.4319953e-6, 1.8513564e-6
-0.185, 1.4608213e-6, 1.8513729e-6
-0.186, 1.4540105e-6, 1.9347503e-6
-0.187, 1.4336445e-6, 1.9086619e-6
-0.188, 1.4594195e-6, 1.9566173e-6
-0.189, 1.4257288e-6, 1.9068975e-6
-0.190, 1.4747229e-6, 1.9033354e-6
-0.191, 1.4392017e-6, 1.8815676e-6
-0.192, 1.4465732e-6, 1.8649778e-6
-0.193, 1.4733214e-6, 1.9434740e-6
-0.194, 1.4290436e-6, 1.9215906e-6
-0.195, 1.4761247e-6, 1.9547701e-6
-0.196, 1.4220843e-6, 1.9255649e-6
-0.197, 1.4743273e-6, 1.9176989e-6
-0.198, 1.4698583e-6, 1.8894832e-6
-0.199, 1.4507125e-6, 1.8472667e-6
-0.200, 1.4822758e-6, 1.9349484e-6
-0.201, 1.4289776e-6, 1.9136257e-6
-0.202, 1.4906531e-6, 1.9702056e-6
-0.203, 1.4454024e-6, 1.8932761e-6
-0.204, 1.4692316e-6, 1.8945293e-6
-0.205, 1.4961115e-6, 1.9257463e-6
-0.206, 1.4392183e-6, 1.8488170e-6
-0.207, 1.4676154e-6, 1.9285828e-6
-0.208, 1.4239478e-6, 1.9024615e-6
-0.209, 1.4665271e-6, 1.9460467e-6
-0.210, 1.4626683e-6, 1.9338599e-6
-0.211, 1.4592051e-6, 1.8735859e-6
-0.212, 1.4845350e-6, 1.9288468e-6
-0.213, 1.4395316e-6, 1.8585463e-6
-0.214, 1.4782026e-6, 1.9225968e-6
-0.215, 1.4342711e-6, 1.9146316e-6
-0.216, 1.4728266e-6, 1.9320955e-6
-0.217, 1.4822099e-6, 1.9548363e-6
-0.218, 1.4406035e-6, 1.8894502e-6
-0.219, 1.4886248e-6, 1.8825735e-6
-0.220, 1.4341392e-6, 1.8619601e-6
-0.221, 1.4927475e-6, 1.9374713e-6
-0.222, 1.4672032e-6, 1.9482234e-6
-0.223, 1.4602936e-6, 1.9254992e-6
-0.224, 1.4897790e-6, 1.9503673e-6
-0.225, 1.4540105e-6, 1.8951724e-6
-0.226, 1.5004156e-6, 1.9300339e-6
-0.227, 1.4449076e-6, 1.8767853e-6
-0.228, 1.4711279e-6, 1.9185236e-6
-0.229, 1.4868601e-6, 1.9497902e-6
-0.230, 1.4623549e-6, 1.9453705e-6
-0.231, 1.4838754e-6, 1.9323757e-6
-0.232, 1.4301648e-6, 1.9144998e-6
-0.233, 1.4938523e-6, 1.9354266e-6
-0.234, 1.4591392e-6, 1.8812377e-6
-0.235, 1.4666590e-6, 1.8827220e-6
-0.236, 1.4756959e-6, 1.9421714e-6
-0.237, 1.4547857e-6, 1.9323097e-6
-0.238, 1.4876024e-6, 1.9683750e-6
-0.239, 1.4543569e-6, 1.9073261e-6
-0.240, 1.4762732e-6, 1.9202221e-6
-0.241, 1.4897296e-6, 1.9052978e-6
-0.242, 1.4755476e-6, 1.8817325e-6
-0.243, 1.4845846e-6, 1.9269833e-6
-0.244, 1.4450395e-6, 1.9296713e-6
-0.245, 1.4952046e-6, 1.9921879e-6
-0.246, 1.4737336e-6, 1.9629827e-6
-0.247, 1.4708476e-6, 1.9192162e-6
-0.248, 1.4975957e-6, 1.8939521e-6
-0.249, 1.4625364e-6, 1.8679791e-6
-0.250, 1.4996241e-6, 1.9244767e-6
-0.251, 1.4392513e-6, 1.9278077e-6
-0.252, 1.4856564e-6, 1.9761424e-6
-0.253, 1.4817316e-6, 1.9693316e-6
-0.254, 1.4741952e-6, 1.9028078e-6
-0.255, 1.5066655e-6, 1.9415611e-6
-0.256, 1.4592547e-6, 1.8704527e-6
-0.257, 1.5087435e-6, 1.9517854e-6
-0.258, 1.4628331e-6, 1.9168413e-6
-0.259, 1.4893999e-6, 1.9567822e-6
-0.260, 1.4990470e-6, 1.9637741e-6
-0.261, 1.4539281e-6, 1.9021975e-6
-0.262, 1.5030047e-6, 1.9282036e-6
-0.263, 1.4489149e-6, 1.8547701e-6
-0.264, 1.4833641e-6, 1.9484708e-6
-0.265, 1.4837929e-6, 1.9368613e-6
-0.266, 1.4658509e-6, 1.9349318e-6
-0.267, 1.5078859e-6, 1.9750869e-6
-0.268, 1.4495085e-6, 1.9002186e-6
-0.269, 1.4898286e-6, 1.9324252e-6
-0.270, 1.4687203e-6, 1.8686553e-6
-0.271, 1.4996735e-6, 1.9291765e-6
-0.272, 1.4983873e-6, 1.9445295e-6
-0.273, 1.4587270e-6, 1.9508454e-6
-0.274, 1.5004487e-6, 1.9366632e-6
-0.275, 1.4427640e-6, 1.9223328e-6
-0.276, 1.4867119e-6, 1.9422537e-6
-0.277, 1.4750199e-6, 1.8864157e-6
-0.278, 1.4684730e-6, 1.8822436e-6
-0.279, 1.4949737e-6, 1.9363501e-6
-0.280, 1.4536313e-6, 1.9309246e-6
-0.281, 1.4896473e-6, 1.9811885e-6
-0.282, 1.4494260e-6, 1.9087115e-6
-0.283, 1.4841393e-6, 1.9152417e-6
-0.284, 1.4892184e-6, 1.9069799e-6
-0.285, 1.4574241e-6, 1.8713267e-6
-0.286, 1.4857553e-6, 1.9145987e-6
-0.287, 1.4383772e-6, 1.9301660e-6
-0.288, 1.4911643e-6, 1.9691502e-6
-0.289, 1.4551813e-6, 1.9389061e-6
-0.290, 1.4586280e-6, 1.8803638e-6
-0.291, 1.4817315e-6, 1.8886916e-6
-0.292, 1.4264874e-6, 1.8691831e-6
-0.293, 1.4770483e-6, 1.9227123e-6
-0.294, 1.4372558e-6, 1.9122569e-6
-0.295, 1.4677803e-6, 1.9392030e-6
-0.296, 1.4650593e-6, 1.9771319e-6
-0.297, 1.4638391e-6, 1.8907365e-6
-0.298, 1.4729089e-6, 1.9038961e-6
-0.299, 1.4338423e-6, 1.8570623e-6
-0.300, 1.4777243e-6, 1.9443812e-6
-0.301, 1.4403397e-6, 1.9177648e-6
-0.302, 1.4423021e-6, 1.9318809e-6
-0.303, 1.4714578e-6, 1.9521481e-6
-0.304, 1.4354418e-6, 1.8948426e-6
-0.305, 1.4799837e-6, 1.9201395e-6
-0.306, 1.4365137e-6, 1.8485200e-6
-0.307, 1.4707487e-6, 1.9039621e-6
-0.308, 1.4640040e-6, 1.9384938e-6
-0.309, 1.4505805e-6, 1.9209970e-6
-0.310, 1.4541425e-6, 1.9455520e-6
-0.311, 1.4139544e-6, 1.8927154e-6
-0.312, 1.4750528e-6, 1.9363006e-6
-0.313, 1.4333310e-6, 1.8483881e-6
-0.314, 1.4458806e-6, 1.8752680e-6
-0.315, 1.4686050e-6, 1.9221350e-6
-0.316, 1.4263061e-6, 1.9065512e-6
-0.317, 1.4666425e-6, 1.9428639e-6
-0.318, 1.4253825e-6, 1.8922535e-6
-0.319, 1.4465897e-6, 1.9037312e-6
-0.320, 1.4545383e-6, 1.8598821e-6
-0.321, 1.4298514e-6, 1.8514388e-6
-0.322, 1.4695778e-6, 1.9246415e-6
-0.323, 1.4103759e-6, 1.8912148e-6
-0.324, 1.4556762e-6, 1.9629992e-6
-0.325, 1.4296371e-6, 1.8986026e-6
-0.326, 1.4694790e-6, 1.9002681e-6
-0.327, 1.4660984e-6, 1.9243282e-6
-0.328, 1.4221503e-6, 1.8558419e-6
-0.329, 1.4672692e-6, 1.9002517e-6
-0.330, 1.4227605e-6, 1.8868282e-6
-0.331, 1.4571108e-6, 1.9331014e-6
-0.332, 1.4462433e-6, 1.9386589e-6
-0.333, 1.4363325e-6, 1.8697931e-6
-0.334, 1.4712105e-6, 1.9015711e-6
-0.335, 1.4120579e-6, 1.8427484e-6
-0.336, 1.4642183e-6, 1.9039951e-6
-0.337, 1.4165105e-6, 1.8860367e-6
-0.338, 1.4443635e-6, 1.9104596e-6
-0.339, 1.4530872e-6, 1.9434246e-6
-0.340, 1.4215731e-6, 1.8782200e-6
-0.341, 1.4530375e-6, 1.8865971e-6
-0.342, 1.4050659e-6, 1.8404064e-6
-0.343, 1.4591722e-6, 1.8911652e-6
-0.344, 1.4096008e-6, 1.9075076e-6
-0.345, 1.4266359e-6, 1.8851790e-6
-0.346, 1.4418733e-6, 1.9681443e-6
-0.347, 1.4021964e-6, 1.8884607e-6
-0.348, 1.4542579e-6, 1.9014060e-6
-0.349, 1.4105408e-6, 1.8658188e-6
-0.350, 1.4394492e-6, 1.8515213e-6
-0.351, 1.4385587e-6, 1.9401264e-6
-0.352, 1.4199570e-6, 1.8822932e-6
-0.353, 1.4426319e-6, 1.9550341e-6
-0.354, 1.3890698e-6, 1.9052154e-6
-0.355, 1.4479914e-6, 1.8921876e-6
-0.356, 1.4262071e-6, 1.9024779e-6
-0.357, 1.4302803e-6, 1.8330186e-6
-0.358, 1.4453858e-6, 1.9305453e-6
-0.359, 1.3981892e-6, 1.8942656e-6
-0.360, 1.4544228e-6, 1.9169238e-6
-0.361, 1.4180771e-6, 1.8979100e-6
-0.362, 1.4383608e-6, 1.8789455e-6
-0.363, 1.4520812e-6, 1.9196284e-6
-0.364, 1.4196602e-6, 1.8223326e-6
-0.365, 1.4433906e-6, 1.8913466e-6
-0.366, 1.4049174e-6, 1.8988169e-6
-0.367, 1.4552968e-6, 1.9220524e-6
-0.368, 1.4232057e-6, 1.9478607e-6
-0.369, 1.4146635e-6, 1.9017028e-6
-0.370, 1.4511741e-6, 1.9181771e-6
-0.371, 1.4218206e-6, 1.8324581e-6
-0.372, 1.4555607e-6, 1.8832495e-6
-0.373, 1.3981892e-6, 1.9028572e-6
-0.374, 1.4486345e-6, 1.9148627e-6
-0.375, 1.4436214e-6, 1.9686390e-6
-0.376, 1.4286477e-6, 1.8817655e-6
-0.377, 1.4613489e-6, 1.9159179e-6
-0.378, 1.4167414e-6, 1.8978441e-6
-0.379, 1.4414117e-6, 1.8812048e-6
-0.380, 1.4284498e-6, 1.8962609e-6
-0.381, 1.4552969e-6, 1.9046051e-6
-0.382, 1.4637237e-6, 1.9510762e-6
-0.383, 1.4220514e-6, 1.9155220e-6
-0.384, 1.4517348e-6, 1.8939193e-6
-0.385, 1.4207320e-6, 1.8837113e-6
-0.386, 1.4466061e-6, 1.8763071e-6
-0.387, 1.4448910e-6, 1.9173856e-6
-0.388, 1.4319459e-6, 1.8907365e-6
-0.389, 1.4560885e-6, 1.9249712e-6
-0.390, 1.4065006e-6, 1.9442987e-6
-0.391, 1.4597493e-6, 1.9308750e-6
-0.392, 1.4216721e-6, 1.8908519e-6
-0.393, 1.4369591e-6, 1.8511585e-6
-0.394, 1.4455672e-6, 1.8872240e-6
-0.395, 1.4293239e-6, 1.9033685e-6
-0.396, 1.4564841e-6, 1.8947437e-6
-0.397, 1.4185717e-6, 1.9182762e-6
-0.398, 1.4649274e-6, 1.9343547e-6
-0.399, 1.4289610e-6, 1.9266865e-6
-0.400, 1.4296866e-6, 1.8499711e-6
-0.401, 1.4617117e-6, 1.8656870e-6
-0.402, 1.4132123e-6, 1.9365150e-6
-0.403, 1.4522295e-6, 1.9172371e-6
-0.404, 1.4091061e-6, 1.9338599e-6
-0.405, 1.4545548e-6, 1.9424351e-6
-0.406, 1.4408014e-6, 1.9383785e-6
-0.407, 1.4350131e-6, 1.8945954e-6
-0.408, 1.4583476e-6, 1.8645985e-6
-0.409, 1.4256628e-6, 1.8884607e-6
-0.410, 1.4623218e-6, 1.9267852e-6
-0.411, 1.4180607e-6, 1.9389063e-6
-0.412, 1.4491293e-6, 1.9646811e-6
-0.413, 1.4571768e-6, 1.9632466e-6
-0.414, 1.4145480e-6, 1.9266370e-6
-0.415, 1.4712269e-6, 1.9279728e-6
-0.416, 1.4149438e-6, 1.8651592e-6
-0.417, 1.4608378e-6, 1.9246249e-6
-0.418, 1.4544723e-6, 1.9410004e-6
-0.419, 1.4299999e-6, 1.9144668e-6
-0.420, 1.4581498e-6, 1.9586785e-6
-0.421, 1.4174340e-6, 1.9110696e-6
-0.422, 1.4694130e-6, 1.9272636e-6
-0.423, 1.4468205e-6, 1.8749382e-6
-0.424, 1.4406035e-6, 1.9183751e-6
-0.425, 1.4693305e-6, 1.9551990e-6
-0.426, 1.4350131e-6, 1.9128672e-6
-0.427, 1.4695778e-6, 1.9902750e-6
-0.428, 1.4149933e-6, 1.9418580e-6
-0.429, 1.4695778e-6, 1.9245097e-6
-0.430, 1.4765865e-6, 1.9504662e-6
-0.431, 1.4485357e-6, 1.8587773e-6
-0.432, 1.4894822e-6, 1.9602287e-6
-0.433, 1.4191489e-6, 1.9407862e-6
-0.434, 1.4714414e-6, 1.9740646e-6
-0.435, 1.4485850e-6, 1.9324252e-6
-0.436, 1.4609697e-6, 1.9306772e-6
-0.437, 1.4872890e-6, 1.9710467e-6
-0.438, 1.4448417e-6, 1.8596347e-6
-0.439, 1.4893010e-6, 1.9135102e-6
-0.440, 1.4295712e-6, 1.9329693e-6
-0.441, 1.4666755e-6, 1.9812710e-6
-0.442, 1.4693800e-6, 1.9884938e-6
-0.443, 1.4542579e-6, 1.9265876e-6
-0.444, 1.4885588e-6, 1.9493282e-6
-0.445, 1.4374043e-6, 1.9300669e-6
-0.446, 1.4877178e-6, 1.8857562e-6
-0.447, 1.4551484e-6, 1.9288136e-6
-0.448, 1.4591227e-6, 1.9414622e-6
-0.449, 1.4859038e-6, 2.0122573e-6
-0.450, 1.4369590e-6, 1.9384279e-6
-0.451, 1.4858542e-6, 1.9141369e-6
-0.452, 1.4482553e-6, 1.9457827e-6
-0.453, 1.4901914e-6, 1.8999383e-6
-0.454, 1.4728760e-6, 1.9407694e-6
-0.455, 1.4545712e-6, 1.9265051e-6
-0.456, 1.4808246e-6, 1.9782531e-6
-0.457, 1.4573747e-6, 1.9945460e-6
-0.458, 1.4883608e-6, 1.9544241e-6
-0.459, 1.4369261e-6, 1.9426329e-6
-0.460, 1.4773121e-6, 1.9162312e-6
-0.461, 1.4871076e-6, 1.9199088e-6
-0.462, 1.4635093e-6, 1.9519503e-6
-0.463, 1.4729089e-6, 1.9581180e-6
-0.464, 1.4432916e-6, 1.9535005e-6
-0.465, 1.5060390e-6, 1.9706674e-6
-0.466, 1.4595184e-6, 1.9548693e-6
-0.467, 1.4768009e-6, 1.9329696e-6
-0.468, 1.4773286e-6, 1.9396978e-6
-0.469, 1.4396305e-6, 1.9373065e-6
-0.470, 1.4936379e-6, 1.9676661e-6
-0.471, 1.4573252e-6, 1.9488830e-6
-0.472, 1.4733048e-6, 2.0035832e-6
-0.473, 1.4921703e-6, 2.0220198e-6
-0.474, 1.4786642e-6, 1.9472834e-6
-0.475, 1.4989480e-6, 1.9404729e-6
-0.476, 1.4530706e-6, 1.9219372e-6
-0.477, 1.4924341e-6, 1.9835795e-6
-0.478, 1.4716228e-6, 1.9717886e-6
-0.479, 1.4609367e-6, 1.9827551e-6
-0.480, 1.4989974e-6, 2.0225309e-6
-0.481, 1.4766031e-6, 1.9502518e-6
-0.482, 1.5087600e-6, 1.9781708e-6
-0.483, 1.4554453e-6, 1.9018182e-6
-0.484, 1.5097330e-6, 1.9812546e-6
-0.485, 1.4954189e-6, 2.0098166e-6
-0.486, 1.4744921e-6, 1.9758950e-6
-0.487, 1.5139545e-6, 2.0567327e-6
-0.488, 1.4637235e-6, 1.9881145e-6
-0.489, 1.5137732e-6, 1.9786655e-6
-0.490, 1.4891194e-6, 1.9345525e-6
-0.491, 1.5061710e-6, 1.9294239e-6
-0.492, 1.5194792e-6, 2.0115976e-6
-0.493, 1.4635917e-6, 1.9698759e-6
-0.494, 1.5097660e-6, 1.9988006e-6
-0.495, 1.4649439e-6, 1.9891370e-6
-0.496, 1.4981399e-6, 2.0000375e-6
-0.497, 1.5219198e-6, 1.9738170e-6
-0.498, 1.4820944e-6, 1.9130484e-6
-0.499, 1.5280377e-6, 2.0117955e-6
-0.500, 1.4728430e-6, 1.9877355e-6
