Dec. 21, 2005   06:28:10
Square Wave Voltammetry
File: d:\ida_biofilms\12_10_18_dphzstar\a_760b\75um_pyo\a_75um_pyo_swvfast_4_4.txt
Data Source:  Experiment
Instrument Model:  CHI760E
Header: 
Note: 

Init E (V) = 0.1
Final E (V) = -0.5
Incr E (V) = 0.001
Amplitude (V) = 0.025
Frequency (Hz) = 300
Quiet Time (sec) = 2
Sensitivity (A/V) = 1e-6
Sens 2 (A/V) = 1e-6

Potential/V, i1/A, i2/A

0.099, 1.5884930e-6, 1.8818149e-6
0.098, 1.5229916e-6, 1.9768186e-6
0.097, 1.5203861e-6, 1.9347503e-6
0.096, 1.5531367e-6, 1.9730585e-6
0.095, 1.5033839e-6, 2.0136258e-6
0.094, 1.5661810e-6, 2.0204698e-6
0.093, 1.5340735e-6, 2.0573762e-6
0.092, 1.5353927e-6, 2.0266866e-6
0.091, 1.5694792e-6, 2.0403081e-6
0.090, 1.5228761e-6, 1.9567326e-6
0.089, 1.5616790e-6, 1.9797537e-6
0.088, 1.5101288e-6, 2.0141701e-6
0.087, 1.5440999e-6, 2.0623397e-6
0.086, 1.5401420e-6, 2.0877028e-6
0.085, 1.5248056e-6, 1.9930126e-6
0.084, 1.5584633e-6, 2.0497077e-6
0.083, 1.5235687e-6, 1.9849485e-6
0.082, 1.5571770e-6, 2.0215086e-6
0.081, 1.5219691e-6, 2.0180619e-6
0.080, 1.5541098e-6, 2.0517361e-6
0.079, 1.5514051e-6, 2.0822276e-6
0.078, 1.5209632e-6, 2.0156378e-6
0.077, 1.5565998e-6, 2.0140217e-6
0.076, 1.5174671e-6, 1.9623394e-6
0.075, 1.5409830e-6, 2.0473003e-6
0.074, 1.5268670e-6, 2.0296879e-6
0.073, 1.5197099e-6, 2.0246748e-6
0.072, 1.5587107e-6, 2.0378016e-6
0.071, 1.5032521e-6, 2.0029729e-6
0.070, 1.5468868e-6, 2.0126859e-6
0.069, 1.4964414e-6, 1.9697275e-6
0.068, 1.5379323e-6, 2.0149616e-6
0.067, 1.5265371e-6, 2.0360699e-6
0.066, 1.5035819e-6, 2.0552982e-6
0.065, 1.5389712e-6, 2.0182267e-6
0.064, 1.4821439e-6, 2.0109378e-6
0.063, 1.5359533e-6, 2.0185566e-6
0.062, 1.5095021e-6, 1.9753343e-6
0.061, 1.5138062e-6, 1.9876366e-6
0.060, 1.5303958e-6, 2.0206180e-6
0.059, 1.4926320e-6, 2.0224486e-6
0.058, 1.5317316e-6, 2.0306609e-6
0.057, 1.4843536e-6, 2.0151597e-6
0.056, 1.5264875e-6, 2.0085304e-6
0.055, 1.5260754e-6, 1.9786326e-6
0.054, 1.5001518e-6, 2.0004663e-6
0.053, 1.5090568e-6, 2.0053146e-6
0.052, 1.4746406e-6, 2.0416273e-6
0.051, 1.5328860e-6, 2.0273296e-6
0.050, 1.4974638e-6, 1.9863501e-6
0.049, 1.5029882e-6, 1.9193151e-6
0.048, 1.5158840e-6, 1.9698923e-6
0.047, 1.4691326e-6, 1.9895658e-6
0.046, 1.5182256e-6, 2.0155717e-6
0.045, 1.4757784e-6, 2.0219538e-6
0.044, 1.4924012e-6, 1.9999220e-6
0.043, 1.4997891e-6, 2.0165944e-6
0.042, 1.4894658e-6, 1.9215249e-6
0.041, 1.5070943e-6, 1.9675340e-6
0.040, 1.4601947e-6, 1.9915447e-6
0.039, 1.5079190e-6, 2.0077059e-6
0.038, 1.4861016e-6, 2.0360205e-6
0.037, 1.4860523e-6, 1.9692820e-6
0.036, 1.5044064e-6, 2.0005982e-6
0.035, 1.4585950e-6, 1.9288136e-6
0.034, 1.5209632e-6, 1.9788140e-6
0.033, 1.4633938e-6, 1.9789127e-6
0.032, 1.4901914e-6, 1.9948593e-6
0.031, 1.4931927e-6, 2.0405223e-6
0.030, 1.4702210e-6, 1.9458980e-6
0.029, 1.5034994e-6, 1.9761587e-6
0.028, 1.4585785e-6, 1.9229265e-6
0.027, 1.4977443e-6, 1.9679630e-6
0.026, 1.4576550e-6, 1.9914128e-6
0.025, 1.4714414e-6, 1.9959480e-6
0.024, 1.5003661e-6, 2.0062710e-6
0.023, 1.4582488e-6, 1.9339755e-6
0.022, 1.4948912e-6, 1.9700078e-6
0.021, 1.4432421e-6, 1.8923856e-6
0.020, 1.4942481e-6, 1.9834806e-6
0.019, 1.4824736e-6, 1.9959807e-6
0.018, 1.4580673e-6, 1.9644503e-6
0.017, 1.4900265e-6, 2.0051825e-6
0.016, 1.4462598e-6, 1.9570459e-6
0.015, 1.4938523e-6, 1.9733225e-6
0.014, 1.4607554e-6, 1.9012576e-6
0.013, 1.4891359e-6, 1.9664458e-6
0.012, 1.4830179e-6, 1.9918416e-6
0.011, 1.4500857e-6, 1.9595525e-6
0.010, 1.4844361e-6, 1.9788467e-6
0.009, 1.4415106e-6, 1.9230749e-6
0.008, 1.4765865e-6, 1.9442987e-6
0.007, 1.4633608e-6, 1.9101792e-6
0.006, 1.4633279e-6, 1.9410500e-6
0.005, 1.4750034e-6, 1.9710301e-6
0.004, 1.4313192e-6, 1.9615313e-6
0.003, 1.4732059e-6, 1.9762247e-6
0.002, 1.4412963e-6, 1.9213435e-6
0.001, 1.4815996e-6, 1.9389061e-6
-0.000, 1.4800989e-6, 1.9111026e-6
-0.001, 1.4428628e-6, 1.9537642e-6
-0.002, 1.4691161e-6, 1.9341569e-6
-0.003, 1.4343535e-6, 1.9535830e-6
-0.004, 1.4709960e-6, 1.9696943e-6
-0.005, 1.4586775e-6, 1.9492459e-6
-0.006, 1.4489973e-6, 1.8979924e-6
-0.007, 1.4783510e-6, 1.9147637e-6
-0.008, 1.4261245e-6, 1.9518350e-6
-0.009, 1.4628827e-6, 1.9421218e-6
-0.010, 1.4246239e-6, 1.9818810e-6
-0.011, 1.4505474e-6, 1.9487511e-6
-0.012, 1.4766854e-6, 1.9663962e-6
-0.013, 1.4294887e-6, 1.9165282e-6
-0.014, 1.4670877e-6, 1.8859212e-6
-0.015, 1.4167413e-6, 1.9309741e-6
-0.016, 1.4605574e-6, 1.9290610e-6
-0.017, 1.4299835e-6, 1.9892855e-6
-0.018, 1.4289610e-6, 1.9034014e-6
-0.019, 1.4674175e-6, 1.9431936e-6
-0.020, 1.4169722e-6, 1.9023461e-6
-0.021, 1.4646471e-6, 1.8883948e-6
-0.022, 1.4148284e-6, 1.9174679e-6
-0.023, 1.4477112e-6, 1.9400936e-6
-0.024, 1.4581332e-6, 1.9958652e-6
-0.025, 1.4382617e-6, 1.9319141e-6
-0.026, 1.4571768e-6, 1.9367458e-6
-0.027, 1.4130803e-6, 1.8849482e-6
-0.028, 1.4564513e-6, 1.9018347e-6
-0.029, 1.4259102e-6, 1.9521317e-6
-0.030, 1.4307750e-6, 1.9225638e-6
-0.031, 1.4477771e-6, 1.9929794e-6
-0.032, 1.4025097e-6, 1.9152583e-6
-0.033, 1.4569459e-6, 1.9211457e-6
-0.034, 1.4101945e-6, 1.8713597e-6
-0.035, 1.4418898e-6, 1.8963269e-6
-0.036, 1.4390534e-6, 1.9571119e-6
-0.037, 1.4285158e-6, 1.9296876e-6
-0.038, 1.4522460e-6, 1.9586125e-6
-0.039, 1.4074241e-6, 1.9134277e-6
-0.040, 1.4543568e-6, 1.9341567e-6
-0.041, 1.4262235e-6, 1.8791269e-6
-0.042, 1.4295381e-6, 1.8929627e-6
-0.043, 1.4447427e-6, 1.9450076e-6
-0.044, 1.4143832e-6, 1.9421714e-6
-0.045, 1.4588259e-6, 1.9621582e-6
-0.046, 1.4097657e-6, 1.9032859e-6
-0.047, 1.4487499e-6, 1.9198262e-6
-0.048, 1.4360191e-6, 1.8995920e-6
-0.049, 1.4286477e-6, 1.9018512e-6
-0.050, 1.4589577e-6, 1.9265049e-6
-0.051, 1.4056595e-6, 1.9305453e-6
-0.052, 1.4579024e-6, 1.9474483e-6
-0.053, 1.4144161e-6, 1.8983882e-6
-0.054, 1.4220678e-6, 1.8871085e-6
-0.055, 1.4506794e-6, 1.8899448e-6
-0.056, 1.4150593e-6, 1.8834805e-6
-0.057, 1.4449241e-6, 1.9139225e-6
-0.058, 1.3933244e-6, 1.9339425e-6
-0.059, 1.4279551e-6, 1.9572274e-6
-0.060, 1.4313192e-6, 1.9299846e-6
-0.061, 1.4220514e-6, 1.8800010e-6
-0.062, 1.4403561e-6, 1.8866467e-6
-0.063, 1.4050493e-6, 1.9305949e-6
-0.064, 1.4312202e-6, 1.9198098e-6
-0.065, 1.4077044e-6, 1.9503507e-6
-0.066, 1.4303298e-6, 1.9255651e-6
-0.067, 1.4461939e-6, 1.9431277e-6
-0.068, 1.4129319e-6, 1.8929627e-6
-0.069, 1.4426155e-6, 1.8607562e-6
-0.070, 1.4088587e-6, 1.8985531e-6
-0.071, 1.4235026e-6, 1.9135432e-6
-0.072, 1.4284333e-6, 1.9234049e-6
-0.073, 1.4212764e-6, 1.8965577e-6
-0.074, 1.4498548e-6, 1.9077386e-6
-0.075, 1.3967544e-6, 1.9045888e-6
-0.076, 1.4378495e-6, 1.8644500e-6
-0.077, 1.4048680e-6, 1.9088434e-6
-0.078, 1.4254815e-6, 1.9023296e-6
-0.079, 1.4439677e-6, 1.9707168e-6
-0.080, 1.4024273e-6, 1.9153242e-6
-0.081, 1.4395811e-6, 1.8939686e-6
-0.082, 1.3972658e-6, 1.8864489e-6
-0.083, 1.4394657e-6, 1.8684575e-6
-0.084, 1.4121733e-6, 1.9320623e-6
-0.085, 1.4009926e-6, 1.8800835e-6
-0.086, 1.4445778e-6, 1.9581673e-6
-0.087, 1.3958639e-6, 1.9109214e-6
-0.088, 1.4430607e-6, 1.9042755e-6
-0.089, 1.3985850e-6, 1.8769172e-6
-0.090, 1.4355574e-6, 1.8788633e-6
-0.091, 1.4366952e-6, 1.9333652e-6
-0.092, 1.4060553e-6, 1.8791270e-6
-0.093, 1.4328529e-6, 1.9321119e-6
-0.094, 1.3847327e-6, 1.8999218e-6
-0.095, 1.4527573e-6, 1.9041106e-6
-0.096, 1.4008276e-6, 1.8665280e-6
-0.097, 1.4106398e-6, 1.8260431e-6
-0.098, 1.4278066e-6, 1.9205847e-6
-0.099, 1.3816818e-6, 1.9172207e-6
-0.100, 1.4341887e-6, 1.9394502e-6
-0.101, 1.3955507e-6, 1.8965413e-6
-0.102, 1.4277902e-6, 1.9002846e-6
-0.103, 1.4294721e-6, 1.8819139e-6
-0.104, 1.4147954e-6, 1.8668247e-6
-0.105, 1.4282684e-6, 1.9063698e-6
-0.106, 1.3963257e-6, 1.9143679e-6
-0.107, 1.4388060e-6, 1.9403078e-6
-0.108, 1.4080506e-6, 1.9016204e-6
-0.109, 1.4256959e-6, 1.8884277e-6
-0.110, 1.4389215e-6, 1.8794403e-6
-0.111, 1.3927306e-6, 1.9000045e-6
-0.112, 1.4337600e-6, 1.9053474e-6
-0.113, 1.3989808e-6, 1.9029233e-6
-0.114, 1.4244920e-6, 1.9387576e-6
-0.115, 1.4330672e-6, 1.9089753e-6
-0.116, 1.4159992e-6, 1.8839257e-6
-0.117, 1.4332321e-6, 1.8489322e-6
-0.118, 1.3979418e-6, 1.8717226e-6
-0.119, 1.4397295e-6, 1.8899284e-6
-0.120, 1.4057584e-6, 1.9253837e-6
-0.121, 1.4020975e-6, 1.9165611e-6
-0.122, 1.4287466e-6, 1.9132794e-6
-0.123, 1.4145811e-6, 1.8798690e-6
-0.124, 1.4402901e-6, 1.8508451e-6
-0.125, 1.3900262e-6, 1.8905550e-6
-0.126, 1.4230243e-6, 1.8946612e-6
-0.127, 1.4237829e-6, 1.9422207e-6
-0.128, 1.4183245e-6, 1.8940016e-6
-0.129, 1.4489643e-6, 1.9120757e-6
-0.130, 1.4008442e-6, 1.8934245e-6
-0.131, 1.4545712e-6, 1.8545887e-6
-0.132, 1.4167908e-6, 1.8880155e-6
-0.133, 1.4250857e-6, 1.8868117e-6
-0.134, 1.4532850e-6, 1.9464590e-6
-0.135, 1.4016523e-6, 1.8845853e-6
-0.136, 1.4488160e-6, 1.8974317e-6
-0.137, 1.3989808e-6, 1.8508782e-6
-0.138, 1.4331663e-6, 1.8585959e-6
-0.139, 1.4251023e-6, 1.9159015e-6
-0.140, 1.4132453e-6, 1.8715082e-6
-0.141, 1.4502672e-6, 1.9319964e-6
-0.142, 1.3977275e-6, 1.9124880e-6
-0.143, 1.4397956e-6, 1.9015380e-6
-0.144, 1.4131299e-6, 1.8869272e-6
-0.145, 1.4407354e-6, 1.8436388e-6
-0.146, 1.4373219e-6, 1.9273295e-6
-0.147, 1.3969689e-6, 1.8952385e-6
-0.148, 1.4495250e-6, 1.9099152e-6
-0.149, 1.4049009e-6, 1.8903243e-6
-0.150, 1.4460126e-6, 1.9042918e-6
-0.151, 1.4387401e-6, 1.8849977e-6
-0.152, 1.4230903e-6, 1.8377185e-6
-0.153, 1.4534994e-6, 1.9063698e-6
-0.154, 1.3939510e-6, 1.8852780e-6
-0.155, 1.4502837e-6, 1.9456838e-6
-0.156, 1.4070283e-6, 1.9101790e-6
-0.157, 1.4358047e-6, 1.8939028e-6
-0.158, 1.4508938e-6, 1.8852451e-6
-0.159, 1.4060388e-6, 1.8423854e-6
-0.160, 1.4473812e-6, 1.8949911e-6
-0.161, 1.3930770e-6, 1.8936882e-6
-0.162, 1.4477441e-6, 1.9565678e-6
-0.163, 1.4120415e-6, 1.9011092e-6
-0.164, 1.4305441e-6, 1.8689357e-6
-0.165, 1.4521306e-6, 1.8723987e-6
-0.166, 1.4126516e-6, 1.8526097e-6
-0.167, 1.4510917e-6, 1.9166105e-6
-0.168, 1.4034497e-6, 1.9186552e-6
-0.169, 1.4432585e-6, 1.9389556e-6
-0.170, 1.4478925e-6, 1.9169734e-6
-0.171, 1.4362499e-6, 1.8800669e-6
-0.172, 1.4432751e-6, 1.8597173e-6
-0.173, 1.4054946e-6, 1.8435398e-6
-0.174, 1.4582322e-6, 1.9191336e-6
-0.175, 1.4242612e-6, 1.9336621e-6
-0.176, 1.4353595e-6, 1.9137576e-6
-0.177, 1.4491952e-6, 1.9076890e-6
-0.178, 1.4106892e-6, 1.8922372e-6
-0.179, 1.4549835e-6, 1.8604594e-6
-0.180, 1.4134267e-6, 1.8876526e-6
-0.181, 1.4446603e-6, 1.9015379e-6
-0.182, 1.4412137e-6, 1.9478441e-6
-0.183, 1.4299176e-6, 1.9231904e-6
-0.184, 1.4491623e-6, 1.8836784e-6
-0.185, 1.4211279e-6, 1.9016863e-6
-0.186, 1.4553957e-6, 1.8744765e-6
-0.187, 1.4391688e-6, 1.8969699e-6
-0.188, 1.4393996e-6, 1.9089589e-6
-0.189, 1.4537798e-6, 1.9587114e-6
-0.190, 1.4248712e-6, 1.9411489e-6
-0.191, 1.4689347e-6, 1.9069470e-6
-0.192, 1.4204683e-6, 1.8993778e-6
-0.193, 1.4567811e-6, 1.8592721e-6
-0.194, 1.4573911e-6, 1.9318481e-6
-0.195, 1.4401088e-6, 1.8882959e-6
-0.196, 1.4613161e-6, 1.9501035e-6
-0.197, 1.4207651e-6, 1.9400604e-6
-0.198, 1.4717381e-6, 1.9080023e-6
-0.199, 1.4380475e-6, 1.9160170e-6
-0.200, 1.4393997e-6, 1.8519172e-6
-0.201, 1.4716227e-6, 1.9218710e-6
-0.202, 1.4300988e-6, 1.8878176e-6
-0.203, 1.4758938e-6, 1.9430947e-6
-0.204, 1.4214742e-6, 1.9548197e-6
-0.205, 1.4604914e-6, 1.8993447e-6
-0.206, 1.4635586e-6, 1.9309905e-6
-0.207, 1.4427803e-6, 1.8464092e-6
-0.208, 1.4784500e-6, 1.9279069e-6
-0.209, 1.4246569e-6, 1.9115641e-6
-0.210, 1.4778232e-6, 1.9441502e-6
-0.211, 1.4432915e-6, 1.9522802e-6
-0.212, 1.4760589e-6, 1.8992457e-6
-0.213, 1.4867119e-6, 1.9393185e-6
-0.214, 1.4472329e-6, 1.8474647e-6
-0.215, 1.4741624e-6, 1.8692325e-6
-0.216, 1.4349802e-6, 1.9088434e-6
-0.217, 1.4692646e-6, 1.9580191e-6
-0.218, 1.4710126e-6, 1.9631807e-6
-0.219, 1.4493767e-6, 1.8825901e-6
-0.220, 1.4888226e-6, 1.9301824e-6
-0.221, 1.4388226e-6, 1.8756969e-6
-0.222, 1.4817811e-6, 1.8801989e-6
-0.223, 1.4446932e-6, 1.9189029e-6
-0.224, 1.4686709e-6, 1.9373724e-6
-0.225, 1.4789775e-6, 1.9972340e-6
-0.226, 1.4481398e-6, 1.9394502e-6
-0.227, 1.4998220e-6, 1.9025439e-6
-0.228, 1.4417415e-6, 1.8816500e-6
-0.229, 1.4893833e-6, 1.8961621e-6
-0.230, 1.4742614e-6, 1.9410829e-6
-0.231, 1.4626848e-6, 1.9247734e-6
-0.232, 1.4943635e-6, 1.9935071e-6
-0.233, 1.4534993e-6, 1.8985861e-6
-0.234, 1.5010257e-6, 1.9338268e-6
-0.235, 1.4500198e-6, 1.9009608e-6
-0.236, 1.4895812e-6, 1.8786816e-6
-0.237, 1.4885259e-6, 1.9581344e-6
-0.238, 1.4581333e-6, 1.9153902e-6
-0.239, 1.5018009e-6, 1.9572767e-6
-0.240, 1.4412633e-6, 1.9367953e-6
-0.241, 1.5005805e-6, 1.9241963e-6
-0.242, 1.4678958e-6, 1.9228276e-6
-0.243, 1.4687698e-6, 1.8544073e-6
-0.244, 1.4885752e-6, 1.9550671e-6
-0.245, 1.4385091e-6, 1.9338436e-6
-0.246, 1.4995087e-6, 1.9775935e-6
-0.247, 1.4489478e-6, 1.9433091e-6
-0.248, 1.4951552e-6, 1.9331014e-6
-0.249, 1.4958641e-6, 1.9347503e-6
-0.250, 1.4789775e-6, 1.8854759e-6
-0.251, 1.4990965e-6, 1.9464260e-6
-0.252, 1.4555608e-6, 1.9332333e-6
-0.253, 1.5017679e-6, 1.9655881e-6
-0.254, 1.4744921e-6, 1.9739987e-6
-0.255, 1.4748879e-6, 1.9194140e-6
-0.256, 1.4971506e-6, 1.9741635e-6
-0.257, 1.4492447e-6, 1.8774945e-6
-0.258, 1.4962600e-6, 1.9427650e-6
-0.259, 1.4624209e-6, 1.9337940e-6
-0.260, 1.4908674e-6, 1.9613994e-6
-0.261, 1.4955015e-6, 1.9838105e-6
-0.262, 1.4721670e-6, 1.9174352e-6
-0.263, 1.5011414e-6, 1.9382794e-6
-0.264, 1.4655870e-6, 1.8745095e-6
-0.265, 1.5088754e-6, 1.9547538e-6
-0.266, 1.4701221e-6, 1.9569634e-6
-0.267, 1.4752177e-6, 1.9615316e-6
-0.268, 1.5026749e-6, 2.0190018e-6
-0.269, 1.4678299e-6, 1.9441668e-6
-0.270, 1.5125363e-6, 1.9463434e-6
-0.271, 1.4522791e-6, 1.8912476e-6
-0.272, 1.5023945e-6, 1.9193644e-6
-0.273, 1.4876682e-6, 1.9642030e-6
-0.274, 1.4688028e-6, 1.9153736e-6
-0.275, 1.4976453e-6, 1.9963600e-6
-0.276, 1.4600627e-6, 1.9461786e-6
-0.277, 1.5172857e-6, 1.9458816e-6
-0.278, 1.4804453e-6, 1.9011752e-6
-0.279, 1.4878003e-6, 1.8665446e-6
-0.280, 1.5083806e-6, 1.9729760e-6
-0.281, 1.4564017e-6, 1.9169734e-6
-0.282, 1.5029718e-6, 1.9519505e-6
-0.283, 1.4450395e-6, 1.9319800e-6
-0.284, 1.4949902e-6, 1.9405059e-6
-0.285, 1.4951715e-6, 1.9525439e-6
-0.286, 1.4665270e-6, 1.8753176e-6
-0.287, 1.4970681e-6, 1.9621416e-6
-0.288, 1.4506135e-6, 1.9315182e-6
-0.289, 1.4927143e-6, 1.9676827e-6
-0.290, 1.4550660e-6, 1.9246745e-6
-0.291, 1.4809235e-6, 1.9193976e-6
-0.292, 1.4929619e-6, 1.9596846e-6
-0.293, 1.4523284e-6, 1.8651922e-6
-0.294, 1.4929948e-6, 1.9165445e-6
-0.295, 1.4403727e-6, 1.9196777e-6
-0.296, 1.4810225e-6, 1.9629992e-6
-0.297, 1.4734533e-6, 1.9899285e-6
-0.298, 1.4494426e-6, 1.8935234e-6
-0.299, 1.4882619e-6, 1.9181441e-6
-0.300, 1.4408015e-6, 1.8673691e-6
-0.301, 1.4867613e-6, 1.8859871e-6
-0.302, 1.4350792e-6, 1.9229760e-6
-0.303, 1.4631630e-6, 1.9270822e-6
-0.304, 1.4756795e-6, 1.9799518e-6
-0.305, 1.4371569e-6, 1.9190843e-6
-0.306, 1.4848648e-6, 1.9080683e-6
-0.307, 1.4291259e-6, 1.8603439e-6
-0.308, 1.4762072e-6, 1.8796711e-6
-0.309, 1.4519658e-6, 1.9245426e-6
-0.310, 1.4429452e-6, 1.8856078e-6
-0.311, 1.4803134e-6, 1.9456015e-6
-0.312, 1.4368270e-6, 1.9094700e-6
-0.313, 1.4821110e-6, 1.9156046e-6
-0.314, 1.4272625e-6, 1.8929297e-6
-0.315, 1.4573252e-6, 1.8622733e-6
-0.316, 1.4630145e-6, 1.9570296e-6
-0.317, 1.4400923e-6, 1.9018019e-6
-0.318, 1.4612500e-6, 1.9251529e-6
-0.319, 1.4114478e-6, 1.9209806e-6
-0.320, 1.4703199e-6, 1.9102122e-6
-0.321, 1.4332982e-6, 1.9190018e-6
-0.322, 1.4385917e-6, 1.8145490e-6
-0.323, 1.4580013e-6, 1.9120425e-6
-0.324, 1.4123548e-6, 1.9059739e-6
-0.325, 1.4563357e-6, 1.9346680e-6
-0.326, 1.4222328e-6, 1.9288798e-6
-0.327, 1.4494591e-6, 1.8757462e-6
-0.328, 1.4461609e-6, 1.9284016e-6
-0.329, 1.4275428e-6, 1.8318314e-6
-0.330, 1.4484697e-6, 1.8418248e-6
-0.331, 1.4119096e-6, 1.8990808e-6
-0.332, 1.4588259e-6, 1.9285335e-6
-0.333, 1.4380969e-6, 1.9458157e-6
-0.334, 1.4311707e-6, 1.9226297e-6
-0.335, 1.4627838e-6, 1.9153904e-6
-0.336, 1.4126022e-6, 1.8703045e-6
-0.337, 1.4520811e-6, 1.8806276e-6
-0.338, 1.4176483e-6, 1.9024285e-6
-0.339, 1.4393667e-6, 1.8910498e-6
-0.340, 1.4552804e-6, 1.9616139e-6
-0.341, 1.4248877e-6, 1.8820622e-6
-0.342, 1.4517843e-6, 1.8967556e-6
-0.343, 1.4123548e-6, 1.8912642e-6
-0.344, 1.4540765e-6, 1.8495259e-6
-0.345, 1.4230243e-6, 1.9120262e-6
-0.346, 1.4184234e-6, 1.8879989e-6
-0.347, 1.4581992e-6, 1.9381312e-6
-0.348, 1.4099967e-6, 1.8948756e-6
-0.349, 1.4572756e-6, 1.8927483e-6
-0.350, 1.3971172e-6, 1.8803803e-6
-0.351, 1.4371075e-6, 1.8701724e-6
-0.352, 1.4446273e-6, 1.9127517e-6
-0.353, 1.4224636e-6, 1.8686553e-6
-0.354, 1.4484860e-6, 1.9437214e-6
-0.355, 1.4041918e-6, 1.9128506e-6
-0.356, 1.4444788e-6, 1.8901923e-6
-0.357, 1.4262400e-6, 1.8674350e-6
-0.358, 1.4480244e-6, 1.8332661e-6
-0.359, 1.4596010e-6, 1.8755320e-6
-0.360, 1.4130475e-6, 1.8726626e-6
-0.361, 1.4410982e-6, 1.9110696e-6
-0.362, 1.4063191e-6, 1.9120262e-6
-0.363, 1.4319623e-6, 1.8980584e-6
-0.364, 1.4462762e-6, 1.8861191e-6
-0.365, 1.4207815e-6, 1.8417259e-6
-0.366, 1.4497393e-6, 1.8563036e-6
-0.367, 1.4059398e-6, 1.8951066e-6
-0.368, 1.4371899e-6, 1.9007134e-6
-0.369, 1.4181596e-6, 1.9056937e-6
-0.370, 1.4473977e-6, 1.9142853e-6
-0.371, 1.4455343e-6, 1.9183258e-6
-0.372, 1.4128989e-6, 1.8954529e-6
-0.373, 1.4469360e-6, 1.8415774e-6
-0.374, 1.4047361e-6, 1.8985036e-6
-0.375, 1.4422856e-6, 1.9109211e-6
-0.376, 1.4322427e-6, 1.9357728e-6
-0.377, 1.4274440e-6, 1.8962774e-6
-0.378, 1.4569130e-6, 1.8982727e-6
-0.379, 1.4153561e-6, 1.8827220e-6
-0.380, 1.4491128e-6, 1.8502021e-6
-0.381, 1.4161807e-6, 1.9053638e-6
-0.382, 1.4410489e-6, 1.8879659e-6
-0.383, 1.4543239e-6, 1.9478275e-6
-0.384, 1.4191326e-6, 1.9308256e-6
-0.385, 1.4567315e-6, 1.8710464e-6
-0.386, 1.4016523e-6, 1.8877352e-6
-0.387, 1.4584796e-6, 1.8539124e-6
-0.388, 1.4215896e-6, 1.8776428e-6
-0.389, 1.4260257e-6, 1.8718051e-6
-0.390, 1.4541095e-6, 1.9323097e-6
-0.391, 1.4077374e-6, 1.9440181e-6
-0.392, 1.4561377e-6, 1.9186225e-6
-0.393, 1.4163126e-6, 1.8905056e-6
-0.394, 1.4511905e-6, 1.8597008e-6
-0.395, 1.4517843e-6, 1.8883782e-6
-0.396, 1.4348152e-6, 1.8973658e-6
-0.397, 1.4350296e-6, 1.9026922e-6
-0.398, 1.4075889e-6, 1.9254992e-6
-0.399, 1.4465897e-6, 1.9349484e-6
-0.400, 1.4389215e-6, 1.9099648e-6
-0.401, 1.4480079e-6, 1.8864819e-6
-0.402, 1.4579683e-6, 1.8970854e-6
-0.403, 1.4088423e-6, 1.9236027e-6
-0.404, 1.4521142e-6, 1.8938697e-6
-0.405, 1.4204353e-6, 1.9420393e-6
-0.406, 1.4412302e-6, 1.9330355e-6
-0.407, 1.4476946e-6, 1.9306442e-6
-0.408, 1.4353759e-6, 1.8974152e-6
-0.409, 1.4528232e-6, 1.8603439e-6
-0.410, 1.4288785e-6, 1.9188533e-6
-0.411, 1.4565007e-6, 1.9135764e-6
-0.412, 1.4368272e-6, 1.9467393e-6
-0.413, 1.4392183e-6, 1.9583488e-6
-0.414, 1.4635093e-6, 1.9349650e-6
-0.415, 1.4394327e-6, 1.8954529e-6
-0.416, 1.4648450e-6, 1.8740313e-6
-0.417, 1.4188852e-6, 1.8909343e-6
-0.418, 1.4499044e-6, 1.9255979e-6
-0.419, 1.4520317e-6, 1.9709807e-6
-0.420, 1.4399934e-6, 1.9427321e-6
-0.421, 1.4786643e-6, 1.9512247e-6
-0.422, 1.4277738e-6, 1.9034837e-6
-0.423, 1.4749044e-6, 1.8893018e-6
-0.424, 1.4399438e-6, 1.8706012e-6
-0.425, 1.4508443e-6, 1.9175504e-6
-0.426, 1.4681267e-6, 1.9456509e-6
-0.427, 1.4359201e-6, 1.9372571e-6
-0.428, 1.4686873e-6, 1.9271315e-6
-0.429, 1.4285488e-6, 1.9036488e-6
-0.430, 1.4610687e-6, 1.9106078e-6
-0.431, 1.4630475e-6, 1.8839094e-6
-0.432, 1.4497394e-6, 1.9037147e-6
-0.433, 1.4791260e-6, 1.9456838e-6
-0.434, 1.4353925e-6, 1.9525276e-6
-0.435, 1.4731233e-6, 1.9712115e-6
-0.436, 1.4471999e-6, 1.9113172e-6
-0.437, 1.4753991e-6, 1.9309082e-6
-0.438, 1.4758609e-6, 1.8950407e-6
-0.439, 1.4429287e-6, 1.9145491e-6
-0.440, 1.4786808e-6, 1.9327881e-6
-0.441, 1.4371569e-6, 1.9511092e-6
-0.442, 1.4710291e-6, 1.9681115e-6
-0.443, 1.4681926e-6, 1.9244108e-6
-0.444, 1.4573745e-6, 1.9165282e-6
-0.445, 1.4901090e-6, 1.8768511e-6
-0.446, 1.4417744e-6, 1.9312708e-6
-0.447, 1.4782520e-6, 1.9338436e-6
-0.448, 1.4384763e-6, 1.9494601e-6
-0.449, 1.4740633e-6, 1.9656377e-6
-0.450, 1.4826221e-6, 1.9535169e-6
-0.451, 1.4433575e-6, 1.9234049e-6
-0.452, 1.4924836e-6, 1.8748228e-6
-0.453, 1.4434233e-6, 1.9133947e-6
-0.454, 1.4872890e-6, 1.9624881e-6
-0.455, 1.4571932e-6, 1.9538961e-6
-0.456, 1.4555771e-6, 1.9699255e-6
-0.457, 1.5043736e-6, 1.9688700e-6
-0.458, 1.4623384e-6, 1.9313864e-6
-0.459, 1.4923352e-6, 1.9134939e-6
-0.460, 1.4452374e-6, 1.9172041e-6
-0.461, 1.4900759e-6, 1.9481079e-6
-0.462, 1.4833972e-6, 1.9736688e-6
-0.463, 1.4578695e-6, 1.9695624e-6
-0.464, 1.4863325e-6, 1.9730915e-6
-0.465, 1.4409334e-6, 1.9367128e-6
-0.466, 1.5042251e-6, 1.9631145e-6
-0.467, 1.4626518e-6, 1.9068151e-6
-0.468, 1.4768667e-6, 1.9227616e-6
-0.469, 1.4834136e-6, 1.9705521e-6
-0.470, 1.4564181e-6, 1.9895824e-6
-0.471, 1.4916096e-6, 1.9842391e-6
-0.472, 1.4519986e-6, 1.9393349e-6
-0.473, 1.4922691e-6, 1.9467723e-6
-0.474, 1.4892844e-6, 1.9357894e-6
-0.475, 1.4806598e-6, 1.9501199e-6
-0.476, 1.4787962e-6, 1.9627023e-6
-0.477, 1.4536148e-6, 1.9758620e-6
-0.478, 1.4913951e-6, 2.0242956e-6
-0.479, 1.4812204e-6, 1.9598328e-6
-0.480, 1.4943305e-6, 1.9556114e-6
-0.481, 1.4992943e-6, 1.9491633e-6
-0.482, 1.4599638e-6, 1.9393019e-6
-0.483, 1.5043240e-6, 1.9738502e-6
-0.484, 1.4673516e-6, 1.9806939e-6
-0.485, 1.5002672e-6, 2.0113666e-6
-0.486, 1.5017844e-6, 2.0132961e-6
-0.487, 1.4913621e-6, 1.9489489e-6
-0.488, 1.5113819e-6, 1.9429792e-6
-0.489, 1.4722659e-6, 1.9114489e-6
-0.490, 1.5103597e-6, 1.9788467e-6
-0.491, 1.4786972e-6, 1.9826728e-6
-0.492, 1.4751353e-6, 2.0203047e-6
-0.493, 1.5178299e-6, 2.0083985e-6
-0.494, 1.4846339e-6, 1.9488170e-6
-0.495, 1.5263062e-6, 1.9597173e-6
-0.496, 1.4628827e-6, 1.9196943e-6
-0.497, 1.5101947e-6, 2.0074253e-6
-0.498, 1.4987830e-6, 2.0057598e-6
-0.499, 1.4957653e-6, 1.9789788e-6
-0.500, 1.5189843e-6, 2.0334314e-6
