Jan. 28, 2006   04:04:06
Square Wave Voltammetry
File: z:\users\scottsaunders\git\labwork\ida\01_17_19_psoralen_nonequil_2\data\control\4\75um_control_transfer_4_swv_30.txt
Data Source:  Experiment
Instrument Model:  CHI760E
Header: 
Note: 

Init E (V) = 0.1
Final E (V) = -0.5
Incr E (V) = 0.001
Amplitude (V) = 0.025
Frequency (Hz) = 300
Quiet Time (sec) = 2
Sensitivity (A/V) = 1e-6
Sens 2 (A/V) = 1e-6

Potential/V, i1/A, i2/A

0.099, 2.4487193e-7, 1.7318641e-7
0.098, 1.4012235e-7, 1.5115469e-7
0.097, 1.3974307e-7, 1.6184073e-7
0.096, 1.5123715e-7, 1.6767848e-7
0.095, 1.4182091e-7, 9.4162488e-8
0.094, 1.6058743e-7, 1.2605568e-7
0.093, 1.2697917e-7, 1.1479247e-7
0.092, 1.6316000e-7, 1.3883607e-7
0.091, 1.4318964e-7, 1.3817643e-7
0.090, 1.4502011e-7, 1.1543562e-7
0.089, 1.6174178e-7, 1.0534325e-7
0.088, 1.3514213e-7, 8.6857057e-8
0.087, 1.6060392e-7, 1.1472651e-7
0.086, 1.3350953e-7, 7.4192116e-8
0.085, 1.6457821e-7, 1.3004647e-7
0.084, 1.6121409e-7, 1.4592710e-7
0.083, 1.2480240e-7, 1.3153065e-7
0.082, 1.6289614e-7, 1.1828853e-7
0.081, 1.3158011e-7, 1.0522781e-7
0.080, 1.5183082e-7, 1.4652078e-7
0.079, 1.4162300e-7, 1.4318964e-7
0.078, 1.3329516e-7, 1.4770812e-7
0.077, 1.5949904e-7, 1.7171872e-7
0.076, 1.2336770e-7, 1.3746732e-7
0.075, 1.5234204e-7, 1.3773118e-7
0.074, 1.2349962e-7, 9.3041102e-8
0.073, 1.3848975e-7, 1.2996401e-7
0.072, 1.5000033e-7, 1.3217378e-7
0.071, 1.3141521e-7, 1.1043890e-7
0.070, 1.5936712e-7, 1.1876676e-7
0.069, 1.1517176e-7, 1.1165922e-7
0.068, 1.5592053e-7, 8.4432905e-8
0.067, 1.2800160e-7, 8.0326700e-8
0.066, 1.3550492e-7, 6.4973761e-8
0.065, 1.5105576e-7, 1.0402398e-7
0.064, 1.2135582e-7, 1.4261246e-7
0.063, 1.4800494e-7, 1.4973649e-7
0.062, 1.1607876e-7, 1.0817966e-7
0.061, 1.4135915e-7, 1.3349305e-7
0.060, 1.4244755e-7, 1.4671868e-7
0.059, 1.3256957e-7, 1.1990463e-7
0.058, 1.4886248e-7, 1.4510258e-7
0.057, 1.1457810e-7, 1.5031365e-7
0.056, 1.4251351e-7, 1.7077875e-7
0.055, 1.2310385e-7, 1.2757285e-7
0.054, 1.3377338e-7, 1.1818958e-7
0.053, 1.4818634e-7, 1.2455503e-7
0.052, 1.1706821e-7, 1.1177466e-7
0.051, 1.5592053e-7, 1.1268165e-7
0.050, 1.2260912e-7, 9.0287145e-8
0.049, 1.3659331e-7, 1.2099302e-7
0.048, 1.4160652e-7, 9.9950761e-8
0.047, 1.2165265e-7, 6.6589855e-8
0.046, 1.5161643e-7, 9.5894009e-8
0.045, 1.1441318e-7, 1.0366118e-7
0.044, 1.4775759e-7, 1.3534000e-7
0.043, 1.1967376e-7, 1.1428126e-7
0.042, 1.2287298e-7, 1.1781029e-7
0.041, 1.3377340e-7, 1.4351946e-7
0.040, 1.2678129e-7, 1.1217043e-7
0.039, 1.4807091e-7, 1.3416917e-7
0.038, 1.1192309e-7, 1.1480897e-7
0.037, 1.4147460e-7, 1.6388559e-7
0.036, 1.2965069e-7, 1.5969692e-7
0.035, 1.2704514e-7, 1.0715723e-7
0.034, 1.4762567e-7, 1.4091390e-7
0.033, 1.1451213e-7, 1.0211104e-7
0.032, 1.4394821e-7, 1.2204843e-7
0.031, 1.1926149e-7, 9.3849160e-8
0.030, 1.4314017e-7, 1.0953191e-7
0.029, 1.4368436e-7, 1.2338418e-7
0.028, 1.2084460e-7, 6.1988928e-8
0.027, 1.3784661e-7, 8.1299660e-8
0.026, 1.0850948e-7, 7.2905841e-8
0.025, 1.3811047e-7, 1.2082810e-7
0.024, 1.3070610e-7, 1.2115792e-7
0.023, 1.2104249e-7, 1.0720671e-7
0.022, 1.4838425e-7, 1.3006296e-7
0.021, 9.4756146e-8, 1.0743759e-7
0.020, 1.3698909e-7, 1.2392839e-7
0.019, 1.1035645e-7, 1.0382610e-7
0.018, 1.3723646e-7, 1.4069953e-7
0.017, 1.3133274e-7, 1.6189020e-7
0.016, 1.1459458e-7, 1.3768171e-7
0.015, 1.4378331e-7, 1.2244422e-7
0.014, 1.0260577e-7, 1.1141186e-7
0.013, 1.4068303e-7, 1.0911964e-7
0.012, 1.2239474e-7, 9.6487682e-8
0.011, 1.3336113e-7, 9.1985697e-8
0.010, 1.3497721e-7, 1.3029383e-7
0.009, 1.0926806e-7, 1.0123703e-7
0.008, 1.2937035e-7, 7.9353740e-8
0.007, 9.8961308e-8, 7.7952024e-8
0.006, 1.3538948e-7, 7.1833938e-8
0.005, 1.3613158e-7, 1.2397786e-7
0.004, 1.1927797e-7, 1.1541913e-7
0.003, 1.2983209e-7, 1.2452205e-7
0.002, 9.3898635e-8, 9.6850485e-8
0.001, 1.3075558e-7, 1.2559396e-7
-0.000, 1.0778389e-7, 1.0349628e-7
-0.001, 1.2056425e-7, 1.0156685e-7
-0.002, 1.2951877e-7, 1.6764550e-7
-0.003, 1.0029706e-7, 1.4663621e-7
-0.004, 1.3543897e-7, 1.3794556e-7
-0.005, 1.0545868e-7, 1.0756951e-7
-0.006, 1.3031033e-7, 1.0717373e-7
-0.007, 1.2648445e-7, 1.2000356e-7
-0.008, 1.1381952e-7, 9.1490975e-8
-0.009, 1.3543895e-7, 1.0789932e-7
-0.010, 1.0714074e-7, 1.0817966e-7
-0.011, 1.2594026e-7, 1.2544554e-7
-0.012, 1.1568298e-7, 7.0745543e-8
-0.013, 1.1372057e-7, 6.9426278e-8
-0.014, 1.2683077e-7, 1.0191316e-7
-0.015, 1.1286305e-7, 8.7747566e-8
-0.016, 1.4058409e-7, 1.3616454e-7
-0.017, 1.0613481e-7, 1.0131949e-7
-0.018, 1.2470343e-7, 1.1734856e-7
-0.019, 1.1657349e-7, 1.2135581e-7
-0.020, 1.2341717e-7, 8.7302311e-8
-0.021, 1.2711111e-7, 1.5397463e-7
-0.022, 1.0260577e-7, 1.2874369e-7
-0.023, 1.3768171e-7, 1.6708481e-7
-0.024, 1.0752004e-7, 1.0009917e-7
-0.025, 1.2762231e-7, 1.1136239e-7
-0.026, 1.2452205e-7, 1.1398443e-7
-0.027, 1.0765196e-7, 8.6081990e-8
-0.028, 1.3242115e-7, 1.1444617e-7
-0.029, 1.0288612e-7, 7.1438151e-8
-0.030, 1.2470345e-7, 1.3525757e-7
-0.031, 1.0972980e-7, 8.2124195e-8
-0.032, 1.1462757e-7, 5.7107648e-8
-0.033, 1.3186046e-7, 9.2266042e-8
-0.034, 9.8450087e-8, 7.2658473e-8
-0.035, 1.2953525e-7, 1.3670875e-7
-0.036, 1.0664602e-7, 8.9990309e-8
-0.037, 1.2254316e-7, 1.1517176e-7
-0.038, 1.2112494e-7, 1.3703857e-7
-0.039, 1.0222649e-7, 1.0136897e-7
-0.040, 1.3240465e-7, 1.1508931e-7
-0.041, 9.7064863e-8, 1.1634261e-7
-0.042, 1.2354909e-7, 1.6764551e-7
-0.043, 1.1759590e-7, 1.3938026e-7
-0.044, 1.1480897e-7, 1.0232543e-7
-0.045, 1.3301481e-7, 1.3743436e-7
-0.046, 9.6619615e-8, 8.9429619e-8
-0.047, 1.2636903e-7, 1.1187360e-7
-0.048, 9.7790462e-8, 7.9634084e-8
-0.049, 1.2717706e-7, 1.0878983e-7
-0.050, 1.2681429e-7, 1.1997059e-7
-0.051, 1.0474958e-7, 7.8215876e-8
-0.052, 1.2768828e-7, 7.0597125e-8
-0.053, 8.9495586e-8, 4.9406445e-8
-0.054, 1.3288289e-7, 1.0921859e-7
-0.055, 1.0752003e-7, 1.0519483e-7
-0.056, 1.1230237e-7, 1.0593692e-7
-0.057, 1.2203193e-7, 1.2287296e-7
-0.058, 8.3756788e-8, 1.0864141e-7
-0.059, 1.1997059e-7, 1.1421530e-7
-0.060, 1.0008268e-7, 9.1523951e-8
-0.061, 1.2297191e-7, 1.5108873e-7
-0.062, 1.1462757e-7, 1.5275430e-7
-0.063, 1.1492440e-7, 1.2087759e-7
-0.064, 1.3125029e-7, 1.2928788e-7
-0.065, 9.5498237e-8, 9.6817502e-8
-0.066, 1.2533010e-7, 1.0667900e-7
-0.067, 1.1091714e-7, 8.7714575e-8
-0.068, 1.1851940e-7, 9.7196789e-8
-0.069, 1.2396137e-7, 1.2664935e-7
-0.070, 1.0588744e-7, 8.8225796e-8
-0.071, 1.2430766e-7, 6.8799629e-8
-0.072, 9.4789129e-8, 6.3291701e-8
-0.073, 1.1924499e-7, 8.4399929e-8
-0.074, 1.1870080e-7, 8.4169059e-8
-0.075, 1.1621069e-7, 9.6240328e-8
-0.076, 1.2242771e-7, 1.3306428e-7
-0.077, 9.5366310e-8, 1.0458467e-7
-0.078, 1.2676480e-7, 1.1945937e-7
-0.079, 9.3799684e-8, 8.9330683e-8
-0.080, 1.2033338e-7, 1.0219350e-7
-0.081, 1.1571596e-7, 1.4513554e-7
-0.082, 1.0542570e-7, 1.1993760e-7
-0.083, 1.2843037e-7, 1.3316323e-7
-0.084, 8.8357723e-8, 1.0875685e-7
-0.085, 1.1846993e-7, 1.3576877e-7
-0.086, 1.1520476e-7, 9.1474483e-8
-0.087, 1.1475949e-7, 8.8638060e-8
-0.088, 1.3281692e-7, 1.2724303e-7
-0.089, 9.9983737e-8, 1.0611831e-7
-0.090, 1.2668234e-7, 1.2697917e-7
-0.091, 1.0380960e-7, 6.0636680e-8
-0.092, 1.2813354e-7, 6.9789074e-8
-0.093, 1.2302138e-7, 9.9472516e-8
-0.094, 9.7526609e-8, 7.8298328e-8
-0.095, 1.3177801e-7, 1.2340068e-7
-0.096, 9.6817502e-8, 1.1304444e-7
-0.097, 1.2244422e-7, 1.2889211e-7
-0.098, 1.0542570e-7, 1.1853589e-7
-0.099, 9.8367636e-8, 9.9423048e-8
-0.100, 1.3632948e-7, 1.1555105e-7
-0.101, 9.5547712e-8, 1.1967376e-7
-0.102, 1.3210781e-7, 1.6200565e-7
-0.103, 9.0336613e-8, 1.3789608e-7
-0.104, 1.1748048e-7, 1.2325225e-7
-0.105, 1.1487494e-7, 1.3123380e-7
-0.106, 1.0784985e-7, 9.4921063e-8
-0.107, 1.2895808e-7, 9.8680957e-8
-0.108, 8.9957325e-8, 9.4376858e-8
-0.109, 1.3858870e-7, 1.0963085e-7
-0.110, 9.9736368e-8, 1.0834457e-7
-0.111, 1.0936700e-7, 7.5841207e-8
-0.112, 1.2269157e-7, 7.7012047e-8
-0.113, 8.8769987e-8, 6.0059506e-8
-0.114, 1.3944623e-7, 9.0583981e-8
-0.115, 1.0070933e-7, 8.4729741e-8
-0.116, 1.2450556e-7, 1.2722654e-7
-0.117, 1.1804117e-7, 1.3388882e-7
-0.118, 1.1231886e-7, 1.0841053e-7
-0.119, 1.2194948e-7, 1.1129642e-7
-0.120, 9.8037816e-8, 9.9818827e-8
-0.121, 1.2547851e-7, 1.3868765e-7
-0.122, 1.1068627e-7, 1.4685060e-7
-0.123, 1.1385250e-7, 1.4119425e-7
-0.124, 1.2895808e-7, 1.3759926e-7
-0.125, 9.6537150e-8, 1.1484195e-7
-0.126, 1.2617113e-7, 1.0931753e-7
-0.127, 9.5349819e-8, 9.5382802e-8
-0.128, 1.2819949e-7, 1.1124695e-7
-0.129, 1.2287296e-7, 1.2529712e-7
-0.130, 1.1367110e-7, 9.6636100e-8
-0.131, 1.2384592e-7, 1.1266516e-7
-0.132, 9.8664472e-8, 6.0900540e-8
-0.133, 1.2912298e-7, 8.9545054e-8
-0.134, 1.0311698e-7, 7.4554919e-8
-0.135, 1.1038944e-7, 1.0625024e-7
-0.136, 1.2493432e-7, 1.3938026e-7
-0.137, 1.0267174e-7, 1.0219350e-7
-0.138, 1.2844686e-7, 1.3108539e-7
-0.139, 8.7434238e-8, 1.0173176e-7
-0.140, 1.2871071e-7, 1.3085452e-7
-0.141, 1.1418232e-7, 1.3614806e-7
-0.142, 1.0969681e-7, 1.4510258e-7
-0.143, 1.3400425e-7, 1.6503995e-7
-0.144, 9.9225161e-8, 1.5217712e-7
-0.145, 1.2915596e-7, 1.2458801e-7
-0.146, 1.0740460e-7, 7.6764685e-8
-0.147, 1.2697917e-7, 1.1080170e-7
-0.148, 1.3171204e-7, 1.3085452e-7
-0.149, 1.0611831e-7, 1.0074231e-7
-0.150, 1.3426811e-7, 1.1052136e-7
-0.151, 9.9027275e-8, 7.2955309e-8
-0.152, 1.2572588e-7, 1.0105564e-7
-0.153, 1.1441319e-7, 7.3532490e-8
-0.154, 1.1568298e-7, 7.4736320e-8
-0.155, 1.3614806e-7, 1.3327866e-7
-0.156, 9.6388739e-8, 1.2246070e-7
-0.157, 1.3425162e-7, 1.3164608e-7
-0.158, 9.9851803e-8, 1.0611831e-7
-0.159, 1.2274104e-7, 1.1903062e-7
-0.160, 1.2719356e-7, 1.3598316e-7
-0.161, 1.0986172e-7, 1.2730899e-7
-0.162, 1.3751681e-7, 1.4904387e-7
-0.163, 9.6108394e-8, 1.3590071e-7
-0.164, 1.3893502e-7, 1.4647131e-7
-0.165, 1.0994418e-7, 1.2951875e-7
-0.166, 1.2376347e-7, 9.6553649e-8
-0.167, 1.4045217e-7, 1.2770478e-7
-0.168, 1.1167572e-7, 1.1464407e-7
-0.169, 1.3999042e-7, 1.3060715e-7
-0.170, 1.0127001e-7, 1.0770143e-7
-0.171, 1.3139872e-7, 9.3535832e-8
-0.172, 1.2846336e-7, 9.7625552e-8
-0.173, 1.1655700e-7, 8.4152568e-8
-0.174, 1.3637893e-7, 1.0997716e-7
-0.175, 1.0501343e-7, 1.2943632e-7
-0.176, 1.3877010e-7, 1.4002340e-7
-0.177, 1.1261569e-7, 1.1962427e-7
-0.178, 1.1657349e-7, 1.2727601e-7
-0.179, 1.2656690e-7, 1.4709796e-7
-0.180, 1.0522781e-7, 1.4068303e-7
-0.181, 1.3987498e-7, 1.5859206e-7
-0.182, 1.0352926e-7, 1.4881300e-7
-0.183, 1.2941982e-7, 1.5968044e-7
-0.184, 1.2590726e-7, 1.5976291e-7
-0.185, 1.2188352e-7, 9.8878850e-8
-0.186, 1.3962763e-7, 1.2941982e-7
-0.187, 1.0347978e-7, 1.2511572e-7
-0.188, 1.4434399e-7, 1.3336111e-7
-0.189, 1.1213745e-7, 1.2862826e-7
-0.190, 1.2551149e-7, 1.1748048e-7
-0.191, 1.3263552e-7, 1.1599630e-7
-0.192, 1.3172853e-7, 8.2833296e-8
-0.193, 1.4607554e-7, 9.8219218e-8
-0.194, 1.0656356e-7, 1.1500686e-7
-0.195, 1.3895149e-7, 1.6924511e-7
-0.196, 1.2419223e-7, 1.5869099e-7
-0.197, 1.2198247e-7, 1.3346006e-7
-0.198, 1.4454189e-7, 1.4915931e-7
-0.199, 1.1630963e-7, 1.2966719e-7
-0.200, 1.4610850e-7, 1.7443971e-7
-0.201, 1.1932745e-7, 1.5535984e-7
-0.202, 1.4190334e-7, 1.7542916e-7
-0.203, 1.4025427e-7, 1.8860530e-7
-0.204, 1.2387891e-7, 1.1688682e-7
-0.205, 1.4366788e-7, 1.2815002e-7
-0.206, 1.2114144e-7, 1.2833144e-7
-0.207, 1.4053462e-7, 1.6065339e-7
-0.208, 1.4889545e-7, 1.2895808e-7
-0.209, 1.3128329e-7, 1.2506625e-7
-0.210, 1.5821277e-7, 1.3415267e-7
-0.211, 1.1281358e-7, 9.0814851e-8
-0.212, 1.5216065e-7, 1.0936700e-7
-0.213, 1.2706164e-7, 1.0094020e-7
-0.214, 1.5278728e-7, 1.6662307e-7
-0.215, 1.4648779e-7, 1.6766199e-7
-0.216, 1.2788618e-7, 1.5672859e-7
-0.217, 1.5356235e-7, 1.5712438e-7
-0.218, 1.2016848e-7, 1.5008280e-7
-0.219, 1.6014218e-7, 1.7406043e-7
-0.220, 1.3873712e-7, 1.7836452e-7
-0.221, 1.4680111e-7, 1.8644502e-7
-0.222, 1.6230248e-7, 2.0761919e-7
-0.223, 1.3128327e-7, 1.7194959e-7
-0.224, 1.7026754e-7, 1.7193310e-7
-0.225, 1.2447258e-7, 1.3972657e-7
-0.226, 1.6170881e-7, 1.5897135e-7
-0.227, 1.6377015e-7, 1.7816664e-7
-0.228, 1.5301816e-7, 1.3857222e-7
-0.229, 1.6146144e-7, 1.7127347e-7
-0.230, 1.4464082e-7, 1.2562694e-7
-0.231, 1.6969035e-7, 1.5966395e-7
-0.232, 1.4370086e-7, 1.3247062e-7
-0.233, 1.5196274e-7, 1.3148116e-7
-0.234, 1.7074576e-7, 1.9190347e-7
-0.235, 1.3291587e-7, 1.7615476e-7
-0.236, 1.6883284e-7, 1.8667588e-7
-0.237, 1.4099636e-7, 1.7452216e-7
-0.238, 1.7359869e-7, 1.9167260e-7
-0.239, 1.6396805e-7, 2.0270495e-7
-0.240, 1.6007623e-7, 1.8510926e-7
-0.241, 1.8527416e-7, 2.2547874e-7
-0.242, 1.5519494e-7, 1.9922538e-7
-0.243, 1.8151427e-7, 2.0936723e-7
-0.244, 1.6048848e-7, 1.6647466e-7
-0.245, 1.6324246e-7, 1.7112505e-7
-0.246, 1.8604925e-7, 2.0067657e-7
-0.247, 1.6731568e-7, 1.7600632e-7
-0.248, 2.0247408e-7, 1.9130981e-7
-0.249, 1.5181432e-7, 1.6601291e-7
-0.250, 1.8344369e-7, 1.5423848e-7
-0.251, 1.8181109e-7, 1.5878993e-7
-0.252, 1.6908020e-7, 1.4886247e-7
-0.253, 1.9383289e-7, 2.2963441e-7
-0.254, 1.6030710e-7, 2.1144507e-7
-0.255, 1.8919899e-7, 2.1271487e-7
-0.256, 1.6624378e-7, 1.7625369e-7
-0.257, 1.7993115e-7, 1.8778076e-7
-0.258, 1.8616467e-7, 2.1945959e-7
-0.259, 1.6546871e-7, 2.2979933e-7
-0.260, 2.0166604e-7, 2.2346686e-7
-0.261, 1.6553469e-7, 2.1957503e-7
-0.262, 1.8451559e-7, 2.5903753e-7
-0.263, 1.8326229e-7, 1.8708815e-7
-0.264, 1.7895819e-7, 1.8029394e-7
-0.265, 2.0493120e-7, 2.1447937e-7
-0.266, 1.7206503e-7, 2.0150111e-7
-0.267, 2.0308423e-7, 2.1947609e-7
-0.268, 1.7199908e-7, 1.8217389e-7
-0.269, 1.9345360e-7, 1.6522134e-7
-0.270, 1.9741140e-7, 1.8794566e-7
-0.271, 1.7976625e-7, 1.6485856e-7
-0.272, 2.0361195e-7, 1.6396804e-7
-0.273, 1.6799180e-7, 2.0897146e-7
-0.274, 2.0262249e-7, 2.2247741e-7
-0.275, 1.7165276e-7, 2.0940021e-7
-0.276, 1.8433420e-7, 1.9574583e-7
-0.277, 2.0351300e-7, 2.1881645e-7
-0.278, 1.6723322e-7, 2.1729932e-7
-0.279, 1.9597670e-7, 2.3717072e-7
-0.280, 1.6418242e-7, 2.3662652e-7
-0.281, 1.8774779e-7, 2.4648804e-7
-0.282, 1.8393841e-7, 2.2993126e-7
-0.283, 1.7038296e-7, 2.1113175e-7
-0.284, 1.9820295e-7, 1.9566338e-7
-0.285, 1.5631632e-7, 1.9714754e-7
-0.286, 2.0146813e-7, 2.1340749e-7
-0.287, 1.6809075e-7, 1.9556443e-7
-0.288, 1.7585792e-7, 1.6912966e-7
-0.289, 1.8065674e-7, 1.6630973e-7
-0.290, 1.5029717e-7, 1.6172530e-7
-0.291, 1.8501032e-7, 1.8115148e-7
-0.292, 1.6279721e-7, 1.8390544e-7
-0.293, 1.8656046e-7, 2.1132963e-7
-0.294, 1.6731569e-7, 2.2138902e-7
-0.295, 1.7293905e-7, 1.7671545e-7
-0.296, 1.8007955e-7, 2.1030721e-7
-0.297, 1.5171540e-7, 1.9821944e-7
-0.298, 1.8223987e-7, 2.3852297e-7
-0.299, 1.5976289e-7, 2.0864164e-7
-0.300, 1.6701885e-7, 2.4246427e-7
-0.301, 1.7107560e-7, 2.4915954e-7
-0.302, 1.5382621e-7, 2.0864164e-7
-0.303, 1.8223986e-7, 1.9224979e-7
-0.304, 1.4187037e-7, 1.8740148e-7
-0.305, 1.7740805e-7, 1.9074912e-7
-0.306, 1.7016859e-7, 2.0829532e-7
-0.307, 1.6464418e-7, 1.7552810e-7
-0.308, 1.7961781e-7, 1.9917591e-7
-0.309, 1.3858870e-7, 1.4563028e-7
-0.310, 1.7232888e-7, 1.7031701e-7
-0.311, 1.4816987e-7, 1.3809397e-7
-0.312, 1.6408347e-7, 1.6870091e-7
-0.313, 1.6454521e-7, 2.2003677e-7
-0.314, 1.4508609e-7, 1.8748395e-7
-0.315, 1.6741463e-7, 2.0702552e-7
-0.316, 1.3021138e-7, 1.6908021e-7
-0.317, 1.5938359e-7, 2.1660669e-7
-0.318, 1.4739479e-7, 2.0695957e-7
-0.319, 1.4863161e-7, 2.0216075e-7
-0.320, 1.7269170e-7, 2.3872087e-7
-0.321, 1.4224966e-7, 2.2132305e-7
-0.322, 1.6345685e-7, 2.1311064e-7
-0.323, 1.3908343e-7, 1.6040605e-7
-0.324, 1.6273125e-7, 1.8525768e-7
-0.325, 1.7067981e-7, 1.9736193e-7
-0.326, 1.3942973e-7, 1.8052482e-7
-0.327, 1.7847995e-7, 1.7915607e-7
-0.328, 1.2589079e-7, 1.6210458e-7
-0.329, 1.5620088e-7, 1.8055779e-7
-0.330, 1.4785654e-7, 1.4093041e-7
-0.331, 1.5016525e-7, 1.3073907e-7
-0.332, 1.6462768e-7, 1.8100306e-7
-0.333, 1.2734199e-7, 1.8825901e-7
-0.334, 1.5981237e-7, 2.0146813e-7
-0.335, 1.3085450e-7, 1.7346674e-7
-0.336, 1.4330507e-7, 1.8433418e-7
-0.337, 1.5326552e-7, 1.9102946e-7
-0.338, 1.4281035e-7, 1.8428472e-7
-0.339, 1.6650763e-7, 2.1950906e-7
-0.340, 1.1929447e-7, 2.1058754e-7
-0.341, 1.6761253e-7, 2.2998073e-7
-0.342, 1.2862826e-7, 1.9102946e-7
-0.343, 1.4447593e-7, 1.5077541e-7
-0.344, 1.5105576e-7, 1.9055122e-7
-0.345, 1.2394489e-7, 1.7691333e-7
-0.346, 1.5986184e-7, 1.8895162e-7
-0.347, 1.3103592e-7, 1.5641525e-7
-0.348, 1.5141855e-7, 1.9233224e-7
-0.349, 1.4525099e-7, 1.5214414e-7
-0.350, 1.4770811e-7, 1.3763224e-7
-0.351, 1.5849311e-7, 1.5300165e-7
-0.352, 1.3059068e-7, 1.6866792e-7
-0.353, 1.5997728e-7, 1.8502681e-7
-0.354, 1.3624701e-7, 1.8121742e-7
-0.355, 1.3449899e-7, 1.7442321e-7
-0.356, 1.5801486e-7, 2.0188040e-7
-0.357, 1.1944287e-7, 1.7834803e-7
-0.358, 1.6393507e-7, 1.9236521e-7
-0.359, 1.2966719e-7, 1.8449910e-7
-0.360, 1.6004324e-7, 2.1142858e-7
-0.361, 1.5468373e-7, 2.0842725e-7
-0.362, 1.4244756e-7, 1.7607231e-7
-0.363, 1.5806435e-7, 1.6842057e-7
-0.364, 1.2968367e-7, 1.6500698e-7
-0.365, 1.6401752e-7, 1.8839091e-7
-0.366, 1.3383935e-7, 1.7366463e-7
-0.367, 1.4973648e-7, 1.8176162e-7
-0.368, 1.5669561e-7, 1.8349317e-7
-0.369, 1.3017839e-7, 1.1955831e-7
-0.370, 1.6243440e-7, 1.3647789e-7
-0.371, 1.2735845e-7, 1.3718697e-7
-0.372, 1.5958149e-7, 1.9592724e-7
-0.373, 1.4675165e-7, 1.8750043e-7
-0.374, 1.3741786e-7, 1.7648456e-7
-0.375, 1.5961447e-7, 1.9579529e-7
-0.376, 1.2811704e-7, 1.9253011e-7
-0.377, 1.6908020e-7, 1.8111849e-7
-0.378, 1.4025429e-7, 1.8113496e-7
-0.379, 1.5902080e-7, 2.2069641e-7
-0.380, 1.6167583e-7, 2.3418589e-7
-0.381, 1.3253658e-7, 1.7783682e-7
-0.382, 1.6789285e-7, 1.8214092e-7
-0.383, 1.3428460e-7, 1.5874046e-7
-0.384, 1.5966394e-7, 1.9437709e-7
-0.385, 1.5295221e-7, 1.7321939e-7
-0.386, 1.5026419e-7, 1.5443635e-7
-0.387, 1.6515537e-7, 1.7915607e-7
-0.388, 1.2834791e-7, 1.6522135e-7
-0.389, 1.6236844e-7, 1.4404716e-7
-0.390, 1.3505966e-7, 1.2810054e-7
-0.391, 1.5044560e-7, 1.4803794e-7
-0.392, 1.6680447e-7, 1.8133287e-7
-0.393, 1.4236510e-7, 1.8255318e-7
-0.394, 1.6634273e-7, 1.8837443e-7
-0.395, 1.2701216e-7, 1.6703534e-7
-0.396, 1.6268177e-7, 2.0451894e-7
-0.397, 1.3992445e-7, 1.7504986e-7
-0.398, 1.5578860e-7, 1.8425173e-7
-0.399, 1.5882291e-7, 2.3453218e-7
-0.400, 1.3423514e-7, 2.2132306e-7
-0.401, 1.7244432e-7, 2.2633627e-7
-0.402, 1.3174503e-7, 1.4901089e-7
-0.403, 1.6909669e-7, 1.7646809e-7
-0.404, 1.6070287e-7, 2.0336458e-7
-0.405, 1.5110521e-7, 1.5786645e-7
-0.406, 1.7503338e-7, 1.6879986e-7
-0.407, 1.3730242e-7, 1.6010921e-7
-0.408, 1.6847004e-7, 1.7907362e-7
-0.409, 1.4299175e-7, 1.2727601e-7
-0.410, 1.5625035e-7, 1.3504319e-7
-0.411, 1.6048850e-7, 1.7584142e-7
-0.412, 1.4201879e-7, 1.9183751e-7
-0.413, 1.7034998e-7, 2.0122077e-7
-0.414, 1.3848975e-7, 1.6789286e-7
-0.415, 1.5885590e-7, 2.0852619e-7
-0.416, 1.5958150e-7, 1.9503672e-7
-0.417, 1.4973648e-7, 1.6583151e-7
-0.418, 1.7320291e-7, 2.0824585e-7
-0.419, 1.4145810e-7, 2.1936066e-7
-0.420, 1.7689683e-7, 2.1520498e-7
-0.421, 1.5738821e-7, 2.1192331e-7
-0.422, 1.5443636e-7, 2.0498067e-7
-0.423, 1.6825565e-7, 1.8886917e-7
-0.424, 1.5006628e-7, 1.6136252e-7
-0.425, 1.7262572e-7, 1.7483549e-7
-0.426, 1.4168899e-7, 1.6721674e-7
-0.427, 1.6950895e-7, 2.0056115e-7
-0.428, 1.6659008e-7, 1.9599318e-7
-0.429, 1.5928465e-7, 1.2778723e-7
-0.430, 1.7811716e-7, 1.5974641e-7
-0.431, 1.5413953e-7, 1.5179783e-7
-0.432, 1.7227941e-7, 1.7899117e-7
-0.433, 1.6301159e-7, 1.7706175e-7
-0.434, 1.7566002e-7, 1.9577882e-7
-0.435, 1.7729262e-7, 1.9709806e-7
-0.436, 1.4460785e-7, 1.6861846e-7
-0.437, 1.7927151e-7, 1.8329527e-7
-0.438, 1.5562371e-7, 1.9584478e-7
-0.439, 1.7330184e-7, 2.3360872e-7
-0.440, 1.7110858e-7, 2.1975644e-7
-0.441, 1.6020815e-7, 2.0318319e-7
-0.442, 1.8230583e-7, 2.1276432e-7
-0.443, 1.4620746e-7, 1.7712772e-7
-0.444, 1.8570293e-7, 1.8543906e-7
-0.445, 1.5794890e-7, 1.6002674e-7
-0.446, 1.8024446e-7, 1.9426164e-7
-0.447, 1.7721017e-7, 2.0852622e-7
-0.448, 1.5359534e-7, 1.7107557e-7
-0.449, 1.9040280e-7, 1.4129321e-7
-0.450, 1.5273781e-7, 1.4533344e-7
-0.451, 1.8385596e-7, 1.8057429e-7
-0.452, 1.6800828e-7, 1.7800171e-7
-0.453, 1.6942650e-7, 1.8938039e-7
-0.454, 1.8576888e-7, 2.0926828e-7
-0.455, 1.5301816e-7, 2.0186390e-7
-0.456, 1.8807761e-7, 2.0907039e-7
-0.457, 1.4607552e-7, 1.8664291e-7
-0.458, 1.8090410e-7, 2.0720692e-7
-0.459, 1.7153732e-7, 2.4744449e-7
-0.460, 1.6997070e-7, 2.2981584e-7
-0.461, 1.8715413e-7, 2.1606247e-7
-0.462, 1.6316000e-7, 2.0169901e-7
-0.463, 1.8492786e-7, 2.1010928e-7
-0.464, 1.6414945e-7, 1.8374053e-7
-0.465, 1.8238829e-7, 1.7791928e-7
-0.466, 1.8334474e-7, 2.0504663e-7
-0.467, 1.5875695e-7, 2.0133621e-7
-0.468, 1.8736850e-7, 1.8116796e-7
-0.469, 1.5786645e-7, 1.4203529e-7
-0.470, 1.8890215e-7, 1.5517845e-7
-0.471, 1.7594037e-7, 1.7084471e-7
-0.472, 1.7533021e-7, 1.9411323e-7
-0.473, 1.8355911e-7, 2.1644180e-7
-0.474, 1.6142847e-7, 2.0676168e-7
-0.475, 1.8913302e-7, 2.1687053e-7
-0.476, 1.6847004e-7, 1.9896154e-7
-0.477, 1.8258618e-7, 1.9714756e-7
-0.478, 1.9224977e-7, 2.5476641e-7
-0.479, 1.7251028e-7, 2.3959484e-7
-0.480, 2.0188041e-7, 2.5042931e-7
-0.481, 1.5392514e-7, 2.0250707e-7
-0.482, 1.9279398e-7, 2.1268190e-7
-0.483, 1.8656046e-7, 2.0695958e-7
-0.484, 1.8664289e-7, 1.8052482e-7
-0.485, 2.0446946e-7, 2.2016872e-7
-0.486, 1.7084473e-7, 2.0598662e-7
-0.487, 2.0115482e-7, 2.1936066e-7
-0.488, 1.8169567e-7, 1.4384926e-7
-0.489, 2.0661327e-7, 1.7791928e-7
-0.490, 1.9724649e-7, 1.9398132e-7
-0.491, 1.7406043e-7, 1.8962774e-7
-0.492, 2.0654731e-7, 2.3779737e-7
-0.493, 1.6700236e-7, 1.8865478e-7
-0.494, 1.9957169e-7, 2.4109553e-7
-0.495, 1.9548197e-7, 2.1319308e-7
-0.496, 1.9338763e-7, 2.0796548e-7
-0.497, 2.1581512e-7, 2.5090756e-7
-0.498, 1.7280711e-7, 2.4706520e-7
-0.499, 2.1164296e-7, 2.4846693e-7
-0.500, 1.8588433e-7, 2.1248400e-7
