Dec. 21, 2005   08:32:44
Cyclic Voltammetry
File: d:\ida_biofilms\12_10_18_dphzstar\a_760b\100um_pyo\a_100um_pyo_gc_final.txt
Data Source:  Experiment
Instrument Model:  CHI760E
Header: 
Note: 

Init E (V) = 0.1
High E (V) = 0.1
Low E (V) = -0.5
Init P/N = N
Scan Rate (V/s) = 0.003
Segment = 2
Sample Interval (V) = 0.001
Quiet Time (sec) = 2
Sensitivity (A/V) = 1e-7
2nd E (V) = 0.1
Sens 2 (A/V) = 1e-7

Potential/V, i1/A, i2/A, Time/s

0.100, -5.6351269e-8, -5.0420947e-9, 3.3333334e-1
0.099, -4.8611977e-8, -4.6640167e-9, 6.6666669e-1
0.098, -4.2887290e-8, -4.5422781e-9, 1.0000000e+0
0.097, -3.8280458e-8, -4.3025548e-9, 1.3333334e+0
0.096, -3.4466925e-8, -4.1137151e-9, 1.6666667e+0
0.095, -3.1003196e-8, -4.0089110e-9, 2.0000000e+0
0.094, -2.8281802e-8, -3.9128141e-9, 2.3333333e+0
0.093, -2.5909570e-8, -3.6911436e-9, 2.6666665e+0
0.092, -2.3694941e-8, -3.6361851e-9, 2.9999998e+0
0.091, -2.1936197e-8, -3.5996794e-9, 3.3333330e+0
0.090, -2.0324194e-8, -3.5356946e-9, 3.6666663e+0
0.089, -1.8666578e-8, -3.4953547e-9, 3.9999995e+0
0.088, -1.7439282e-8, -3.4838517e-9, 4.3333330e+0
0.087, -1.6218856e-8, -3.4189880e-9, 4.6666665e+0
0.086, -1.5077593e-8, -3.3241689e-9, 5.0000000e+0
0.085, -1.4020125e-8, -3.3126659e-9, 5.3333335e+0
0.084, -1.3046612e-8, -3.2128946e-9, 5.6666670e+0
0.083, -1.2187090e-8, -3.2099390e-9, 6.0000005e+0
0.082, -1.1217571e-8, -3.1730336e-9, 6.3333340e+0
0.081, -1.0578921e-8, -3.1304568e-9, 6.6666675e+0
0.080, -9.8847535e-9, -3.1249452e-9, 7.0000010e+0
0.079, -8.9248200e-9, -3.1019394e-9, 7.3333344e+0
0.078, -8.6149612e-9, -3.1000222e-9, 7.6666679e+0
0.077, -8.0272740e-9, -3.0778153e-9, 8.0000010e+0
0.076, -7.2523467e-9, -3.0792531e-9, 8.3333340e+0
0.075, -6.7795298e-9, -3.0723832e-9, 8.6666670e+0
0.074, -6.2930532e-9, -3.0498568e-9, 9.0000000e+0
0.073, -5.7486624e-9, -3.0496969e-9, 9.3333330e+0
0.072, -5.3234546e-9, -3.0455434e-9, 9.6666660e+0
0.071, -4.8737232e-9, -3.0276499e-9, 9.9999990e+0
0.070, -4.4905328e-9, -3.0308451e-9, 1.0333332e+1
0.069, -4.1614219e-9, -3.0143896e-9, 1.0666665e+1
0.068, -3.7060992e-9, -3.0127121e-9, 1.0999998e+1
0.067, -3.3269025e-9, -3.0028069e-9, 1.1333331e+1
0.066, -2.8354732e-9, -2.9997713e-9, 1.1666664e+1
0.065, -2.6441578e-9, -2.9956175e-9, 1.1999997e+1
0.064, -2.2524203e-9, -2.9695764e-9, 1.2333330e+1
0.063, -1.8916766e-9, -2.9547182e-9, 1.2666663e+1
0.062, -1.7173756e-9, -2.8802689e-9, 1.2999996e+1
0.061, -1.5159152e-9, -2.9849931e-9, 1.3333329e+1
0.060, -1.2316976e-9, -2.9943394e-9, 1.3666662e+1
0.059, -8.2182711e-10, -2.9483278e-9, 1.3999995e+1
0.058, -7.3715295e-10, -2.9496858e-9, 1.4333328e+1
0.057, -3.2512551e-10, -2.9094256e-9, 1.4666661e+1
0.056, -1.7686594e-10, -2.9409788e-9, 1.4999994e+1
0.055, 1.3746675e-10, -2.9141385e-9, 1.5333327e+1
0.054, 2.2110241e-10, -2.9290763e-9, 1.5666660e+1
0.053, 5.5308885e-10, -2.8785914e-9, 1.5999993e+1
0.052, 7.0350520e-10, -2.8794702e-9, 1.6333326e+1
0.051, 8.3578855e-10, -2.8861802e-9, 1.6666660e+1
0.050, 1.1462870e-9, -2.8792306e-9, 1.6999994e+1
0.049, 1.2388692e-9, -2.8476774e-9, 1.7333328e+1
0.048, 1.3991909e-9, -2.8861802e-9, 1.7666662e+1
0.047, 1.6667930e-9, -2.8545473e-9, 1.7999996e+1
0.046, 1.7511476e-9, -2.8327396e-9, 1.8333330e+1
0.045, 1.9526081e-9, -2.8007072e-9, 1.8666664e+1
0.044, 2.1702047e-9, -2.8139675e-9, 1.8999998e+1
0.043, 2.2022371e-9, -2.7891245e-9, 1.9333332e+1
0.042, 2.4304576e-9, -2.7892844e-9, 1.9666666e+1
0.041, 2.6245692e-9, -2.8316214e-9, 2.0000000e+1
0.040, 2.6602760e-9, -2.7747458e-9, 2.0333334e+1
0.039, 2.7957545e-9, -2.7817755e-9, 2.0666668e+1
0.038, 2.9583129e-9, -2.7644411e-9, 2.1000002e+1
0.037, 3.0794129e-9, -2.7726690e-9, 2.1333336e+1
0.036, 3.1362883e-9, -2.7514204e-9, 2.1666670e+1
0.035, 3.2493204e-9, -2.7628435e-9, 2.2000004e+1
0.034, 3.5289045e-9, -2.7558140e-9, 2.2333338e+1
0.033, 3.6090255e-9, -2.7556544e-9, 2.2666672e+1
0.032, 3.6202088e-9, -2.7457490e-9, 2.3000006e+1
0.031, 3.8052139e-9, -2.7599678e-9, 2.3333340e+1
0.030, 3.8473913e-9, -2.7268972e-9, 2.3666674e+1
0.029, 3.9867039e-9, -2.7362430e-9, 2.4000008e+1
0.028, 4.1132355e-9, -2.7292935e-9, 2.4333342e+1
0.027, 4.1160315e-9, -2.7208260e-9, 2.4666676e+1
0.026, 4.2697232e-9, -2.7185894e-9, 2.5000010e+1
0.025, 4.5013788e-9, -2.7055687e-9, 2.5333344e+1
0.024, 4.5007398e-9, -2.7070866e-9, 2.5666677e+1
0.023, 4.5633666e-9, -2.7026130e-9, 2.6000011e+1
0.022, 4.6144906e-9, -2.6952640e-9, 2.6333345e+1
0.021, 4.6414903e-9, -2.6855984e-9, 2.6666679e+1
0.020, 4.7826405e-9, -2.7072462e-9, 2.7000013e+1
0.019, 4.8201052e-9, -2.6787288e-9, 2.7333347e+1
0.018, 5.0494440e-9, -2.6922287e-9, 2.7666681e+1
0.017, 5.0911422e-9, -2.7055687e-9, 2.8000015e+1
0.016, 5.0826747e-9, -2.6858380e-9, 2.8333349e+1
0.015, 5.1925912e-9, -2.6891931e-9, 2.8666683e+1
0.014, 5.2117626e-9, -2.6800866e-9, 2.9000017e+1
0.013, 5.3763980e-9, -2.6715392e-9, 2.9333351e+1
0.012, 5.4928648e-9, -2.6828824e-9, 2.9666685e+1
0.011, 5.5185065e-9, -2.6694624e-9, 3.0000019e+1
0.010, 5.5622014e-9, -2.6736959e-9, 3.0333353e+1
0.009, 5.6581388e-9, -2.6666667e-9, 3.0666687e+1
0.008, 5.5978289e-9, -2.6598768e-9, 3.1000021e+1
0.007, 5.6420029e-9, -2.6487730e-9, 3.1333355e+1
0.006, 5.8361946e-9, -2.6757732e-9, 3.1666689e+1
0.005, 6.0121725e-9, -2.6629121e-9, 3.2000023e+1
0.004, 5.9481877e-9, -2.6581193e-9, 3.2333355e+1
0.003, 6.0310246e-9, -2.6491727e-9, 3.2666687e+1
0.002, 6.0859033e-9, -2.6530069e-9, 3.3000019e+1
0.001, 6.0552288e-9, -2.6478146e-9, 3.3333351e+1
-0.000, 6.0906160e-9, -2.6605158e-9, 3.3666683e+1
-0.001, 6.4456880e-9, -2.6488529e-9, 3.4000015e+1
-0.002, 6.2754610e-9, -2.6540452e-9, 3.4333347e+1
-0.003, 6.4152532e-9, -2.6517286e-9, 3.4666679e+1
-0.004, 6.5175012e-9, -2.6462970e-9, 3.5000011e+1
-0.005, 6.5490546e-9, -2.6483737e-9, 3.5333344e+1
-0.006, 6.5794095e-9, -2.6506104e-9, 3.5666676e+1
-0.007, 6.6139982e-9, -2.6527671e-9, 3.6000008e+1
-0.008, 6.6412373e-9, -2.6403058e-9, 3.6333340e+1
-0.009, 6.6436336e-9, -2.6487730e-9, 3.6666672e+1
-0.010, 6.7044237e-9, -2.6431015e-9, 3.7000004e+1
-0.011, 6.8152985e-9, -2.6489329e-9, 3.7333336e+1
-0.012, 6.9116353e-9, -2.6300009e-9, 3.7666668e+1
-0.013, 6.8530026e-9, -2.6339950e-9, 3.8000000e+1
-0.014, 6.9794543e-9, -2.6386282e-9, 3.8333332e+1
-0.015, 7.0106880e-9, -2.6374298e-9, 3.8666664e+1
-0.016, 6.9919164e-9, -2.6414240e-9, 3.8999996e+1
-0.017, 7.0820221e-9, -2.6382287e-9, 3.9333328e+1
-0.018, 7.0698003e-9, -2.6295217e-9, 3.9666660e+1
-0.019, 7.1299509e-9, -2.6423828e-9, 3.9999992e+1
-0.020, 7.3057698e-9, -2.6321578e-9, 4.0333324e+1
-0.021, 7.2308408e-9, -2.6341549e-9, 4.0666656e+1
-0.022, 7.3391604e-9, -2.6419831e-9, 4.0999989e+1
-0.023, 7.4482776e-9, -2.6311195e-9, 4.1333321e+1
-0.024, 7.4287065e-9, -2.6309597e-9, 4.1666653e+1
-0.025, 7.4865412e-9, -2.6325573e-9, 4.1999985e+1
-0.026, 7.5146582e-9, -2.6327172e-9, 4.2333317e+1
-0.027, 7.5359079e-9, -2.6219331e-9, 4.2666649e+1
-0.028, 7.5359878e-9, -2.6263265e-9, 4.2999981e+1
-0.029, 7.5441351e-9, -2.6277642e-9, 4.3333313e+1
-0.030, 7.5867916e-9, -2.6298412e-9, 4.3666645e+1
-0.031, 7.5748092e-9, -2.6363116e-9, 4.3999977e+1
-0.032, 7.6232176e-9, -2.6287230e-9, 4.4333309e+1
-0.033, 7.8182874e-9, -2.6240099e-9, 4.4666641e+1
-0.034, 7.7594144e-9, -2.6234508e-9, 4.4999973e+1
-0.035, 7.7836191e-9, -2.6192970e-9, 4.5333305e+1
-0.036, 7.9115088e-9, -2.6203355e-9, 4.5666637e+1
-0.037, 7.8416136e-9, -2.6165810e-9, 4.5999969e+1
-0.038, 7.9240499e-9, -2.6175395e-9, 4.6333302e+1
-0.039, 7.9458582e-9, -2.6097910e-9, 4.6666634e+1
-0.040, 8.0010558e-9, -2.6262466e-9, 4.6999966e+1
-0.041, 7.9960234e-9, -2.6105900e-9, 4.7333298e+1
-0.042, 8.0073663e-9, -2.6164211e-9, 4.7666630e+1
-0.043, 8.0223845e-9, -2.6133857e-9, 4.7999962e+1
-0.044, 8.0358840e-9, -2.6030011e-9, 4.8333294e+1
-0.045, 8.0124787e-9, -2.6190574e-9, 4.8666626e+1
-0.046, 8.1095344e-9, -2.6186577e-9, 4.8999958e+1
-0.047, 8.0743066e-9, -2.6120277e-9, 4.9333290e+1
-0.048, 8.0880467e-9, -2.6015634e-9, 4.9666622e+1
-0.049, 8.1373335e-9, -2.6195366e-9, 4.9999954e+1
-0.050, 8.1100140e-9, -2.6107496e-9, 5.0333286e+1
-0.051, 8.1303835e-9, -2.5985278e-9, 5.0666618e+1
-0.052, 8.3496579e-9, -2.6105900e-9, 5.0999950e+1
-0.053, 8.2357463e-9, -2.6067555e-9, 5.1333282e+1
-0.054, 8.1950073e-9, -2.6152231e-9, 5.1666615e+1
-0.055, 8.3609208e-9, -2.6093918e-9, 5.1999947e+1
-0.056, 8.3221785e-9, -2.5990070e-9, 5.2333279e+1
-0.057, 8.4066931e-9, -2.6022025e-9, 5.2666611e+1
-0.058, 8.4157188e-9, -2.6069154e-9, 5.2999943e+1
-0.059, 8.4321750e-9, -2.5863858e-9, 5.3333275e+1
-0.060, 8.3880805e-9, -2.5928564e-9, 5.3666607e+1
-0.061, 8.3996632e-9, -2.6108296e-9, 5.3999939e+1
-0.062, 8.4654053e-9, -2.5900604e-9, 5.4333271e+1
-0.063, 8.4406420e-9, -2.6027616e-9, 5.4666603e+1
-0.064, 8.4607725e-9, -2.6099509e-9, 5.4999935e+1
-0.065, 8.5111775e-9, -2.5930160e-9, 5.5333267e+1
-0.066, 8.4749114e-9, -2.5998059e-9, 5.5666599e+1
-0.067, 8.4929646e-9, -2.6012437e-9, 5.5999931e+1
-0.068, 8.5304288e-9, -2.6054776e-9, 5.6333263e+1
-0.069, 8.5037488e-9, -2.5957321e-9, 5.6666595e+1
-0.070, 8.5326661e-9, -2.5914981e-9, 5.6999928e+1
-0.071, 8.5202041e-9, -2.5910190e-9, 5.7333260e+1
-0.072, 8.5074232e-9, -2.6065958e-9, 5.7666592e+1
-0.073, 8.5326661e-9, -2.5922171e-9, 5.7999924e+1
-0.074, 8.5331449e-9, -2.5972497e-9, 5.8333256e+1
-0.075, 8.5469640e-9, -2.6137852e-9, 5.8666588e+1
-0.076, 8.5731653e-9, -2.6053177e-9, 5.8999920e+1
-0.077, 8.5627008e-9, -2.5915781e-9, 5.9333252e+1
-0.078, 8.5845882e-9, -2.6008444e-9, 5.9666584e+1
-0.079, 8.5809937e-9, -2.6101108e-9, 5.9999916e+1
-0.080, 8.5536742e-9, -2.5871048e-9, 6.0333248e+1
-0.081, 8.6751735e-9, -2.5870248e-9, 6.0666580e+1
-0.082, 8.6205345e-9, -2.6108296e-9, 6.0999912e+1
-0.083, 8.6067953e-9, -2.5982880e-9, 6.1333244e+1
-0.084, 8.7366816e-9, -2.5973297e-9, 6.1666576e+1
-0.085, 8.6422620e-9, -2.5954123e-9, 6.1999908e+1
-0.086, 8.5786764e-9, -2.5945337e-9, 6.2333241e+1
-0.087, 8.7680760e-9, -2.6014035e-9, 6.2666573e+1
-0.088, 8.7020933e-9, -2.5783180e-9, 6.2999905e+1
-0.089, 8.6984988e-9, -2.5888622e-9, 6.3333237e+1
-0.090, 8.6202947e-9, -2.6003653e-9, 6.3666569e+1
-0.091, 8.7785406e-9, -2.5887024e-9, 6.3999901e+1
-0.092, 8.7096019e-9, -2.5879037e-9, 6.4333237e+1
-0.093, 8.6940251e-9, -2.5785576e-9, 6.4666573e+1
-0.094, 8.8024246e-9, -2.5919777e-9, 6.4999908e+1
-0.095, 8.7670369e-9, -2.5878237e-9, 6.5333244e+1
-0.096, 8.7911616e-9, -2.5853475e-9, 6.5666580e+1
-0.097, 8.8942080e-9, -2.5959717e-9, 6.5999916e+1
-0.098, 8.8301428e-9, -2.6069953e-9, 6.6333252e+1
-0.099, 8.8366932e-9, -2.5848681e-9, 6.6666588e+1
-0.100, 8.9351868e-9, -2.5939746e-9, 6.6999924e+1
-0.101, 8.8298240e-9, -2.6042792e-9, 6.7333260e+1
-0.102, 8.9486871e-9, -2.5878237e-9, 6.7666595e+1
-0.103, 8.9298355e-9, -2.5892615e-9, 6.7999931e+1
-0.104, 8.8894154e-9, -2.5897409e-9, 6.8333267e+1
-0.105, 8.8981222e-9, -2.5831906e-9, 6.8666603e+1
-0.106, 8.9197698e-9, -2.5896612e-9, 6.8999939e+1
-0.107, 8.8993204e-9, -2.6073146e-9, 6.9333275e+1
-0.108, 8.9621066e-9, -2.5946136e-9, 6.9666611e+1
-0.109, 8.9389411e-9, -2.5811937e-9, 6.9999947e+1
-0.110, 8.9522016e-9, -2.5972497e-9, 7.0333282e+1
-0.111, 8.9474090e-9, -2.5824716e-9, 7.0666618e+1
-0.112, 8.9496455e-9, -2.5915781e-9, 7.0999954e+1
-0.113, 8.9834353e-9, -2.5930960e-9, 7.1333290e+1
-0.114, 8.9990921e-9, -2.5735249e-9, 7.1666626e+1
-0.115, 8.9824770e-9, -2.5882232e-9, 7.1999962e+1
-0.116, 9.0142702e-9, -2.5839095e-9, 7.2333298e+1
-0.117, 8.9639443e-9, -2.6033209e-9, 7.2666634e+1
-0.118, 9.0002903e-9, -2.5789570e-9, 7.2999969e+1
-0.119, 9.0154675e-9, -2.5879037e-9, 7.3333305e+1
-0.120, 9.0020480e-9, -2.5879836e-9, 7.3666641e+1
-0.121, 8.9967749e-9, -2.5788771e-9, 7.3999977e+1
-0.122, 9.0116332e-9, -2.5830309e-9, 7.4333313e+1
-0.123, 9.0283283e-9, -2.5883031e-9, 7.4666649e+1
-0.124, 9.0255332e-9, -2.5986078e-9, 7.4999985e+1
-0.125, 9.0182635e-9, -2.6039597e-9, 7.5333321e+1
-0.126, 9.0632364e-9, -2.5914981e-9, 7.5666656e+1
-0.127, 9.0947099e-9, -2.6117084e-9, 7.5999992e+1
-0.128, 9.0163459e-9, -2.5859865e-9, 7.6333328e+1
-0.129, 9.1391232e-9, -2.6004450e-9, 7.6666664e+1
-0.130, 9.0750589e-9, -2.5973297e-9, 7.7000000e+1
-0.131, 9.0864827e-9, -2.6027616e-9, 7.7333336e+1
-0.132, 9.2420906e-9, -2.5989273e-9, 7.7666672e+1
-0.133, 9.1441565e-9, -2.6013236e-9, 7.8000008e+1
-0.134, 9.2270733e-9, -2.6134657e-9, 7.8333344e+1
-0.135, 9.2627008e-9, -2.5965310e-9, 7.8666679e+1
-0.136, 9.1659640e-9, -2.5995663e-9, 7.9000015e+1
-0.137, 9.2264338e-9, -2.6036402e-9, 7.9333351e+1
-0.138, 9.2653369e-9, -2.5963711e-9, 7.9666687e+1
-0.139, 9.2706083e-9, -2.6015634e-9, 8.0000023e+1
-0.140, 9.3226911e-9, -2.6059568e-9, 8.0333359e+1
-0.141, 9.2381773e-9, -2.6071552e-9, 8.0666695e+1
-0.142, 9.3581578e-9, -2.6041995e-9, 8.1000031e+1
-0.143, 9.3565609e-9, -2.6069953e-9, 8.1333366e+1
-0.144, 9.3392263e-9, -2.6094715e-9, 8.1666702e+1
-0.145, 9.4334860e-9, -2.6148235e-9, 8.2000038e+1
-0.146, 9.4314094e-9, -2.6157023e-9, 8.2333374e+1
-0.147, 9.4437906e-9, -2.6113887e-9, 8.2666710e+1
-0.148, 9.4670360e-9, -2.6130662e-9, 8.3000046e+1
-0.149, 9.4675956e-9, -2.6165810e-9, 8.3333382e+1
-0.150, 9.4692734e-9, -2.6125071e-9, 8.3666718e+1
-0.151, 9.4811750e-9, -2.6129863e-9, 8.4000053e+1
-0.152, 9.4767820e-9, -2.6109894e-9, 8.4333389e+1
-0.153, 9.4790984e-9, -2.6232110e-9, 8.4666725e+1
-0.154, 9.4998676e-9, -2.6157823e-9, 8.5000061e+1
-0.155, 9.5165626e-9, -2.6154627e-9, 8.5333397e+1
-0.156, 9.5241512e-9, -2.6183384e-9, 8.5666733e+1
-0.157, 9.4961132e-9, -2.6002054e-9, 8.6000069e+1
-0.158, 9.5304618e-9, -2.6068354e-9, 8.6333405e+1
-0.159, 9.5957251e-9, -2.6125868e-9, 8.6666740e+1
-0.160, 9.5430028e-9, -2.6000455e-9, 8.7000076e+1
-0.161, 9.6286357e-9, -2.6132261e-9, 8.7333412e+1
-0.162, 9.6406980e-9, -2.6165810e-9, 8.7666748e+1
-0.163, 9.6364641e-9, -2.6133058e-9, 8.8000084e+1
-0.164, 9.7435047e-9, -2.6246489e-9, 8.8333420e+1
-0.165, 9.6819965e-9, -2.6143443e-9, 8.8666756e+1
-0.166, 9.7562065e-9, -2.6161817e-9, 8.9000092e+1
-0.167, 9.8184341e-9, -2.6002853e-9, 8.9333427e+1
-0.168, 9.7506945e-9, -2.6056373e-9, 8.9666763e+1
-0.169, 9.7964667e-9, -2.6065159e-9, 9.0000099e+1
-0.170, 9.8793027e-9, -2.6036402e-9, 9.0333435e+1
-0.171, 9.8768274e-9, -2.6019626e-9, 9.0666771e+1
-0.172, 9.9558299e-9, -2.6198561e-9, 9.1000107e+1
-0.173, 9.9377768e-9, -2.6089924e-9, 9.1333443e+1
-0.174, 9.9677315e-9, -2.6031610e-9, 9.1666779e+1
-0.175, 9.9730038e-9, -2.6018030e-9, 9.2000114e+1
-0.176, 9.9641380e-9, -2.6040397e-9, 9.2333450e+1
-0.177, 1.0219518e-8, -2.5740843e-9, 9.2666786e+1
-0.178, 9.8603721e-9, -2.6299212e-9, 9.3000122e+1
-0.179, 1.0026045e-8, -2.6114686e-9, 9.3333458e+1
-0.180, 1.0121584e-8, -2.6259273e-9, 9.3666794e+1
-0.181, 1.0095542e-8, -2.6144242e-9, 9.4000130e+1
-0.182, 1.0193796e-8, -2.5906197e-9, 9.4333466e+1
-0.183, 1.0041462e-8, -2.6315987e-9, 9.4666801e+1
-0.184, 1.0154334e-8, -2.5978089e-9, 9.5000137e+1
-0.185, 1.0330632e-8, -2.6069953e-9, 9.5333473e+1
-0.186, 1.0288056e-8, -2.6120277e-9, 9.5666809e+1
-0.187, 1.0248514e-8, -2.6029212e-9, 9.6000145e+1
-0.188, 1.0370573e-8, -2.5879037e-9, 9.6333481e+1
-0.189, 1.0260896e-8, -2.6420630e-9, 9.6666817e+1
-0.190, 1.0456366e-8, -2.6276046e-9, 9.7000153e+1
-0.191, 1.0422416e-8, -2.6150633e-9, 9.7333488e+1
-0.192, 1.0399810e-8, -2.6178590e-9, 9.7666824e+1
-0.193, 1.0497025e-8, -2.6161817e-9, 9.8000160e+1
-0.194, 1.0463794e-8, -2.6172200e-9, 9.8333496e+1
-0.195, 1.0451173e-8, -2.5977289e-9, 9.8666832e+1
-0.196, 1.0552782e-8, -2.6210543e-9, 9.9000168e+1
-0.197, 1.0510365e-8, -2.6042792e-9, 9.9333504e+1
-0.198, 1.0508768e-8, -2.6187377e-9, 9.9666840e+1
-0.199, 1.0596158e-8, -2.6161817e-9, 1.0000018e+2
-0.200, 1.0572513e-8, -2.6220928e-9, 1.0033351e+2
-0.201, 1.0568280e-8, -2.6266460e-9, 1.0066685e+2
-0.202, 1.0732595e-8, -2.6377496e-9, 1.0100018e+2
-0.203, 1.0847783e-8, -2.6454181e-9, 1.0133352e+2
-0.204, 1.0488717e-8, -2.6227318e-9, 1.0166685e+2
-0.205, 1.0681551e-8, -2.6571607e-9, 1.0200019e+2
-0.206, 1.0841313e-8, -2.6308797e-9, 1.0233353e+2
-0.207, 1.0816469e-8, -2.6390277e-9, 1.0266686e+2
-0.208, 1.0784278e-8, -2.6288030e-9, 1.0300020e+2
-0.209, 1.0945957e-8, -2.6511695e-9, 1.0333353e+2
-0.210, 1.0877580e-8, -2.6415838e-9, 1.0366687e+2
-0.211, 1.0949872e-8, -2.6466163e-9, 1.0400021e+2
-0.212, 1.0959218e-8, -2.6226519e-9, 1.0433354e+2
-0.213, 1.0965369e-8, -2.6698617e-9, 1.0466688e+2
-0.214, 1.1276027e-8, -2.7052491e-9, 1.0500021e+2
-0.215, 1.0964889e-8, -2.6707405e-9, 1.0533355e+2
-0.216, 1.0985659e-8, -2.6510096e-9, 1.0566689e+2
-0.217, 1.1058031e-8, -2.6490927e-9, 1.0600022e+2
-0.218, 1.1104602e-8, -2.6283236e-9, 1.0633356e+2
-0.219, 1.1034147e-8, -2.6768914e-9, 1.0666689e+2
-0.220, 1.1143823e-8, -2.6663469e-9, 1.0700023e+2
-0.221, 1.1116344e-8, -2.7001368e-9, 1.0733356e+2
-0.222, 1.1316846e-8, -2.6683440e-9, 1.0766690e+2
-0.223, 1.1359183e-8, -2.6637907e-9, 1.0800024e+2
-0.224, 1.1268438e-8, -2.6907907e-9, 1.0833357e+2
-0.225, 1.1430517e-8, -2.6673057e-9, 1.0866691e+2
-0.226, 1.1390497e-8, -2.7028528e-9, 1.0900024e+2
-0.227, 1.1445215e-8, -2.7238616e-9, 1.0933358e+2
-0.228, 1.1482120e-8, -2.7053291e-9, 1.0966692e+2
-0.229, 1.1469179e-8, -2.7856097e-9, 1.1000025e+2
-0.230, 1.1549780e-8, -2.7558140e-9, 1.1033359e+2
-0.231, 1.1572067e-8, -2.7841720e-9, 1.1066692e+2
-0.232, 1.1571827e-8, -2.7621245e-9, 1.1100026e+2
-0.233, 1.1683182e-8, -2.8157250e-9, 1.1133360e+2
-0.234, 1.1693646e-8, -2.7985505e-9, 1.1166693e+2
-0.235, 1.1832480e-8, -2.8567040e-9, 1.1200027e+2
-0.236, 1.1895746e-8, -2.8642926e-9, 1.1233360e+2
-0.237, 1.1911402e-8, -2.9141385e-9, 1.1266694e+2
-0.238, 1.1931612e-8, -2.8774731e-9, 1.1300027e+2
-0.239, 1.1983535e-8, -2.8589406e-9, 1.1333361e+2
-0.240, 1.1917473e-8, -2.9587124e-9, 1.1366695e+2
-0.241, 1.2145854e-8, -2.9434550e-9, 1.1400028e+2
-0.242, 1.1983775e-8, -2.9680585e-9, 1.1433362e+2
-0.243, 1.2056706e-8, -2.9956975e-9, 1.1466695e+2
-0.244, 1.2261921e-8, -2.9963363e-9, 1.1500029e+2
-0.245, 1.2273824e-8, -3.0088778e-9, 1.1533363e+2
-0.246, 1.2376710e-8, -3.0148688e-9, 1.1566696e+2
-0.247, 1.2408184e-8, -3.0345195e-9, 1.1600030e+2
-0.248, 1.2423121e-8, -3.0483391e-9, 1.1633363e+2
-0.249, 1.2458109e-8, -3.0608007e-9, 1.1666697e+2
-0.250, 1.2518260e-8, -3.0879601e-9, 1.1700031e+2
-0.251, 1.2602775e-8, -3.0800520e-9, 1.1733364e+2
-0.252, 1.2569145e-8, -3.0988241e-9, 1.1766698e+2
-0.253, 1.2808070e-8, -3.1254244e-9, 1.1800031e+2
-0.254, 1.2708697e-8, -3.1313356e-9, 1.1833365e+2
-0.255, 1.2824684e-8, -3.1406817e-9, 1.1866698e+2
-0.256, 1.2832593e-8, -3.1987555e-9, 1.1900032e+2
-0.257, 1.2902250e-8, -3.1639271e-9, 1.1933366e+2
-0.258, 1.2916468e-8, -3.1866934e-9, 1.1966699e+2
-0.259, 1.3013204e-8, -3.1708769e-9, 1.2000033e+2
-0.260, 1.2905604e-8, -3.3322372e-9, 1.2033366e+2
-0.261, 1.2962720e-8, -3.2999650e-9, 1.2066700e+2
-0.262, 1.3003699e-8, -3.3109089e-9, 1.2100034e+2
-0.263, 1.3178319e-8, -3.3576393e-9, 1.2133367e+2
-0.264, 1.3139736e-8, -3.3931864e-9, 1.2166701e+2
-0.265, 1.3242942e-8, -3.4362424e-9, 1.2200034e+2
-0.266, 1.3274975e-8, -3.4576506e-9, 1.2233368e+2
-0.267, 1.3330732e-8, -3.4627627e-9, 1.2266702e+2
-0.268, 1.3343513e-8, -3.4718692e-9, 1.2300035e+2
-0.269, 1.3412531e-8, -3.4750649e-9, 1.2333369e+2
-0.270, 1.3413570e-8, -3.5112508e-9, 1.2366702e+2
-0.271, 1.3485062e-8, -3.5021444e-9, 1.2400036e+2
-0.272, 1.3360768e-8, -3.5293841e-9, 1.2433369e+2
-0.273, 1.3516536e-8, -3.5198782e-9, 1.2466703e+2
-0.274, 1.3432661e-8, -3.5404075e-9, 1.2500037e+2
-0.275, 1.3486821e-8, -3.5381709e-9, 1.2533370e+2
-0.276, 1.3646662e-8, -3.5625347e-9, 1.2566704e+2
-0.277, 1.3640112e-8, -3.5762742e-9, 1.2600037e+2
-0.278, 1.3547850e-8, -3.5489549e-9, 1.2633371e+2
-0.279, 1.3771437e-8, -3.5706826e-9, 1.2666705e+2
-0.280, 1.3790610e-8, -3.5759546e-9, 1.2700038e+2
-0.281, 1.3744277e-8, -3.5994396e-9, 1.2733372e+2
-0.282, 1.3845566e-8, -3.5890553e-9, 1.2766705e+2
-0.283, 1.3686283e-8, -3.6329098e-9, 1.2800038e+2
-0.284, 1.3891977e-8, -3.6518417e-9, 1.2833371e+2
-0.285, 1.3878398e-8, -3.6215666e-9, 1.2866704e+2
-0.286, 1.3884309e-8, -3.6770047e-9, 1.2900037e+2
-0.287, 1.3931438e-8, -3.6349070e-9, 1.2933369e+2
-0.288, 1.3901404e-8, -3.6597503e-9, 1.2966702e+2
-0.289, 1.3959957e-8, -3.6404189e-9, 1.3000035e+2
-0.290, 1.3931759e-8, -3.6603891e-9, 1.3033368e+2
-0.291, 1.3967465e-8, -3.6749275e-9, 1.3066701e+2
-0.292, 1.4089923e-8, -3.6891465e-9, 1.3100034e+2
-0.293, 1.4056373e-8, -3.6986523e-9, 1.3133366e+2
-0.294, 1.4181946e-8, -3.7247734e-9, 1.3166699e+2
-0.295, 1.4224284e-8, -3.7060812e-9, 1.3200032e+2
-0.296, 1.4224683e-8, -3.7544092e-9, 1.3233365e+2
-0.297, 1.4205672e-8, -3.7358769e-9, 1.3266698e+2
-0.298, 1.4268538e-8, -3.7793324e-9, 1.3300031e+2
-0.299, 1.4272532e-8, -3.7542498e-9, 1.3333363e+2
-0.300, 1.4364955e-8, -3.7814094e-9, 1.3366696e+2
-0.301, 1.4326771e-8, -3.8191135e-9, 1.3400029e+2
-0.302, 1.4383407e-8, -3.7827670e-9, 1.3433362e+2
-0.303, 1.4373263e-8, -3.7613588e-9, 1.3466695e+2
-0.304, 1.4373980e-8, -3.8517047e-9, 1.3500027e+2
-0.305, 1.4444756e-8, -3.8807815e-9, 1.3533360e+2
-0.306, 1.4424466e-8, -3.9163290e-9, 1.3566693e+2
-0.307, 1.4446673e-8, -3.9114556e-9, 1.3600026e+2
-0.308, 1.4623609e-8, -3.9331836e-9, 1.3633359e+2
-0.309, 1.4562820e-8, -3.9245567e-9, 1.3666692e+2
-0.310, 1.4535101e-8, -3.8997934e-9, 1.3700024e+2
-0.311, 1.4715233e-8, -3.9387751e-9, 1.3733357e+2
-0.312, 1.4463128e-8, -3.9807926e-9, 1.3766690e+2
-0.313, 1.4685678e-8, -3.9694497e-9, 1.3800023e+2
-0.314, 1.4607235e-8, -3.9415711e-9, 1.3833356e+2
-0.315, 1.4686875e-8, -3.9437280e-9, 1.3866689e+2
-0.316, 1.4710841e-8, -3.9674526e-9, 1.3900021e+2
-0.317, 1.4770592e-8, -3.9822305e-9, 1.3933354e+2
-0.318, 1.4784570e-8, -3.9688106e-9, 1.3966687e+2
-0.319, 1.4809014e-8, -3.9751216e-9, 1.4000020e+2
-0.320, 1.4744790e-8, -3.9839083e-9, 1.4033353e+2
-0.321, 1.4870842e-8, -3.9924557e-9, 1.4066685e+2
-0.322, 1.4865170e-8, -3.9819112e-9, 1.4100018e+2
-0.323, 1.4858381e-8, -3.9944528e-9, 1.4133351e+2
-0.324, 1.4902156e-8, -3.9879824e-9, 1.4166684e+2
-0.325, 1.4889295e-8, -3.9914170e-9, 1.4200017e+2
-0.326, 1.4885781e-8, -3.9983670e-9, 1.4233350e+2
-0.327, 1.4920849e-8, -4.0003636e-9, 1.4266682e+2
-0.328, 1.4932830e-8, -4.0119468e-9, 1.4300015e+2
-0.329, 1.4954798e-8, -4.0288013e-9, 1.4333348e+2
-0.330, 1.4960149e-8, -4.0080326e-9, 1.4366681e+2
-0.331, 1.5108489e-8, -4.0510884e-9, 1.4400014e+2
-0.332, 1.4948407e-8, -4.0248871e-9, 1.4433347e+2
-0.333, 1.5123106e-8, -4.0194554e-9, 1.4466679e+2
-0.334, 1.5147311e-8, -4.0184966e-9, 1.4500012e+2
-0.335, 1.5110007e-8, -4.0394257e-9, 1.4533345e+2
-0.336, 1.4997854e-8, -4.0310382e-9, 1.4566678e+2
-0.337, 1.5233823e-8, -4.0525263e-9, 1.4600011e+2
-0.338, 1.5239493e-8, -4.0502099e-9, 1.4633344e+2
-0.339, 1.5241969e-8, -4.0562007e-9, 1.4666676e+2
-0.340, 1.5271846e-8, -4.0700203e-9, 1.4700009e+2
-0.341, 1.5265934e-8, -4.0541241e-9, 1.4733342e+2
-0.342, 1.5284947e-8, -4.0424610e-9, 1.4766675e+2
-0.343, 1.5320015e-8, -4.0554817e-9, 1.4800008e+2
-0.344, 1.5316900e-8, -4.0517274e-9, 1.4833340e+2
-0.345, 1.5333914e-8, -4.0695407e-9, 1.4866673e+2
-0.346, 1.5362192e-8, -4.0814432e-9, 1.4900006e+2
-0.347, 1.5349810e-8, -4.1061265e-9, 1.4933339e+2
-0.348, 1.5386876e-8, -4.0886325e-9, 1.4966672e+2
-0.349, 1.5378808e-8, -4.1159520e-9, 1.5000005e+2
-0.350, 1.5398458e-8, -4.1003747e-9, 1.5033337e+2
-0.351, 1.5378008e-8, -4.0795261e-9, 1.5066670e+2
-0.352, 1.5395901e-8, -4.1079637e-9, 1.5100003e+2
-0.353, 1.5424499e-8, -4.0938248e-9, 1.5133336e+2
-0.354, 1.5426895e-8, -4.1167505e-9, 1.5166669e+2
-0.355, 1.5429372e-8, -4.1702712e-9, 1.5200002e+2
-0.356, 1.5597763e-8, -4.1400763e-9, 1.5233334e+2
-0.357, 1.5479458e-8, -4.1313690e-9, 1.5266667e+2
-0.358, 1.5555585e-8, -4.1014134e-9, 1.5300000e+2
-0.359, 1.5554386e-8, -4.1093218e-9, 1.5333333e+2
-0.360, 1.5476102e-8, -4.1153925e-9, 1.5366666e+2
-0.361, 1.5620207e-8, -4.1484638e-9, 1.5399998e+2
-0.362, 1.5612219e-8, -4.1174695e-9, 1.5433331e+2
-0.363, 1.5717664e-8, -4.1583688e-9, 1.5466664e+2
-0.364, 1.5696655e-8, -4.1501411e-9, 1.5499997e+2
-0.365, 1.5734598e-8, -4.1484638e-9, 1.5533330e+2
-0.366, 1.5803856e-8, -4.2339368e-9, 1.5566663e+2
-0.367, 1.5830855e-8, -4.2001469e-9, 1.5599995e+2
-0.368, 1.5835248e-8, -4.2229931e-9, 1.5633328e+2
-0.369, 1.5846194e-8, -4.2474362e-9, 1.5666661e+2
-0.370, 1.5826462e-8, -4.2611759e-9, 1.5699994e+2
-0.371, 1.5977198e-8, -4.2487147e-9, 1.5733327e+2
-0.372, 1.5853702e-8, -4.3540780e-9, 1.5766660e+2
-0.373, 1.5922639e-8, -4.3234833e-9, 1.5799992e+2
-0.374, 1.5883497e-8, -4.3440926e-9, 1.5833325e+2
-0.375, 1.5918245e-8, -4.3064690e-9, 1.5866658e+2
-0.376, 1.5947162e-8, -4.3553556e-9, 1.5899991e+2
-0.377, 1.5878545e-8, -4.2170014e-9, 1.5933324e+2
-0.378, 1.5950677e-8, -4.3129389e-9, 1.5966656e+2
-0.379, 1.6013702e-8, -4.3167732e-9, 1.5999989e+2
-0.380, 1.6138319e-8, -4.3476871e-9, 1.6033322e+2
-0.381, 1.6044538e-8, -4.3484061e-9, 1.6066655e+2
-0.382, 1.6195353e-8, -4.3594297e-9, 1.6099988e+2
-0.383, 1.6184490e-8, -4.4021662e-9, 1.6133321e+2
-0.384, 1.6176182e-8, -4.3472084e-9, 1.6166653e+2
-0.385, 1.6302154e-8, -4.3988915e-9, 1.6199986e+2
-0.386, 1.6218998e-8, -4.3679771e-9, 1.6233319e+2
-0.387, 1.6312379e-8, -4.3798796e-9, 1.6266652e+2
-0.388, 1.6294566e-8, -4.2781907e-9, 1.6299985e+2
-0.389, 1.6265648e-8, -4.4131099e-9, 1.6333318e+2
-0.390, 1.6333388e-8, -4.4490567e-9, 1.6366650e+2
-0.391, 1.6360787e-8, -4.4049622e-9, 1.6399983e+2
-0.392, 1.6359030e-8, -4.4316426e-9, 1.6433316e+2
-0.393, 1.6353200e-8, -4.4389119e-9, 1.6466649e+2
-0.394, 1.6373408e-8, -4.3945776e-9, 1.6499982e+2
-0.395, 1.6373249e-8, -4.4596806e-9, 1.6533315e+2
-0.396, 1.6393699e-8, -4.4185420e-9, 1.6566647e+2
-0.397, 1.6372290e-8, -4.4173438e-9, 1.6599980e+2
-0.398, 1.6420140e-8, -4.4232551e-9, 1.6633313e+2
-0.399, 1.6464872e-8, -4.4296455e-9, 1.6666646e+2
-0.400, 1.6422455e-8, -4.4391513e-9, 1.6699979e+2
-0.401, 1.6552343e-8, -4.4258113e-9, 1.6733311e+2
-0.402, 1.6565522e-8, -4.4788524e-9, 1.6766644e+2
-0.403, 1.6537964e-8, -4.4954676e-9, 1.6799977e+2
-0.404, 1.6724647e-8, -4.4765356e-9, 1.6833310e+2
-0.405, 1.6665695e-8, -4.4694266e-9, 1.6866643e+2
-0.406, 1.6660023e-8, -4.4824469e-9, 1.6899976e+2
-0.407, 1.6794703e-8, -4.4783732e-9, 1.6933308e+2
-0.408, 1.6734552e-8, -4.4766160e-9, 1.6966641e+2
-0.409, 1.6838078e-8, -4.5149586e-9, 1.6999974e+2
-0.410, 1.6815791e-8, -4.5065711e-9, 1.7033307e+2
-0.411, 1.6842391e-8, -4.5435562e-9, 1.7066640e+2
-0.412, 1.6842073e-8, -4.5270210e-9, 1.7099973e+2
-0.413, 1.6861403e-8, -4.5372457e-9, 1.7133305e+2
-0.414, 1.6872427e-8, -4.5168758e-9, 1.7166638e+2
-0.415, 1.6899426e-8, -4.5082489e-9, 1.7199971e+2
-0.416, 1.6856610e-8, -4.5196717e-9, 1.7233304e+2
-0.417, 1.6980906e-8, -4.5497868e-9, 1.7266637e+2
-0.418, 1.6976992e-8, -4.5488284e-9, 1.7299969e+2
-0.419, 1.7052638e-8, -4.5551389e-9, 1.7333302e+2
-0.420, 1.7212800e-8, -4.5700768e-9, 1.7366635e+2
-0.421, 1.7072129e-8, -4.5672013e-9, 1.7399968e+2
-0.422, 1.7140747e-8, -4.5846953e-9, 1.7433301e+2
-0.423, 1.7258733e-8, -4.5616093e-9, 1.7466634e+2
-0.424, 1.7221826e-8, -4.5854143e-9, 1.7499966e+2
-0.425, 1.7220868e-8, -4.5781450e-9, 1.7533299e+2
-0.426, 1.7291804e-8, -4.5504258e-9, 1.7566632e+2
-0.427, 1.7277346e-8, -4.5745501e-9, 1.7599965e+2
-0.428, 1.7313450e-8, -4.5880499e-9, 1.7633298e+2
-0.429, 1.7311933e-8, -4.5837365e-9, 1.7666631e+2
-0.430, 1.7327270e-8, -4.5612900e-9, 1.7699963e+2
-0.431, 1.7332622e-8, -4.5766266e-9, 1.7733296e+2
-0.432, 1.7349636e-8, -4.5982751e-9, 1.7766629e+2
-0.433, 1.7372724e-8, -4.5799022e-9, 1.7799962e+2
-0.434, 1.7410267e-8, -4.5866120e-9, 1.7833295e+2
-0.435, 1.7373441e-8, -4.5918043e-9, 1.7866628e+2
-0.436, 1.7544707e-8, -4.6019495e-9, 1.7899960e+2
-0.437, 1.7539994e-8, -4.6297481e-9, 1.7933293e+2
-0.438, 1.7523698e-8, -4.6243160e-9, 1.7966626e+2
-0.439, 1.7662371e-8, -4.5949995e-9, 1.7999959e+2
-0.440, 1.7647436e-8, -4.6271120e-9, 1.8033292e+2
-0.441, 1.7751759e-8, -4.6125739e-9, 1.8066624e+2
-0.442, 1.7588881e-8, -4.6211208e-9, 1.8099957e+2
-0.443, 1.7762384e-8, -4.6512363e-9, 1.8133290e+2
-0.444, 1.7779158e-8, -4.6331028e-9, 1.8166623e+2
-0.445, 1.7786348e-8, -4.6612212e-9, 1.8199956e+2
-0.446, 1.7836353e-8, -4.6710467e-9, 1.8233289e+2
-0.447, 1.7807835e-8, -4.7071529e-9, 1.8266621e+2
-0.448, 1.7862634e-8, -4.7419011e-9, 1.8299954e+2
-0.449, 1.7985172e-8, -4.7216910e-9, 1.8333287e+2
-0.450, 1.7946590e-8, -4.7653863e-9, 1.8366620e+2
-0.451, 1.7892591e-8, -4.6420499e-9, 1.8399953e+2
-0.452, 1.8152683e-8, -4.7482120e-9, 1.8433286e+2
-0.453, 1.8095088e-8, -4.6939723e-9, 1.8466618e+2
-0.454, 1.8093571e-8, -4.7498894e-9, 1.8499951e+2
-0.455, 1.8251097e-8, -4.7921462e-9, 1.8533284e+2
-0.456, 1.8246304e-8, -4.8133950e-9, 1.8566617e+2
-0.457, 1.8266674e-8, -4.8721076e-9, 1.8599950e+2
-0.458, 1.8314283e-8, -4.7935047e-9, 1.8633282e+2
-0.459, 1.8310448e-8, -4.8940749e-9, 1.8666615e+2
-0.460, 1.8339366e-8, -4.8595665e-9, 1.8699948e+2
-0.461, 1.8352946e-8, -4.8038094e-9, 1.8733281e+2
-0.462, 1.8379145e-8, -4.8095607e-9, 1.8766614e+2
-0.463, 1.8380344e-8, -4.7868745e-9, 1.8799947e+2
-0.464, 1.8380106e-8, -4.8414330e-9, 1.8833279e+2
-0.465, 1.8558961e-8, -4.8159512e-9, 1.8866612e+2
-0.466, 1.8470290e-8, -4.8739448e-9, 1.8899945e+2
-0.467, 1.8551450e-8, -4.8705897e-9, 1.8933278e+2
-0.468, 1.8733820e-8, -4.8789772e-9, 1.8966611e+2
-0.469, 1.8755708e-8, -4.9240305e-9, 1.8999944e+2
-0.470, 1.8750836e-8, -4.9265068e-9, 1.9033276e+2
-0.471, 1.8793491e-8, -4.9201963e-9, 1.9066609e+2
-0.472, 1.8794609e-8, -4.9158828e-9, 1.9099942e+2
-0.473, 1.8803476e-8, -4.9193174e-9, 1.9133275e+2
-0.474, 1.8858993e-8, -4.9511102e-9, 1.9166608e+2
-0.475, 1.8936078e-8, -4.9935269e-9, 1.9199940e+2
-0.476, 1.9090329e-8, -4.9757936e-9, 1.9233273e+2
-0.477, 1.9034891e-8, -4.9933671e-9, 1.9266606e+2
-0.478, 1.9160785e-8, -4.9798676e-9, 1.9299939e+2
-0.479, 1.9177879e-8, -4.9897726e-9, 1.9333272e+2
-0.480, 1.9224769e-8, -4.9940065e-9, 1.9366605e+2
-0.481, 1.9292189e-8, -5.0252402e-9, 1.9399937e+2
-0.482, 1.9302254e-8, -5.0622253e-9, 1.9433270e+2
-0.483, 1.9357770e-8, -5.0407367e-9, 1.9466603e+2
-0.484, 1.9559630e-8, -5.1016862e-9, 1.9499936e+2
-0.485, 1.9624734e-8, -5.0218052e-9, 1.9533269e+2
-0.486, 1.9589827e-8, -5.0882663e-9, 1.9566602e+2
-0.487, 1.9751827e-8, -5.1016862e-9, 1.9599934e+2
-0.488, 1.9736810e-8, -5.0484856e-9, 1.9633267e+2
-0.489, 1.9761890e-8, -5.0637428e-9, 1.9666600e+2
-0.490, 1.9814372e-8, -5.0906630e-9, 1.9699933e+2
-0.491, 1.9809979e-8, -5.1204587e-9, 1.9733266e+2
-0.492, 1.9997939e-8, -5.1049618e-9, 1.9766599e+2
-0.493, 1.9997060e-8, -5.3177653e-9, 1.9799931e+2
-0.494, 2.0261787e-8, -5.3168865e-9, 1.9833264e+2
-0.495, 2.0282796e-8, -5.3692086e-9, 1.9866597e+2
-0.496, 2.0293262e-8, -5.4024389e-9, 1.9899930e+2
-0.497, 2.0407651e-8, -5.4375073e-9, 1.9933263e+2
-0.498, 2.0417236e-8, -5.4008416e-9, 1.9966595e+2
-0.499, 2.0052658e-8, -5.4315161e-9, 1.9999928e+2
-0.500, 1.4459213e-8, -5.4490896e-9, 2.0033261e+2
-0.499, 1.3160105e-8, -5.3499574e-9, 2.0066594e+2
-0.498, 1.2133233e-8, -5.2997917e-9, 2.0099927e+2
-0.497, 1.1472695e-8, -5.1891562e-9, 2.0133260e+2
-0.496, 1.0849781e-8, -5.1312425e-9, 2.0166592e+2
-0.495, 1.0185728e-8, -5.1332396e-9, 2.0199925e+2
-0.494, 9.6735295e-9, -5.1217368e-9, 2.0233258e+2
-0.493, 9.2573478e-9, -5.0968936e-9, 2.0266591e+2
-0.492, 8.6973007e-9, -5.0559943e-9, 2.0299924e+2
-0.491, 8.4082101e-9, -5.0383404e-9, 2.0333257e+2
-0.490, 8.0021740e-9, -5.0439319e-9, 2.0366589e+2
-0.489, 7.5861530e-9, -5.0713318e-9, 2.0399922e+2
-0.488, 7.3338873e-9, -4.9995181e-9, 2.0433255e+2
-0.487, 6.9103576e-9, -4.9753943e-9, 2.0466588e+2
-0.486, 6.6564949e-9, -5.0082254e-9, 2.0499921e+2
-0.485, 6.3928067e-9, -4.9678053e-9, 2.0533253e+2
-0.484, 6.0366965e-9, -4.9281845e-9, 2.0566586e+2
-0.483, 5.7326681e-9, -4.9062967e-9, 2.0599919e+2
-0.482, 5.5546927e-9, -4.9094124e-9, 2.0633252e+2
-0.481, 5.2636855e-9, -4.8912789e-9, 2.0666585e+2
-0.480, 5.0557545e-9, -4.8694715e-9, 2.0699918e+2
-0.479, 4.7216910e-9, -4.8260960e-9, 2.0733250e+2
-0.478, 4.6128927e-9, -4.8519775e-9, 2.0766583e+2
-0.477, 4.4453023e-9, -4.8185074e-9, 2.0799916e+2
-0.476, 4.1453481e-9, -4.8410338e-9, 2.0833249e+2
-0.475, 4.0633901e-9, -4.7422208e-9, 2.0866582e+2
-0.474, 3.8295775e-9, -4.7248867e-9, 2.0899915e+2
-0.473, 3.6099841e-9, -4.6671325e-9, 2.0933247e+2
-0.472, 3.4824938e-9, -4.6494786e-9, 2.0966580e+2
-0.471, 3.2686518e-9, -4.6853454e-9, 2.0999913e+2
-0.470, 3.1452350e-9, -4.6281503e-9, 2.1033246e+2
-0.469, 2.9639047e-9, -4.6016297e-9, 2.1066579e+2
-0.468, 2.8091747e-9, -4.6416502e-9, 2.1099911e+2
-0.467, 2.7065274e-9, -4.6235176e-9, 2.1133244e+2
-0.466, 2.5760014e-9, -4.5859734e-9, 2.1166577e+2
-0.465, 2.4425997e-9, -4.6015498e-9, 2.1199910e+2
-0.464, 2.3481002e-9, -4.6009907e-9, 2.1233243e+2
-0.463, 2.1392905e-9, -4.6162478e-9, 2.1266576e+2
-0.462, 2.1047020e-9, -4.5739910e-9, 2.1299908e+2
-0.461, 1.9477355e-9, -4.5731920e-9, 2.1333241e+2
-0.460, 1.7704789e-9, -4.5823785e-9, 2.1366574e+2
-0.459, 1.7018609e-9, -4.5753485e-9, 2.1399907e+2
-0.458, 1.6315654e-9, -4.5657633e-9, 2.1433240e+2
-0.457, 1.5142199e-9, -4.5457127e-9, 2.1466573e+2
-0.456, 1.3902441e-9, -4.5574553e-9, 2.1499905e+2
-0.455, 1.2963040e-9, -4.5658428e-9, 2.1533238e+2
-0.454, 1.1988488e-9, -4.5661626e-9, 2.1566571e+2
-0.453, 1.1683341e-9, -4.6061031e-9, 2.1599904e+2
-0.452, 1.1123374e-9, -4.5539408e-9, 2.1633237e+2
-0.451, 1.0175982e-9, -4.5240651e-9, 2.1666570e+2
-0.450, 7.8442491e-10, -4.5065711e-9, 2.1699902e+2
-0.449, 7.5430967e-10, -4.5114441e-9, 2.1733235e+2
-0.448, 7.1620637e-10, -4.5101660e-9, 2.1766568e+2
-0.447, 6.3193162e-10, -4.4933106e-9, 2.1799901e+2
-0.446, 6.0980448e-10, -4.4798112e-9, 2.1833234e+2
-0.445, 4.4948287e-10, -4.4774144e-9, 2.1866566e+2
-0.444, 2.3731830e-10, -4.4742992e-9, 2.1899899e+2
-0.443, 2.8900146e-10, -4.4774944e-9, 2.1933232e+2
-0.442, 1.9729780e-10, -4.4881183e-9, 2.1966565e+2
-0.441, 1.8411739e-10, -4.4781334e-9, 2.1999898e+2
-0.440, 1.3778627e-10, -4.4697459e-9, 2.2033231e+2
-0.439, 1.2045205e-10, -4.4776542e-9, 2.2066563e+2
-0.438, 5.7265984e-11, -4.4881987e-9, 2.2099896e+2
-0.437, -9.9620770e-11, -4.4941895e-9, 2.2133229e+2
-0.436, -1.2294610e-10, -4.4881987e-9, 2.2166562e+2
-0.435, -2.1033618e-10, -4.4695860e-9, 2.2199895e+2
-0.434, -2.7823524e-10, -4.4667905e-9, 2.2233228e+2
-0.433, -2.9085648e-10, -4.4670299e-9, 2.2266560e+2
-0.432, -3.2728231e-10, -4.4409885e-9, 2.2299893e+2
-0.431, -3.9725825e-10, -4.3940984e-9, 2.2333226e+2
-0.430, -4.2194157e-10, -4.3972936e-9, 2.2366559e+2
-0.429, -5.1508309e-10, -4.4174238e-9, 2.2399892e+2
-0.428, -6.0215366e-10, -4.4048822e-9, 2.2433224e+2
-0.427, -6.2483990e-10, -4.4071191e-9, 2.2466557e+2
-0.426, -7.5800194e-10, -4.3713322e-9, 2.2499890e+2
-0.425, -7.6151674e-10, -4.3846722e-9, 2.2533223e+2
-0.424, -7.7341905e-10, -4.3261994e-9, 2.2566556e+2
-0.423, -8.1120283e-10, -4.3468886e-9, 2.2599889e+2
-0.422, -8.4235652e-10, -4.3572732e-9, 2.2633221e+2
-0.421, -8.6895696e-10, -4.3308326e-9, 2.2666554e+2
-0.420, -9.4716079e-10, -4.2956048e-9, 2.2699887e+2
-0.419, -9.1329105e-10, -4.2886552e-9, 2.2733220e+2
-0.418, -1.1146717e-9, -4.2559041e-9, 2.2766553e+2
-0.417, -1.1250563e-9, -4.2842614e-9, 2.2799886e+2
-0.416, -1.1504585e-9, -4.2618149e-9, 2.2833218e+2
-0.415, -1.2393663e-9, -4.2665280e-9, 2.2866551e+2
-0.414, -1.2434402e-9, -4.2288240e-9, 2.2899884e+2
-0.413, -1.2666858e-9, -4.2472768e-9, 2.2933217e+2
-0.412, -1.2995168e-9, -4.2313002e-9, 2.2966550e+2
-0.411, -1.3067062e-9, -4.1998272e-9, 2.2999883e+2
-0.410, -1.3751644e-9, -4.2531081e-9, 2.3033215e+2
-0.409, -1.3677354e-9, -4.2142858e-9, 2.3066548e+2
-0.408, -1.4289245e-9, -4.1823331e-9, 2.3099881e+2
-0.407, -1.3901821e-9, -4.2782706e-9, 2.3133214e+2
-0.406, -1.4211760e-9, -4.2479158e-9, 2.3166547e+2
-0.405, -1.6225565e-9, -4.2291437e-9, 2.3199879e+2
-0.404, -1.5483469e-9, -4.1981498e-9, 2.3233212e+2
-0.403, -1.5801397e-9, -4.2082946e-9, 2.3266545e+2
-0.402, -1.7541210e-9, -4.2509511e-9, 2.3299878e+2
-0.401, -1.7355086e-9, -4.1640407e-9, 2.3333211e+2
-0.400, -1.7416595e-9, -4.1642001e-9, 2.3366544e+2
-0.399, -1.7780054e-9, -4.2139661e-9, 2.3399876e+2
-0.398, -1.7985350e-9, -4.1875254e-9, 2.3433209e+2
-0.397, -1.7966177e-9, -4.1697117e-9, 2.3466542e+2
-0.396, -1.8702682e-9, -4.1376795e-9, 2.3499875e+2
-0.395, -1.8760198e-9, -4.1403951e-9, 2.3533208e+2
-0.394, -1.9343331e-9, -4.1360022e-9, 2.3566541e+2
-0.393, -1.9569395e-9, -4.1695523e-9, 2.3599873e+2
-0.392, -1.9415225e-9, -4.1879247e-9, 2.3633206e+2
-0.391, -1.9912885e-9, -4.1801762e-9, 2.3666539e+2
-0.390, -2.0489626e-9, -4.1621231e-9, 2.3699872e+2
-0.389, -2.0695721e-9, -4.1843302e-9, 2.3733205e+2
-0.388, -2.0385782e-9, -4.2134869e-9, 2.3766537e+2
-0.387, -2.0857878e-9, -4.1767416e-9, 2.3799870e+2
-0.386, -2.2457101e-9, -4.1332062e-9, 2.3833203e+2
-0.385, -2.2418758e-9, -4.1088426e-9, 2.3866536e+2
-0.384, -2.2472280e-9, -4.1163513e-9, 2.3899869e+2
-0.383, -2.3078577e-9, -4.1230610e-9, 2.3933202e+2
-0.382, -2.2549764e-9, -4.1214636e-9, 2.3966534e+2
-0.381, -2.2889259e-9, -4.1157922e-9, 2.3999867e+2
-0.380, -2.3475588e-9, -4.1158721e-9, 2.4033200e+2
-0.379, -2.3095352e-9, -4.1271351e-9, 2.4066533e+2
-0.378, -2.3658515e-9, -4.1098009e-9, 2.4099866e+2
-0.377, -2.4352682e-9, -4.0990966e-9, 2.4133199e+2
-0.376, -2.5078803e-9, -4.1015733e-9, 2.4166531e+2
-0.375, -2.5168270e-9, -4.1012536e-9, 2.4199864e+2
-0.374, -2.5353597e-9, -4.1010142e-9, 2.4233197e+2
-0.373, -2.6236282e-9, -4.0939043e-9, 2.4266530e+2
-0.372, -2.6064537e-9, -4.0717776e-9, 2.4299863e+2
-0.371, -2.6054154e-9, -4.0933452e-9, 2.4333195e+2
-0.370, -2.7293909e-9, -4.0937449e-9, 2.4366528e+2
-0.369, -2.7167699e-9, -4.0908690e-9, 2.4399861e+2
-0.368, -2.7250775e-9, -4.0939043e-9, 2.4433194e+2
-0.367, -2.7476839e-9, -4.0931059e-9, 2.4466527e+2
-0.366, -2.7259563e-9, -4.1071648e-9, 2.4499860e+2
-0.365, -2.7480831e-9, -4.0833603e-9, 2.4533192e+2
-0.364, -2.7804350e-9, -4.0703396e-9, 2.4566525e+2
-0.363, -2.7616631e-9, -4.0796060e-9, 2.4599858e+2
-0.362, -2.7899412e-9, -4.0585975e-9, 2.4633191e+2
-0.361, -2.8276450e-9, -4.0645083e-9, 2.4666524e+2
-0.360, -2.8040001e-9, -4.0638692e-9, 2.4699857e+2
-0.359, -2.8516893e-9, -4.0527657e-9, 2.4733189e+2
-0.358, -2.8771714e-9, -4.0692214e-9, 2.4766522e+2
-0.357, -2.8865972e-9, -4.0632306e-9, 2.4799855e+2
-0.356, -2.9338871e-9, -4.0694608e-9, 2.4833188e+2
-0.355, -2.9179108e-9, -4.0407038e-9, 2.4866521e+2
-0.354, -3.0987619e-9, -4.0542836e-9, 2.4899854e+2
-0.353, -3.0949276e-9, -4.0391859e-9, 2.4933186e+2
-0.352, -3.0308629e-9, -4.0625117e-9, 2.4966519e+2
-0.351, -3.2230572e-9, -4.0524464e-9, 2.4999852e+2
-0.350, -3.1107441e-9, -4.0276031e-9, 2.5033185e+2
-0.349, -3.1480487e-9, -4.0428607e-9, 2.5066518e+2
-0.348, -3.1975751e-9, -4.0220911e-9, 2.5099850e+2
-0.347, -3.1994920e-9, -4.0167394e-9, 2.5133183e+2
-0.346, -3.1983738e-9, -4.0161803e-9, 2.5166516e+2
-0.345, -3.1974152e-9, -4.0218517e-9, 2.5199849e+2
-0.344, -3.2027674e-9, -4.0080326e-9, 2.5233182e+2
-0.343, -3.2121132e-9, -4.0102690e-9, 2.5266515e+2
-0.342, -3.2793734e-9, -4.0136241e-9, 2.5299847e+2
-0.341, -3.3426393e-9, -4.0393457e-9, 2.5333180e+2
-0.340, -3.3507872e-9, -3.9953312e-9, 2.5366513e+2
-0.339, -3.3489500e-9, -3.9967691e-9, 2.5399846e+2
-0.338, -3.3595742e-9, -4.0033994e-9, 2.5433179e+2
-0.337, -3.3828997e-9, -4.0010826e-9, 2.5466512e+2
-0.336, -3.3619707e-9, -3.9926151e-9, 2.5499844e+2
-0.335, -3.5478545e-9, -3.9767989e-9, 2.5533177e+2
-0.334, -3.4113370e-9, -3.9571479e-9, 2.5566510e+2
-0.333, -3.4392957e-9, -3.9561896e-9, 2.5599843e+2
-0.332, -3.4577481e-9, -3.9425294e-9, 2.5633176e+2
-0.331, -3.4222809e-9, -3.9509973e-9, 2.5666510e+2
-0.330, -3.7173622e-9, -4.0045176e-9, 2.5699844e+2
-0.329, -3.6968328e-9, -3.9493195e-9, 2.5733179e+2
-0.328, -3.7096135e-9, -3.9416510e-9, 2.5766513e+2
-0.327, -3.6755043e-9, -3.9397339e-9, 2.5799847e+2
-0.326, -3.6909216e-9, -3.9602632e-9, 2.5833182e+2
-0.325, -3.7165635e-9, -3.9563490e-9, 2.5866516e+2
-0.324, -3.7261492e-9, -3.9287902e-9, 2.5899850e+2
-0.323, -3.7248709e-9, -3.9435681e-9, 2.5933185e+2
-0.322, -3.7628149e-9, -3.9110564e-9, 2.5966519e+2
-0.321, -3.7458001e-9, -3.9242369e-9, 2.5999854e+2
-0.320, -3.7685659e-9, -3.8917252e-9, 2.6033188e+2
-0.319, -3.8807193e-9, -3.8821395e-9, 2.6066522e+2
-0.318, -3.7849421e-9, -3.9171275e-9, 2.6099857e+2
-0.317, -3.7791104e-9, -3.9104973e-9, 2.6133191e+2
-0.316, -3.8961363e-9, -3.8862136e-9, 2.6166525e+2
-0.315, -3.8636250e-9, -3.8767074e-9, 2.6199860e+2
-0.314, -3.8642636e-9, -3.8530628e-9, 2.6233194e+2
-0.313, -3.9538905e-9, -3.8367669e-9, 2.6266528e+2
-0.312, -3.9674704e-9, -3.8305363e-9, 2.6299863e+2
-0.311, -3.9232160e-9, -3.8047343e-9, 2.6333197e+2
-0.310, -4.0054942e-9, -3.8286192e-9, 2.6366531e+2
-0.309, -4.1147712e-9, -3.8044150e-9, 2.6399866e+2
-0.308, -4.2111079e-9, -3.7592023e-9, 2.6433200e+2
-0.307, -4.1644572e-9, -3.7607202e-9, 2.6466534e+2
-0.306, -4.2242090e-9, -3.7305248e-9, 2.6499869e+2
-0.305, -4.2086317e-9, -3.7227765e-9, 2.6533203e+2
-0.304, -4.2031201e-9, -3.7390722e-9, 2.6566537e+2
-0.303, -4.2603152e-9, -3.7191816e-9, 2.6599872e+2
-0.302, -4.2369894e-9, -3.7208592e-9, 2.6633206e+2
-0.301, -4.2615129e-9, -3.6728505e-9, 2.6666541e+2
-0.300, -4.3213442e-9, -3.6596701e-9, 2.6699875e+2
-0.299, -4.2914685e-9, -3.6520016e-9, 2.6733209e+2
-0.298, -4.3179096e-9, -3.6813979e-9, 2.6766544e+2
-0.297, -4.3879651e-9, -3.6713328e-9, 2.6799878e+2
-0.296, -4.3319686e-9, -3.9763997e-9, 2.6833212e+2
-0.295, -4.2714983e-9, -3.6570340e-9, 2.6866547e+2
-0.294, -4.4725592e-9, -3.6343477e-9, 2.6899881e+2
-0.293, -4.5589110e-9, -3.6281971e-9, 2.6933215e+2
-0.292, -4.5208077e-9, -3.6262799e-9, 2.6966550e+2
-0.291, -4.5717718e-9, -3.6217265e-9, 2.6999884e+2
-0.290, -4.7017390e-9, -3.6193299e-9, 2.7033218e+2
-0.289, -4.6888777e-9, -3.6196497e-9, 2.7066553e+2
-0.288, -4.6894368e-9, -3.5891350e-9, 2.7099887e+2
-0.287, -4.7428776e-9, -3.5884962e-9, 2.7133221e+2
-0.286, -4.7081294e-9, -3.5797090e-9, 2.7166556e+2
-0.285, -4.7426383e-9, -3.5774723e-9, 2.7199890e+2
-0.284, -4.7509454e-9, -3.5508718e-9, 2.7233224e+2
-0.283, -4.7658837e-9, -3.5651706e-9, 2.7266559e+2
-0.282, -4.7609308e-9, -3.5567831e-9, 2.7299893e+2
-0.281, -4.8150106e-9, -3.5118901e-9, 2.7333228e+2
-0.280, -4.9754920e-9, -3.5324992e-9, 2.7366562e+2
-0.279, -5.0454676e-9, -3.5289847e-9, 2.7399896e+2
-0.278, -4.9375481e-9, -3.5126091e-9, 2.7433231e+2
-0.277, -5.1453193e-9, -3.5072569e-9, 2.7466565e+2
-0.276, -5.0661568e-9, -3.4818546e-9, 2.7499899e+2
-0.275, -5.1834226e-9, -3.4827334e-9, 2.7533234e+2
-0.274, -5.2506026e-9, -3.4756240e-9, 2.7566568e+2
-0.273, -5.2348663e-9, -3.4851297e-9, 2.7599902e+2
-0.272, -5.2613864e-9, -3.4387186e-9, 2.7633237e+2
-0.271, -5.3219367e-9, -3.4347247e-9, 2.7666571e+2
-0.270, -5.3156262e-9, -3.3986982e-9, 2.7699905e+2
-0.269, -5.3669895e-9, -3.3539647e-9, 2.7733240e+2
-0.268, -5.4873706e-9, -3.3306393e-9, 2.7766574e+2
-0.267, -5.5098974e-9, -3.2688912e-9, 2.7799908e+2
-0.266, -5.6053553e-9, -3.2286309e-9, 2.7833243e+2
-0.265, -5.6821214e-9, -3.2280718e-9, 2.7866577e+2
-0.264, -5.6753313e-9, -3.1898886e-9, 2.7899911e+2
-0.263, -5.7339644e-9, -3.1668030e-9, 2.7933246e+2
-0.262, -5.7505796e-9, -3.1465930e-9, 2.7966580e+2
-0.261, -5.7895613e-9, -3.1263832e-9, 2.7999915e+2
-0.260, -5.8011445e-9, -3.1176759e-9, 2.8033249e+2
-0.259, -5.8469958e-9, -3.0910754e-9, 2.8066583e+2
-0.258, -6.1308940e-9, -3.0892384e-9, 2.8099918e+2
-0.257, -6.0343974e-9, -3.0660727e-9, 2.8133252e+2
-0.256, -6.1859322e-9, -3.0369161e-9, 2.8166586e+2
-0.255, -6.2058225e-9, -3.0318037e-9, 2.8199921e+2
-0.254, -6.2078995e-9, -3.0218983e-9, 2.8233255e+2
-0.253, -6.2690884e-9, -3.0048837e-9, 2.8266589e+2
-0.252, -6.3818804e-9, -2.9889873e-9, 2.8299924e+2
-0.251, -6.3628689e-9, -2.9679785e-9, 2.8333258e+2
-0.250, -6.5291017e-9, -2.9383427e-9, 2.8366592e+2
-0.249, -6.5719181e-9, -2.9134997e-9, 2.8399927e+2
-0.248, -6.6373409e-9, -2.8436036e-9, 2.8433261e+2
-0.247, -6.6426935e-9, -2.7945564e-9, 2.8466595e+2
-0.246, -6.6626633e-9, -2.6841604e-9, 2.8499930e+2
-0.245, -6.7585209e-9, -2.7537370e-9, 2.8533264e+2
-0.244, -6.7884764e-9, -2.7177107e-9, 2.8566599e+2
-0.243, -6.7637931e-9, -2.6705806e-9, 2.8599933e+2
-0.242, -6.9334605e-9, -2.6753735e-9, 2.8633267e+2
-0.241, -7.0131025e-9, -2.6457376e-9, 2.8666602e+2
-0.240, -7.0272415e-9, -2.6345541e-9, 2.8699936e+2
-0.239, -7.0839570e-9, -2.5903002e-9, 2.8733270e+2
-0.238, -7.1392350e-9, -2.6167408e-9, 2.8766605e+2
-0.237, -7.1743029e-9, -2.5830309e-9, 2.8799939e+2
-0.236, -7.2437198e-9, -2.5619424e-9, 2.8833273e+2
-0.235, -7.1984267e-9, -2.5668150e-9, 2.8866608e+2
-0.234, -7.2807045e-9, -2.5434896e-9, 2.8899942e+2
-0.233, -7.2819026e-9, -2.5324660e-9, 2.8933276e+2
-0.232, -7.3036306e-9, -2.5324660e-9, 2.8966611e+2
-0.231, -7.3451685e-9, -2.5163300e-9, 2.8999945e+2
-0.230, -7.4908719e-9, -2.5121762e-9, 2.9033279e+2
-0.229, -7.3705713e-9, -2.4570581e-9, 2.9066614e+2
-0.228, -7.6476789e-9, -2.5000344e-9, 2.9099948e+2
-0.227, -7.6098150e-9, -2.4627296e-9, 2.9133282e+2
-0.226, -7.6389712e-9, -2.4155999e-9, 2.9166617e+2
-0.225, -7.6214777e-9, -2.4132034e-9, 2.9199951e+2
-0.224, -7.6513533e-9, -2.3219791e-9, 2.9233286e+2
-0.223, -7.7222078e-9, -2.4129636e-9, 2.9266620e+2
-0.222, -7.7143794e-9, -2.3584048e-9, 2.9299954e+2
-0.221, -7.6840250e-9, -2.3211002e-9, 2.9333289e+2
-0.220, -7.8511366e-9, -2.2889881e-9, 2.9366623e+2
-0.219, -7.7574356e-9, -2.3019289e-9, 2.9399957e+2
-0.218, -7.7871514e-9, -2.2833164e-9, 2.9433292e+2
-0.217, -7.7891489e-9, -2.2075890e-9, 2.9466626e+2
-0.216, -7.8616011e-9, -2.2450533e-9, 2.9499960e+2
-0.215, -7.8552107e-9, -2.2447340e-9, 2.9533295e+2
-0.214, -7.8617601e-9, -2.2085478e-9, 2.9566629e+2
-0.213, -8.0089819e-9, -2.2012785e-9, 2.9599963e+2
-0.212, -7.9730356e-9, -2.1849027e-9, 2.9633298e+2
-0.211, -8.0525977e-9, -2.2052724e-9, 2.9666632e+2
-0.210, -8.1241707e-9, -2.1734798e-9, 2.9699966e+2
-0.209, -8.0842302e-9, -2.1900151e-9, 2.9733301e+2
-0.208, -8.1209750e-9, -2.1607787e-9, 2.9766635e+2
-0.207, -8.1715399e-9, -2.1436841e-9, 2.9799969e+2
-0.206, -8.1510105e-9, -2.1474384e-9, 2.9833304e+2
-0.205, -8.1335170e-9, -2.1455213e-9, 2.9866638e+2
-0.204, -8.2065279e-9, -2.1486366e-9, 2.9899973e+2
-0.203, -8.1772118e-9, -2.1455213e-9, 2.9933307e+2
-0.202, -8.1835223e-9, -2.1430451e-9, 2.9966641e+2
-0.201, -8.1839220e-9, -2.1333793e-9, 2.9999976e+2
-0.200, -8.2332079e-9, -2.1211577e-9, 3.0033310e+2
-0.199, -8.2095637e-9, -2.1456812e-9, 3.0066644e+2
-0.198, -8.2227443e-9, -2.1133293e-9, 3.0099979e+2
-0.197, -8.2887253e-9, -2.1142079e-9, 3.0133313e+2
-0.196, -8.3109324e-9, -2.1232345e-9, 3.0166647e+2
-0.195, -8.3035037e-9, -2.1182021e-9, 3.0199982e+2
-0.194, -8.4777252e-9, -2.1138884e-9, 3.0233316e+2
-0.193, -8.3972047e-9, -2.1096547e-9, 3.0266650e+2
-0.192, -8.3570244e-9, -2.1014270e-9, 3.0299985e+2
-0.191, -8.5527327e-9, -2.0918411e-9, 3.0333319e+2
-0.190, -8.3786720e-9, -2.0938382e-9, 3.0366653e+2
-0.189, -8.4730116e-9, -2.1070186e-9, 3.0399988e+2
-0.188, -8.5502574e-9, -2.0829742e-9, 3.0433322e+2
-0.187, -8.4736511e-9, -2.0700335e-9, 3.0466656e+2
-0.186, -8.5487395e-9, -2.0776223e-9, 3.0499991e+2
-0.185, -8.5395531e-9, -2.0808975e-9, 3.0533325e+2
-0.184, -8.5780556e-9, -2.0856106e-9, 3.0566660e+2
-0.183, -8.5914751e-9, -2.0757052e-9, 3.0599994e+2
-0.182, -8.5651148e-9, -2.0761843e-9, 3.0633328e+2
-0.181, -8.6114458e-9, -2.0485456e-9, 3.0666663e+2
-0.180, -8.5834877e-9, -2.0570130e-9, 3.0699997e+2
-0.179, -8.5945917e-9, -2.0801785e-9, 3.0733331e+2
-0.178, -8.6284606e-9, -2.0521402e-9, 3.0766666e+2
-0.177, -8.6219103e-9, -2.0477466e-9, 3.0800000e+2
-0.176, -8.6370875e-9, -2.0647613e-9, 3.0833334e+2
-0.175, -8.6548217e-9, -2.0439124e-9, 3.0866669e+2
-0.174, -8.6271825e-9, -2.0562940e-9, 3.0900003e+2
-0.173, -8.6465137e-9, -2.0474271e-9, 3.0933337e+2
-0.172, -8.6898897e-9, -2.0443918e-9, 3.0966672e+2
-0.171, -8.6689607e-9, -2.0357644e-9, 3.1000006e+2
-0.170, -8.6797449e-9, -2.0419155e-9, 3.1033340e+2
-0.169, -8.6646468e-9, -2.0288948e-9, 3.1066675e+2
-0.168, -8.7038687e-9, -2.0446314e-9, 3.1100009e+2
-0.167, -8.6806233e-9, -2.0285751e-9, 3.1133344e+2
-0.166, -8.6962002e-9, -2.0226640e-9, 3.1166678e+2
-0.165, -8.7381382e-9, -2.0272171e-9, 3.1200012e+2
-0.164, -8.6980370e-9, -2.0236226e-9, 3.1233347e+2
-0.163, -8.7114573e-9, -2.0288948e-9, 3.1266681e+2
-0.162, -8.8191374e-9, -2.0241018e-9, 3.1300015e+2
-0.161, -8.7475636e-9, -2.0276967e-9, 3.1333350e+2
-0.160, -8.7378984e-9, -2.0256194e-9, 3.1366684e+2
-0.159, -8.8581187e-9, -2.0300130e-9, 3.1400018e+2
-0.158, -8.7611438e-9, -2.0194688e-9, 3.1433353e+2
-0.157, -8.8421430e-9, -2.0132380e-9, 3.1466687e+2
-0.156, -8.9172314e-9, -1.9955042e-9, 3.1500021e+2
-0.155, -8.8846406e-9, -2.0049304e-9, 3.1533356e+2
-0.154, -8.9686756e-9, -2.0105220e-9, 3.1566690e+2
-0.153, -8.8840011e-9, -2.0013358e-9, 3.1600024e+2
-0.152, -9.0168433e-9, -1.9777708e-9, 3.1633359e+2
-0.151, -8.8612353e-9, -2.0062882e-9, 3.1666693e+2
-0.150, -8.9161931e-9, -1.9895932e-9, 3.1700027e+2
-0.149, -9.0126102e-9, -1.9975814e-9, 3.1733362e+2
-0.148, -9.0493550e-9, -1.9909510e-9, 3.1766696e+2
-0.147, -8.9883265e-9, -1.9824040e-9, 3.1800031e+2
-0.146, -9.1107841e-9, -1.9987796e-9, 3.1833365e+2
-0.145, -9.0430445e-9, -1.9922293e-9, 3.1866699e+2
-0.144, -9.0828252e-9, -1.9982205e-9, 3.1900034e+2
-0.143, -9.1454524e-9, -1.9895132e-9, 3.1933368e+2
-0.142, -9.0830650e-9, -1.9756938e-9, 3.1966702e+2
-0.141, -9.1190113e-9, -1.9695430e-9, 3.2000037e+2
-0.140, -9.1700558e-9, -1.9199369e-9, 3.2033371e+2
-0.139, -9.1272394e-9, -1.9687443e-9, 3.2066705e+2
-0.138, -9.1404999e-9, -1.9683446e-9, 3.2100040e+2
-0.137, -9.1591117e-9, -1.9415047e-9, 3.2133374e+2
-0.136, -9.1869099e-9, -1.9848003e-9, 3.2166708e+2
-0.135, -9.1952979e-9, -1.9477355e-9, 3.2200043e+2
-0.134, -9.2047241e-9, -1.9161024e-9, 3.2233377e+2
-0.133, -9.2077599e-9, -1.9489337e-9, 3.2266711e+2
-0.132, -9.2467412e-9, -1.9012445e-9, 3.2300046e+2
-0.131, -9.1889873e-9, -1.9510105e-9, 3.2333380e+2
-0.130, -9.3637675e-9, -1.9062771e-9, 3.2366714e+2
-0.129, -9.2454639e-9, -1.9244901e-9, 3.2400049e+2
-0.128, -9.2806918e-9, -1.8883037e-9, 3.2433383e+2
-0.127, -9.4236787e-9, -1.9133064e-9, 3.2466718e+2
-0.126, -9.3752703e-9, -1.8918185e-9, 3.2500052e+2
-0.125, -9.3541024e-9, -1.8783186e-9, 3.2533386e+2
-0.124, -9.5767314e-9, -1.8683335e-9, 3.2566721e+2
-0.123, -9.4439683e-9, -1.8816735e-9, 3.2600055e+2
-0.122, -9.5490922e-9, -1.8618630e-9, 3.2633389e+2
-0.121, -9.5528465e-9, -1.8644990e-9, 3.2666724e+2
-0.120, -9.5878345e-9, -1.8262361e-9, 3.2700058e+2
-0.119, -9.5818429e-9, -1.8502802e-9, 3.2733392e+2
-0.118, -9.5969410e-9, -1.8641797e-9, 3.2766727e+2
-0.117, -9.6261781e-9, -1.8533157e-9, 3.2800061e+2
-0.116, -9.6358432e-9, -1.8080231e-9, 3.2833395e+2
-0.115, -9.6443911e-9, -1.8285526e-9, 3.2866730e+2
-0.114, -9.7333785e-9, -1.8258367e-9, 3.2900064e+2
-0.113, -9.7089341e-9, -1.7931652e-9, 3.2933398e+2
-0.112, -9.6614849e-9, -1.8214431e-9, 3.2966733e+2
-0.111, -9.8688568e-9, -1.8026710e-9, 3.3000067e+2
-0.110, -9.8074278e-9, -1.8091414e-9, 3.3033401e+2
-0.109, -9.8593516e-9, -1.8023515e-9, 3.3066736e+2
-0.108, -1.0010806e-8, -1.7795054e-9, 3.3100070e+2
-0.107, -1.0006891e-8, -1.7921268e-9, 3.3133405e+2
-0.106, -1.0057296e-8, -1.7518665e-9, 3.3166739e+2
-0.105, -1.0094761e-8, -1.7722362e-9, 3.3200073e+2
-0.104, -1.0099634e-8, -1.7742334e-9, 3.3233408e+2
-0.103, -1.0250369e-8, -1.7333341e-9, 3.3266742e+2
-0.102, -1.0152994e-8, -1.7644080e-9, 3.3300076e+2
-0.101, -1.0182470e-8, -1.7846977e-9, 3.3333411e+2
-0.100, -1.0239506e-8, -1.7356507e-9, 3.3366745e+2
-0.099, -1.0257638e-8, -1.7720765e-9, 3.3400079e+2
-0.098, -1.0444561e-8, -1.7461151e-9, 3.3433414e+2
-0.097, -1.0375783e-8, -1.7476329e-9, 3.3466748e+2
-0.096, -1.0454945e-8, -1.7465943e-9, 3.3500082e+2
-0.095, -1.0574608e-8, -1.7537038e-9, 3.3533417e+2
-0.094, -1.0562066e-8, -1.7993959e-9, 3.3566751e+2
-0.093, -1.0572610e-8, -1.7648073e-9, 3.3600085e+2
-0.092, -1.0634119e-8, -1.7327750e-9, 3.3633420e+2
-0.091, -1.0625012e-8, -1.7098490e-9, 3.3666754e+2
-0.090, -1.0678852e-8, -1.7566596e-9, 3.3700089e+2
-0.089, -1.0736526e-8, -1.7253461e-9, 3.3733423e+2
-0.088, -1.0847162e-8, -1.7148016e-9, 3.3766757e+2
-0.087, -1.0840052e-8, -1.7299792e-9, 3.3800092e+2
-0.086, -1.0962430e-8, -1.6952308e-9, 3.3833426e+2
-0.085, -1.1050460e-8, -1.7047367e-9, 3.3866760e+2
-0.084, -1.1109732e-8, -1.7100088e-9, 3.3900095e+2
-0.083, -1.1093277e-8, -1.7175177e-9, 3.3933429e+2
-0.082, -1.1214456e-8, -1.6967485e-9, 3.3966763e+2
-0.081, -1.1202234e-8, -1.6961094e-9, 3.4000098e+2
-0.080, -1.1209184e-8, -1.6802929e-9, 3.4033432e+2
-0.079, -1.1478863e-8, -1.6929143e-9, 3.4066766e+2
-0.078, -1.1388118e-8, -1.6853254e-9, 3.4100101e+2
-0.077, -1.1554351e-8, -1.6747812e-9, 3.4133435e+2
-0.076, -1.1590138e-8, -1.6868433e-9, 3.4166769e+2
-0.075, -1.1571525e-8, -1.6924350e-9, 3.4200104e+2
-0.074, -1.1658356e-8, -1.6691096e-9, 3.4233438e+2
-0.073, -1.1695022e-8, -1.6723049e-9, 3.4266772e+2
-0.072, -1.1746465e-8, -1.6837278e-9, 3.4300107e+2
-0.071, -1.1950083e-8, -1.6712663e-9, 3.4333441e+2
-0.070, -1.1941136e-8, -1.6860444e-9, 3.4366776e+2
-0.069, -1.2042026e-8, -1.6790948e-9, 3.4400110e+2
-0.068, -1.2065910e-8, -1.6648758e-9, 3.4433444e+2
-0.067, -1.2100899e-8, -1.6893196e-9, 3.4466779e+2
-0.066, -1.2245404e-8, -1.6556098e-9, 3.4500113e+2
-0.065, -1.2326003e-8, -1.6701480e-9, 3.4533447e+2
-0.064, -1.2319214e-8, -1.6592042e-9, 3.4566782e+2
-0.063, -1.2518278e-8, -1.6681511e-9, 3.4600116e+2
-0.062, -1.2519875e-8, -1.6686303e-9, 3.4633450e+2
-0.061, -1.2536011e-8, -1.6551305e-9, 3.4666785e+2
-0.060, -1.2600077e-8, -1.6606422e-9, 3.4700119e+2
-0.059, -1.2626277e-8, -1.6631186e-9, 3.4733453e+2
-0.058, -1.2698570e-8, -1.6593641e-9, 3.4766788e+2
-0.057, -1.2786439e-8, -1.6561689e-9, 3.4800122e+2
-0.056, -1.2876704e-8, -1.6559292e-9, 3.4833456e+2
-0.055, -1.2998044e-8, -1.6474618e-9, 3.4866791e+2
-0.054, -1.2992772e-8, -1.6616807e-9, 3.4900125e+2
-0.053, -1.3065225e-8, -1.6536126e-9, 3.4933459e+2
-0.052, -1.3130407e-8, -1.6520949e-9, 3.4966794e+2
-0.051, -1.3161162e-8, -1.6532132e-9, 3.5000128e+2
-0.050, -1.3327235e-8, -1.6572074e-9, 3.5033463e+2
-0.049, -1.3307585e-8, -1.6500979e-9, 3.5066797e+2
-0.048, -1.3414065e-8, -1.6453849e-9, 3.5100131e+2
-0.047, -1.3508485e-8, -1.6442666e-9, 3.5133466e+2
-0.046, -1.3531411e-8, -1.6442666e-9, 3.5166800e+2
-0.045, -1.3579181e-8, -1.6513759e-9, 3.5200134e+2
-0.044, -1.3602266e-8, -1.6452251e-9, 3.5233469e+2
-0.043, -1.3620958e-8, -1.6425891e-9, 3.5266803e+2
-0.042, -1.3754121e-8, -1.6447459e-9, 3.5300137e+2
-0.041, -1.3867313e-8, -1.6363584e-9, 3.5333472e+2
-0.040, -1.3942480e-8, -1.6445061e-9, 3.5366806e+2
-0.039, -1.3945516e-8, -1.6388346e-9, 3.5400140e+2
-0.038, -1.4017728e-8, -1.6450653e-9, 3.5433475e+2
-0.037, -1.4070770e-8, -1.6369974e-9, 3.5466809e+2
-0.036, -1.4053676e-8, -1.6421896e-9, 3.5500143e+2
-0.035, -1.4083391e-8, -1.6401127e-9, 3.5533478e+2
-0.034, -1.4270073e-8, -1.6353997e-9, 3.5566812e+2
-0.033, -1.4250583e-8, -1.6278909e-9, 3.5600146e+2
-0.032, -1.4394050e-8, -1.6377961e-9, 3.5633481e+2
-0.031, -1.4455718e-8, -1.6191040e-9, 3.5666815e+2
-0.030, -1.4461789e-8, -1.6299678e-9, 3.5700150e+2
-0.029, -1.4487909e-8, -1.6334827e-9, 3.5733484e+2
-0.028, -1.4554690e-8, -1.6264530e-9, 3.5766818e+2
-0.027, -1.4504205e-8, -1.6235773e-9, 3.5800153e+2
-0.026, -1.4557806e-8, -1.6014502e-9, 3.5833487e+2
-0.025, -1.4639523e-8, -1.6242963e-9, 3.5866821e+2
-0.024, -1.4596148e-8, -1.6095182e-9, 3.5900156e+2
-0.023, -1.4630258e-8, -1.6172667e-9, 3.5933490e+2
-0.022, -1.4672596e-8, -1.6044058e-9, 3.5966824e+2
-0.021, -1.4862712e-8, -1.6135921e-9, 3.6000159e+2
-0.020, -1.4803919e-8, -1.6115154e-9, 3.6033493e+2
-0.019, -1.4789541e-8, -1.6100774e-9, 3.6066827e+2
-0.018, -1.4955216e-8, -1.6017698e-9, 3.6100162e+2
-0.017, -1.4936521e-8, -1.6053643e-9, 3.6133496e+2
-0.016, -1.4894985e-8, -1.6022490e-9, 3.6166830e+2
-0.015, -1.5005860e-8, -1.5922638e-9, 3.6200165e+2
-0.014, -1.4963842e-8, -1.5986543e-9, 3.6233499e+2
-0.013, -1.4991242e-8, -1.6033674e-9, 3.6266833e+2
-0.012, -1.5046119e-8, -1.5890687e-9, 3.6300168e+2
-0.011, -1.5003861e-8, -1.5972965e-9, 3.6333502e+2
-0.010, -1.5004101e-8, -1.5804414e-9, 3.6366837e+2
-0.009, -1.5051871e-8, -1.6065625e-9, 3.6400171e+2
-0.008, -1.5040927e-8, -1.6010508e-9, 3.6433505e+2
-0.007, -1.5023193e-8, -1.5786840e-9, 3.6466840e+2
-0.006, -1.5035097e-8, -1.5689386e-9, 3.6500174e+2
-0.005, -1.5077992e-8, -1.5949000e-9, 3.6533508e+2
-0.004, -1.5063772e-8, -1.5898675e-9, 3.6566843e+2
-0.003, -1.5037973e-8, -1.5867521e-9, 3.6600177e+2
-0.002, -1.5123524e-8, -1.5822788e-9, 3.6633511e+2
-0.001, -1.5052830e-8, -1.5924236e-9, 3.6666846e+2
-0.000, -1.5090214e-8, -1.5757285e-9, 3.6700180e+2
0.001, -1.5163865e-8, -1.5756486e-9, 3.6733514e+2
0.002, -1.5125442e-8, -1.5753290e-9, 3.6766849e+2
0.003, -1.5141978e-8, -1.5635065e-9, 3.6800183e+2
0.004, -1.5180479e-8, -1.5682996e-9, 3.6833517e+2
0.005, -1.5157875e-8, -1.5807610e-9, 3.6866852e+2
0.006, -1.5303257e-8, -1.5706161e-9, 3.6900186e+2
0.007, -1.5261319e-8, -1.5701369e-9, 3.6933521e+2
0.008, -1.5330896e-8, -1.5533617e-9, 3.6966855e+2
0.009, -1.5297266e-8, -1.5603114e-9, 3.7000189e+2
0.010, -1.5373473e-8, -1.5706960e-9, 3.7033524e+2
0.011, -1.5451198e-8, -1.5654238e-9, 3.7066858e+2
0.012, -1.5424277e-8, -1.5622286e-9, 3.7100192e+2
0.013, -1.5454233e-8, -1.5593528e-9, 3.7133527e+2
0.014, -1.5521174e-8, -1.5571960e-9, 3.7166861e+2
0.015, -1.5502321e-8, -1.5575954e-9, 3.7200195e+2
0.016, -1.5515822e-8, -1.5532818e-9, 3.7233530e+2
0.017, -1.5590910e-8, -1.5471310e-9, 3.7266864e+2
0.018, -1.5602572e-8, -1.5551990e-9, 3.7300198e+2
0.019, -1.5666078e-8, -1.5552788e-9, 3.7333533e+2
0.020, -1.5875766e-8, -1.5472109e-9, 3.7366867e+2
0.021, -1.5737651e-8, -1.5301163e-9, 3.7400201e+2
0.022, -1.5938792e-8, -1.5313145e-9, 3.7433536e+2
0.023, -1.5932722e-8, -1.5413795e-9, 3.7466870e+2
0.024, -1.5978333e-8, -1.5300363e-9, 3.7500204e+2
0.025, -1.6012923e-8, -1.5390630e-9, 3.7533539e+2
0.026, -1.6043117e-8, -1.5449741e-9, 3.7566873e+2
0.027, -1.6136338e-8, -1.5425777e-9, 3.7600208e+2
0.028, -1.6277330e-8, -1.5331517e-9, 3.7633542e+2
0.029, -1.6283479e-8, -1.5443351e-9, 3.7666876e+2
0.030, -1.6471121e-8, -1.5262820e-9, 3.7700211e+2
0.031, -1.6461136e-8, -1.5296370e-9, 3.7733545e+2
0.032, -1.6502035e-8, -1.5196518e-9, 3.7766879e+2
0.033, -1.6676097e-8, -1.5363469e-9, 3.7800214e+2
0.034, -1.6619701e-8, -1.5310748e-9, 3.7833548e+2
0.035, -1.6742717e-8, -1.5277198e-9, 3.7866882e+2
0.036, -1.6977808e-8, -1.5135010e-9, 3.7900217e+2
0.037, -1.6991308e-8, -1.5266015e-9, 3.7933551e+2
0.038, -1.6996660e-8, -1.4936905e-9, 3.7966885e+2
0.039, -1.7142762e-8, -1.5055928e-9, 3.8000220e+2
0.040, -1.7228077e-8, -1.5192524e-9, 3.8033554e+2
0.041, -1.7416516e-8, -1.5115039e-9, 3.8066888e+2
0.042, -1.7477147e-8, -1.5026371e-9, 3.8100223e+2
0.043, -1.7550157e-8, -1.5168560e-9, 3.8133557e+2
0.044, -1.7640023e-8, -1.5093471e-9, 3.8166891e+2
0.045, -1.7729091e-8, -1.5121431e-9, 3.8200226e+2
0.046, -1.7964899e-8, -1.4770751e-9, 3.8233560e+2
0.047, -1.7993816e-8, -1.4988827e-9, 3.8266895e+2
0.048, -1.8070823e-8, -1.5000010e-9, 3.8300229e+2
0.049, -1.8386514e-8, -1.4932910e-9, 3.8333563e+2
0.050, -1.8416868e-8, -1.4915336e-9, 3.8366898e+2
0.051, -1.8454973e-8, -1.4938502e-9, 3.8400232e+2
0.052, -1.8624240e-8, -1.4895366e-9, 3.8433566e+2
0.053, -1.8743902e-8, -1.4647734e-9, 3.8466901e+2
0.054, -1.8916205e-8, -1.4658917e-9, 3.8500235e+2
0.055, -1.9006553e-8, -1.4709243e-9, 3.8533569e+2
0.056, -1.9156408e-8, -1.4652527e-9, 3.8566904e+2
0.057, -1.9272397e-8, -1.4741196e-9, 3.8600238e+2
0.058, -1.9412029e-8, -1.4625368e-9, 3.8633572e+2
0.059, -1.9574507e-8, -1.4825070e-9, 3.8666907e+2
0.060, -1.9730514e-8, -1.4467202e-9, 3.8700241e+2
0.061, -1.9872145e-8, -1.4722823e-9, 3.8733575e+2
0.062, -2.0087183e-8, -1.4634953e-9, 3.8766910e+2
0.063, -2.0193747e-8, -1.4587823e-9, 3.8800244e+2
0.064, -2.0352790e-8, -1.4404895e-9, 3.8833578e+2
0.065, -2.0546583e-8, -1.4483179e-9, 3.8866913e+2
0.066, -2.0577815e-8, -1.4371345e-9, 3.8900247e+2
0.067, -2.0851489e-8, -1.4573445e-9, 3.8933582e+2
0.068, -2.0995435e-8, -1.4517528e-9, 3.8966916e+2
0.069, -2.1067567e-8, -1.4516729e-9, 3.9000250e+2
0.070, -2.1358975e-8, -1.4248328e-9, 3.9033585e+2
0.071, -2.1454433e-8, -1.4163654e-9, 3.9066919e+2
0.072, -2.1616911e-8, -1.4478385e-9, 3.9100253e+2
0.073, -2.1852161e-8, -1.4246730e-9, 3.9133588e+2
0.074, -2.1897613e-8, -1.4237144e-9, 3.9166922e+2
0.075, -2.2174721e-8, -1.4242736e-9, 3.9200256e+2
0.076, -2.2399028e-8, -1.4086967e-9, 3.9233591e+2
0.077, -2.2456863e-8, -1.4045429e-9, 3.9266925e+2
0.078, -2.2776227e-8, -1.3835342e-9, 3.9300259e+2
0.079, -2.2826471e-8, -1.4065400e-9, 3.9333594e+2
0.080, -2.2971617e-8, -1.3816970e-9, 3.9366928e+2
0.081, -2.3271332e-8, -1.3747472e-9, 3.9400262e+2
0.082, -2.3352332e-8, -1.3761052e-9, 3.9433597e+2
0.083, -2.3426541e-8, -1.3952768e-9, 3.9466931e+2
0.084, -2.3707402e-8, -1.3562946e-9, 3.9500266e+2
0.085, -2.3794794e-8, -1.3893655e-9, 3.9533600e+2
0.086, -2.3951840e-8, -1.3640432e-9, 3.9566934e+2
0.087, -2.4194998e-8, -1.3637237e-9, 3.9600269e+2
0.088, -2.4321130e-8, -1.3375225e-9, 3.9633603e+2
0.089, -2.4311944e-8, -1.3720314e-9, 3.9666937e+2
0.090, -2.4476899e-8, -1.3548568e-9, 3.9700272e+2
0.091, -2.4783562e-8, -1.3402386e-9, 3.9733606e+2
0.092, -2.4835485e-8, -1.3343274e-9, 3.9766940e+2
0.093, -2.4898432e-8, -1.3626054e-9, 3.9800275e+2
0.094, -2.5255341e-8, -1.3422357e-9, 3.9833609e+2
0.095, -2.5234652e-8, -1.3313718e-9, 3.9866943e+2
0.096, -2.5313255e-8, -1.3078068e-9, 3.9900278e+2
0.097, -2.5550742e-8, -1.3216263e-9, 3.9933612e+2
0.098, -2.5539080e-8, -1.3216263e-9, 3.9966946e+2
0.099, -2.5254703e-8, -1.2907122e-9, 4.0000281e+2
