Dec. 21, 2005   07:44:08
Cyclic Voltammetry
File: d:\ida_biofilms\12_10_18_dphzstar\a_760b\100um_pyo\a_100um_pyo_gc_2.txt
Data Source:  Experiment
Instrument Model:  CHI760E
Header: 
Note: 

Init E (V) = 0.1
High E (V) = 0.1
Low E (V) = -0.5
Init P/N = N
Scan Rate (V/s) = 0.003
Segment = 1
Sample Interval (V) = 0.001
Quiet Time (sec) = 2
Sensitivity (A/V) = 1e-7
2nd E (V) = 0.1
Sens 2 (A/V) = 1e-7

Potential/V, i1/A, i2/A, Time/s

0.100, -9.6553897e-8, -8.5268901e-8, 3.3333334e-1
0.099, -7.9856804e-8, -7.6998958e-8, 6.6666669e-1
0.098, -6.9537585e-8, -7.0518354e-8, 1.0000000e+0
0.097, -6.1781037e-8, -6.5053520e-8, 1.3333334e+0
0.096, -5.5671322e-8, -6.0637362e-8, 1.6666667e+0
0.095, -5.0554686e-8, -5.6752338e-8, 2.0000000e+0
0.094, -4.6128072e-8, -5.3461790e-8, 2.3333333e+0
0.093, -4.2462318e-8, -5.0398906e-8, 2.6666665e+0
0.092, -3.9267231e-8, -4.7757869e-8, 2.9999998e+0
0.091, -3.6247158e-8, -4.5291376e-8, 3.3333330e+0
0.090, -3.3723712e-8, -4.3057575e-8, 3.6666663e+0
0.089, -3.1378239e-8, -4.1019888e-8, 3.9999995e+0
0.088, -2.9277921e-8, -3.9167279e-8, 4.3333330e+0
0.087, -2.7531636e-8, -3.7475875e-8, 4.6666665e+0
0.086, -2.5837917e-8, -3.5894068e-8, 5.0000000e+0
0.085, -2.4291174e-8, -3.4491670e-8, 5.3333335e+0
0.084, -2.2850198e-8, -3.3156777e-8, 5.6666670e+0
0.083, -2.1492056e-8, -3.1937788e-8, 6.0000005e+0
0.082, -2.0411184e-8, -3.0862189e-8, 6.3333340e+0
0.081, -1.9179096e-8, -2.9806557e-8, 6.6666675e+0
0.080, -1.8337387e-8, -2.8855970e-8, 7.0000010e+0
0.079, -1.7271212e-8, -2.7861768e-8, 7.3333344e+0
0.078, -1.6314633e-8, -2.7017823e-8, 7.6666679e+0
0.077, -1.5486185e-8, -2.6204553e-8, 8.0000010e+0
0.076, -1.4684018e-8, -2.5527477e-8, 8.3333340e+0
0.075, -1.3864038e-8, -2.4836107e-8, 8.6666670e+0
0.074, -1.3172026e-8, -2.4189708e-8, 9.0000000e+0
0.073, -1.2541125e-8, -2.3616479e-8, 9.3333330e+0
0.072, -1.1824828e-8, -2.3091262e-8, 9.6666660e+0
0.071, -1.1226199e-8, -2.2571154e-8, 9.9999990e+0
0.070, -1.0654569e-8, -2.2090829e-8, 1.0333332e+1
0.069, -1.0101870e-8, -2.1588296e-8, 1.0666665e+1
0.068, -9.5546833e-9, -2.1142718e-8, 1.0999998e+1
0.067, -9.0624557e-9, -2.0682682e-8, 1.1333331e+1
0.066, -8.6021794e-9, -2.0277524e-8, 1.1666664e+1
0.065, -8.1041200e-9, -1.9847523e-8, 1.1999997e+1
0.064, -7.6515132e-9, -1.9557715e-8, 1.2333330e+1
0.063, -7.2672046e-9, -1.9197849e-8, 1.2666663e+1
0.062, -6.7170629e-9, -1.8825602e-8, 1.2999996e+1
0.061, -6.4512977e-9, -1.8554326e-8, 1.3333329e+1
0.060, -6.1534204e-9, -1.8228969e-8, 1.3666662e+1
0.059, -5.6160592e-9, -1.7875895e-8, 1.3999995e+1
0.058, -5.3202593e-9, -1.7672038e-8, 1.4333328e+1
0.057, -4.9583972e-9, -1.7316886e-8, 1.4666661e+1
0.056, -4.6429460e-9, -1.7135076e-8, 1.4999994e+1
0.055, -4.3772612e-9, -1.6809000e-8, 1.5333327e+1
0.054, -4.1118957e-9, -1.6612573e-8, 1.5666660e+1
0.053, -3.7124894e-9, -1.6337861e-8, 1.5999993e+1
0.052, -3.4032692e-9, -1.6179696e-8, 1.6333326e+1
0.051, -3.2376755e-9, -1.5883977e-8, 1.6666660e+1
0.050, -2.8347544e-9, -1.5740909e-8, 1.6999994e+1
0.049, -2.7037492e-9, -1.5480737e-8, 1.7333328e+1
0.048, -2.3516327e-9, -1.5313544e-8, 1.7666662e+1
0.047, -2.2198285e-9, -1.5168959e-8, 1.7999996e+1
0.046, -1.7940617e-9, -1.4892010e-8, 1.8333330e+1
0.045, -1.6559468e-9, -1.4780417e-8, 1.8666664e+1
0.044, -1.3984898e-9, -1.4609391e-8, 1.8999998e+1
0.043, -1.1577277e-9, -1.4399943e-8, 1.9333332e+1
0.042, -9.4244768e-10, -1.4280121e-8, 1.9666666e+1
0.041, -8.0457274e-10, -1.4086248e-8, 2.0000000e+1
0.040, -5.4160365e-10, -1.3893175e-8, 2.0333334e+1
0.039, -3.6147146e-10, -1.3807543e-8, 2.0666668e+1
0.038, -2.6169980e-10, -1.3670148e-8, 2.1000002e+1
0.037, -7.3259968e-11, -1.3447758e-8, 2.1333336e+1
0.036, 1.2995791e-10, -1.3362925e-8, 2.1666670e+1
0.035, 2.4035376e-10, -1.3256122e-8, 2.2000004e+1
0.034, 4.7480520e-10, -1.3132148e-8, 2.2333338e+1
0.033, 6.9248163e-10, -1.2931405e-8, 2.2666672e+1
0.032, 7.2986600e-10, -1.2859273e-8, 2.3000006e+1
0.031, 8.5240381e-10, -1.2764853e-8, 2.3333340e+1
0.030, 1.1723282e-9, -1.2605171e-8, 2.3666674e+1
0.029, 1.2042807e-9, -1.2461705e-8, 2.4000008e+1
0.028, 1.3413569e-9, -1.2401234e-8, 2.4333342e+1
0.027, 1.6382754e-9, -1.2332537e-8, 2.4666676e+1
0.026, 1.6267726e-9, -1.2224137e-8, 2.5000010e+1
0.025, 1.7263845e-9, -1.2058623e-8, 2.5333344e+1
0.024, 1.9871169e-9, -1.1945192e-8, 2.5666677e+1
0.023, 2.0865689e-9, -1.1880488e-8, 2.6000011e+1
0.022, 2.1484770e-9, -1.1799808e-8, 2.6333345e+1
0.021, 2.2152578e-9, -1.1681983e-8, 2.6666679e+1
0.020, 2.4193543e-9, -1.1515191e-8, 2.7000013e+1
0.019, 2.5832705e-9, -1.1453842e-8, 2.7333347e+1
0.018, 2.6581992e-9, -1.1396327e-8, 2.7666681e+1
0.017, 2.7778613e-9, -1.1344644e-8, 2.8000015e+1
0.016, 2.8074971e-9, -1.1300231e-8, 2.8333349e+1
0.015, 2.9243634e-9, -1.1170823e-8, 2.8666683e+1
0.014, 3.1173566e-9, -1.1044052e-8, 2.9000017e+1
0.013, 3.1349305e-9, -1.0983662e-8, 2.9333351e+1
0.012, 3.1529837e-9, -1.0931579e-8, 2.9666685e+1
0.011, 3.4829728e-9, -1.0868952e-8, 3.0000019e+1
0.010, 3.4494230e-9, -1.0839955e-8, 3.0333353e+1
0.009, 3.5750758e-9, -1.0769260e-8, 3.0666687e+1
0.008, 3.6319514e-9, -1.0701600e-8, 3.1000021e+1
0.007, 3.6612680e-9, -1.0582817e-8, 3.1333355e+1
0.006, 3.8735921e-9, -1.0489596e-8, 3.1666689e+1
0.005, 3.9582662e-9, -1.0446141e-8, 3.2000023e+1
0.004, 4.0579580e-9, -1.0417224e-8, 3.2333355e+1
0.003, 4.0956620e-9, -1.0361866e-8, 3.2666687e+1
0.002, 4.1352033e-9, -1.0305390e-8, 3.3000019e+1
0.001, 4.3111816e-9, -1.0257382e-8, 3.3333351e+1
-0.000, 4.4301252e-9, -1.0193237e-8, 3.3666683e+1
-0.001, 4.3855510e-9, -1.0052806e-8, 3.4000015e+1
-0.002, 4.6112953e-9, -9.9885806e-9, 3.4333347e+1
-0.003, 4.6010706e-9, -9.9702087e-9, 3.4666679e+1
-0.004, 4.6567479e-9, -9.9176471e-9, 3.5000011e+1
-0.005, 4.8375188e-9, -9.8822586e-9, 3.5333344e+1
-0.006, 4.8685926e-9, -9.8515844e-9, 3.5666676e+1
-0.007, 4.9448796e-9, -9.8060520e-9, 3.6000008e+1
-0.008, 5.0766036e-9, -9.7186614e-9, 3.6333340e+1
-0.009, 5.0952158e-9, -9.6173727e-9, 3.6666672e+1
-0.010, 5.0975326e-9, -9.5581010e-9, 3.7000004e+1
-0.011, 5.2135198e-9, -9.5045802e-9, 3.7333336e+1
-0.012, 5.3534719e-9, -9.4824530e-9, 3.7666668e+1
-0.013, 5.4037974e-9, -9.4623234e-9, 3.8000000e+1
-0.014, 5.4324745e-9, -9.4292520e-9, 3.8333332e+1
-0.015, 5.5761813e-9, -9.4000958e-9, 3.8666664e+1
-0.016, 5.5743437e-9, -9.3827612e-9, 3.8999996e+1
-0.017, 5.5969500e-9, -9.3311590e-9, 3.9333328e+1
-0.018, 5.7209260e-9, -9.2662944e-9, 3.9666660e+1
-0.019, 5.7334670e-9, -9.1810612e-9, 3.9999992e+1
-0.020, 5.8949068e-9, -9.1443955e-9, 4.0333324e+1
-0.021, 6.0394920e-9, -9.0769765e-9, 4.0666656e+1
-0.022, 5.9764660e-9, -9.0447037e-9, 4.0999989e+1
-0.023, 6.0423675e-9, -9.0161061e-9, 4.1333321e+1
-0.024, 6.0986838e-9, -8.9901455e-9, 4.1666653e+1
-0.025, 6.0835066e-9, -8.9498853e-9, 4.1999985e+1
-0.026, 6.1834382e-9, -8.9263201e-9, 4.2333317e+1
-0.027, 6.2674732e-9, -8.9048315e-9, 4.2666649e+1
-0.028, 6.3078129e-9, -8.8899741e-9, 4.2999981e+1
-0.029, 6.3942447e-9, -8.8551459e-9, 4.3333313e+1
-0.030, 6.4684542e-9, -8.8377323e-9, 4.3666645e+1
-0.031, 6.5703825e-9, -8.7867678e-9, 4.3999977e+1
-0.032, 6.5726997e-9, -8.7597680e-9, 4.4333309e+1
-0.033, 6.5724599e-9, -8.7288541e-9, 4.4666641e+1
-0.034, 6.6837340e-9, -8.6019227e-9, 4.4999973e+1
-0.035, 6.6662400e-9, -8.5751628e-9, 4.5333305e+1
-0.036, 6.6688761e-9, -8.5316270e-9, 4.5666637e+1
-0.037, 6.7838251e-9, -8.5183665e-9, 4.5999969e+1
-0.038, 6.7525918e-9, -8.4989553e-9, 4.6333302e+1
-0.039, 6.8082691e-9, -8.4760297e-9, 4.6666634e+1
-0.040, 6.9532535e-9, -8.4616509e-9, 4.6999966e+1
-0.041, 6.9403927e-9, -8.4417602e-9, 4.7333298e+1
-0.042, 7.0029400e-9, -8.4122842e-9, 4.7666630e+1
-0.043, 7.0219519e-9, -8.4097280e-9, 4.7999962e+1
-0.044, 7.0327357e-9, -8.3872012e-9, 4.8333294e+1
-0.045, 7.0604540e-9, -8.3715443e-9, 4.8666626e+1
-0.046, 7.0604540e-9, -8.3375955e-9, 4.8999958e+1
-0.047, 7.1159714e-9, -8.2938199e-9, 4.9333290e+1
-0.048, 7.1237998e-9, -8.2736102e-9, 4.9666622e+1
-0.049, 7.1504007e-9, -8.2075484e-9, 4.9999954e+1
-0.050, 7.3641631e-9, -8.1810283e-9, 5.0333286e+1
-0.051, 7.2802075e-9, -8.1203986e-9, 5.0666618e+1
-0.052, 7.3864497e-9, -8.1077767e-9, 5.0999950e+1
-0.053, 7.4290263e-9, -8.0784606e-9, 5.1333282e+1
-0.054, 7.4419670e-9, -8.0401970e-9, 5.1666615e+1
-0.055, 7.4343784e-9, -8.0389198e-9, 5.1999947e+1
-0.056, 7.5277597e-9, -8.0087244e-9, 5.2333279e+1
-0.057, 7.4970847e-9, -7.9931475e-9, 5.2666611e+1
-0.058, 7.5055526e-9, -7.9761326e-9, 5.2999943e+1
-0.059, 7.5512450e-9, -7.9724582e-9, 5.3333275e+1
-0.060, 7.4859816e-9, -7.9532070e-9, 5.3666607e+1
-0.061, 7.5600308e-9, -7.9302014e-9, 5.3999939e+1
-0.062, 7.5371061e-9, -7.9218134e-9, 5.4333271e+1
-0.063, 7.6870430e-9, -7.9095912e-9, 5.4666603e+1
-0.064, 7.5980555e-9, -7.8832310e-9, 5.4999935e+1
-0.065, 7.5949398e-9, -7.8567899e-9, 5.5333267e+1
-0.066, 7.8285121e-9, -7.8597457e-9, 5.5666599e+1
-0.067, 7.5828774e-9, -7.7734743e-9, 5.5999931e+1
-0.068, 7.7627709e-9, -7.7483913e-9, 5.6333263e+1
-0.069, 7.7982376e-9, -7.7085307e-9, 5.6666595e+1
-0.070, 7.7436786e-9, -7.7025399e-9, 5.6999928e+1
-0.071, 7.9268467e-9, -7.6458235e-9, 5.7333260e+1
-0.072, 7.8801152e-9, -7.6002920e-9, 5.7666592e+1
-0.073, 7.9066362e-9, -7.5826376e-9, 5.7999924e+1
-0.074, 7.9509705e-9, -7.5941404e-9, 5.8333256e+1
-0.075, 7.9151832e-9, -7.5583539e-9, 5.8666588e+1
-0.076, 7.9662277e-9, -7.5347897e-9, 5.8999920e+1
-0.077, 8.0139966e-9, -7.5421376e-9, 5.9333252e+1
-0.078, 7.9885139e-9, -7.5214492e-9, 5.9666584e+1
-0.079, 8.0094438e-9, -7.5031554e-9, 5.9999916e+1
-0.080, 8.0032123e-9, -7.5024378e-9, 6.0333248e+1
-0.081, 8.0199873e-9, -7.4925319e-9, 6.0666580e+1
-0.082, 8.0403577e-9, -7.4682482e-9, 6.0999912e+1
-0.083, 8.0457090e-9, -7.4701649e-9, 6.1333244e+1
-0.084, 8.0433127e-9, -7.4626563e-9, 6.1666576e+1
-0.085, 8.0796596e-9, -7.4323809e-9, 6.1999908e+1
-0.086, 8.0524192e-9, -7.4376532e-9, 6.2333241e+1
-0.087, 8.0438722e-9, -7.4211179e-9, 6.2666573e+1
-0.088, 8.0860501e-9, -7.4224764e-9, 6.2999905e+1
-0.089, 8.1106526e-9, -7.4161659e-9, 6.3333237e+1
-0.090, 8.2067499e-9, -7.4065798e-9, 6.3666569e+1
-0.091, 8.1644931e-9, -7.3657604e-9, 6.3999901e+1
-0.092, 8.2140197e-9, -7.3621655e-9, 6.4333237e+1
-0.093, 8.2329512e-9, -7.3785409e-9, 6.4666573e+1
-0.094, 8.1424449e-9, -7.3347666e-9, 6.4999908e+1
-0.095, 8.3563680e-9, -7.2747754e-9, 6.5333244e+1
-0.096, 8.2509244e-9, -7.2600774e-9, 6.5666580e+1
-0.097, 8.2917442e-9, -7.2401867e-9, 6.5999916e+1
-0.098, 8.4068521e-9, -7.1946546e-9, 6.6333252e+1
-0.099, 8.2752081e-9, -7.1805957e-9, 6.6666588e+1
-0.100, 8.3121936e-9, -7.1501605e-9, 6.6999924e+1
-0.101, 8.4692395e-9, -7.1356223e-9, 6.7333260e+1
-0.102, 8.4075715e-9, -7.1250783e-9, 6.7666595e+1
-0.103, 8.4601339e-9, -7.1050281e-9, 6.7999931e+1
-0.104, 8.5355412e-9, -7.0713981e-9, 6.8333267e+1
-0.105, 8.4600531e-9, -7.0690813e-9, 6.8666603e+1
-0.106, 8.4745917e-9, -7.0659660e-9, 6.8999939e+1
-0.107, 8.4407219e-9, -7.0467143e-9, 6.9333275e+1
-0.108, 8.4599732e-9, -7.0491115e-9, 6.9666611e+1
-0.109, 8.5263547e-9, -7.0247470e-9, 6.9999947e+1
-0.110, 8.5051060e-9, -7.0258657e-9, 7.0333282e+1
-0.111, 8.5282723e-9, -7.0315371e-9, 7.0666618e+1
-0.112, 8.5503986e-9, -7.0118866e-9, 7.0999954e+1
-0.113, 8.5268343e-9, -7.0062147e-9, 7.1333290e+1
-0.114, 8.5895415e-9, -6.9876025e-9, 7.1666626e+1
-0.115, 8.5166896e-9, -6.9820905e-9, 7.1999962e+1
-0.116, 8.5777190e-9, -6.9865638e-9, 7.2333298e+1
-0.117, 8.6014440e-9, -6.9618808e-9, 7.2666634e+1
-0.118, 8.5902592e-9, -6.9635586e-9, 7.2999969e+1
-0.119, 8.6032799e-9, -6.9481412e-9, 7.3333305e+1
-0.120, 8.5918579e-9, -6.9389547e-9, 7.3666641e+1
-0.121, 8.6051983e-9, -6.9342421e-9, 7.3999977e+1
-0.122, 8.7537764e-9, -6.9277712e-9, 7.4333313e+1
-0.123, 8.6695824e-9, -6.9268928e-9, 7.4666649e+1
-0.124, 8.6590370e-9, -6.9208221e-9, 7.4999985e+1
-0.125, 8.7306109e-9, -6.9069221e-9, 7.5333321e+1
-0.126, 8.7056886e-9, -6.9139521e-9, 7.5666656e+1
-0.127, 8.8591401e-9, -6.9077211e-9, 7.5999992e+1
-0.128, 8.8346965e-9, -6.8798429e-9, 7.6333328e+1
-0.129, 8.7449097e-9, -6.8599522e-9, 7.6666664e+1
-0.130, 8.8883763e-9, -6.8944610e-9, 7.7000000e+1
-0.131, 8.9336698e-9, -6.8593935e-9, 7.7333336e+1
-0.132, 8.7914005e-9, -6.8433366e-9, 7.7666672e+1
-0.133, 8.9752072e-9, -6.8315149e-9, 7.8000008e+1
-0.134, 8.8827052e-9, -6.8138606e-9, 7.8333344e+1
-0.135, 8.9470893e-9, -6.7657724e-9, 7.8666679e+1
-0.136, 8.9979739e-9, -6.8188131e-9, 7.9000015e+1
-0.137, 8.9919023e-9, -6.7780741e-9, 7.9333351e+1
-0.138, 8.9694563e-9, -6.7775949e-9, 7.9666687e+1
-0.139, 8.9755270e-9, -6.7080981e-9, 8.0000023e+1
-0.140, 9.0184233e-9, -6.7396515e-9, 8.0333359e+1
-0.141, 8.9885477e-9, -6.7221575e-9, 8.0666695e+1
-0.142, 9.0292875e-9, -6.6759056e-9, 8.1000031e+1
-0.143, 9.0312842e-9, -6.6770243e-9, 8.1333366e+1
-0.144, 9.0514138e-9, -6.6595303e-9, 8.1666702e+1
-0.145, 9.0391126e-9, -6.6491457e-9, 8.2000038e+1
-0.146, 9.1596526e-9, -6.6536190e-9, 8.2333374e+1
-0.147, 9.0552490e-9, -6.6273387e-9, 8.2666710e+1
-0.148, 9.1285797e-9, -6.6142372e-9, 8.3000046e+1
-0.149, 9.2679722e-9, -6.6131189e-9, 8.3333382e+1
-0.150, 9.2239576e-9, -6.5981816e-9, 8.3666718e+1
-0.151, 9.2218011e-9, -6.5933086e-9, 8.4000053e+1
-0.152, 9.4064063e-9, -6.5631935e-9, 8.4333389e+1
-0.153, 9.3296402e-9, -6.5822050e-9, 8.4666725e+1
-0.154, 9.3994563e-9, -6.5757351e-9, 8.5000061e+1
-0.155, 9.3548831e-9, -6.5691048e-9, 8.5333397e+1
-0.156, 9.3892325e-9, -6.5617556e-9, 8.5666733e+1
-0.157, 9.4514592e-9, -6.5603176e-9, 8.6000069e+1
-0.158, 9.4011341e-9, -6.5484151e-9, 8.6333405e+1
-0.159, 9.4886836e-9, -6.5575221e-9, 8.6666740e+1
-0.160, 9.4850092e-9, -6.5500134e-9, 8.7000076e+1
-0.161, 9.4802166e-9, -6.5457790e-9, 8.7333412e+1
-0.162, 9.5541868e-9, -6.5486550e-9, 8.7666748e+1
-0.163, 9.5033021e-9, -6.5182202e-9, 8.8000084e+1
-0.164, 9.5357349e-9, -6.5353944e-9, 8.8333420e+1
-0.165, 9.6954169e-9, -6.5246910e-9, 8.8666756e+1
-0.166, 9.5421244e-9, -6.5230927e-9, 8.9000092e+1
-0.167, 9.6687360e-9, -6.5106320e-9, 8.9333427e+1
-0.168, 9.7322417e-9, -6.5024839e-9, 8.9666763e+1
-0.169, 9.8158779e-9, -6.5123089e-9, 9.0000099e+1
-0.170, 9.7478186e-9, -6.5078356e-9, 9.0333435e+1
-0.171, 9.8234665e-9, -6.5102324e-9, 9.0666771e+1
-0.172, 9.8699573e-9, -6.4910606e-9, 9.1000107e+1
-0.173, 9.9611821e-9, -6.4981700e-9, 9.1333443e+1
-0.174, 9.9452055e-9, -6.4761227e-9, 9.1666779e+1
-0.175, 9.9725250e-9, -6.4854691e-9, 9.2000114e+1
-0.176, 9.9735633e-9, -6.4702914e-9, 9.2333450e+1
-0.177, 9.9776374e-9, -6.4790786e-9, 9.2666786e+1
-0.178, 1.0071497e-8, -6.4779604e-9, 9.3000122e+1
-0.179, 1.0058717e-8, -6.4683743e-9, 9.3333458e+1
-0.180, 1.0073335e-8, -6.4786794e-9, 9.3666794e+1
-0.181, 1.0269843e-8, -6.4645405e-9, 9.4000130e+1
-0.182, 1.0210650e-8, -6.4586292e-9, 9.4333466e+1
-0.183, 1.0321286e-8, -6.4548749e-9, 9.4666801e+1
-0.184, 1.0372091e-8, -6.4527179e-9, 9.5000137e+1
-0.185, 1.0349724e-8, -6.4412147e-9, 9.5333473e+1
-0.186, 1.0422256e-8, -6.4313896e-9, 9.5666809e+1
-0.187, 1.0422416e-8, -6.4648598e-9, 9.6000145e+1
-0.188, 1.0454449e-8, -6.4523982e-9, 9.6333481e+1
-0.189, 1.0528738e-8, -6.4518391e-9, 9.6666817e+1
-0.190, 1.0518433e-8, -6.4608656e-9, 9.7000153e+1
-0.191, 1.0591365e-8, -6.4500818e-9, 9.7333488e+1
-0.192, 1.0604626e-8, -6.4488037e-9, 9.7666824e+1
-0.193, 1.0583057e-8, -6.4528778e-9, 9.8000160e+1
-0.194, 1.0738986e-8, -6.4395378e-9, 9.8333496e+1
-0.195, 1.0699763e-8, -6.4302714e-9, 9.8666832e+1
-0.196, 1.0818627e-8, -6.4539156e-9, 9.9000168e+1
-0.197, 1.0897311e-8, -6.4214043e-9, 9.9333504e+1
-0.198, 1.0925908e-8, -6.4293921e-9, 9.9666840e+1
-0.199, 1.0945718e-8, -6.4474457e-9, 1.0000018e+2
-0.200, 1.0956661e-8, -6.4269963e-9, 1.0033351e+2
-0.201, 1.1014256e-8, -6.4412147e-9, 1.0066685e+2
-0.202, 1.1016413e-8, -6.4413750e-9, 1.0100018e+2
-0.203, 1.1032868e-8, -6.4526380e-9, 1.0133352e+2
-0.204, 1.1162675e-8, -6.4563128e-9, 1.0166685e+2
-0.205, 1.0972958e-8, -6.4405756e-9, 1.0200019e+2
-0.206, 1.1303187e-8, -6.4506405e-9, 1.0233353e+2
-0.207, 1.1344964e-8, -6.4546346e-9, 1.0266686e+2
-0.208, 1.1382988e-8, -6.4757235e-9, 1.0300020e+2
-0.209, 1.1417576e-8, -6.4719692e-9, 1.0333353e+2
-0.210, 1.1493544e-8, -6.4753243e-9, 1.0366687e+2
-0.211, 1.1499854e-8, -6.4881052e-9, 1.0400021e+2
-0.212, 1.1656262e-8, -6.4993686e-9, 1.0433354e+2
-0.213, 1.1819379e-8, -6.5141461e-9, 1.0466688e+2
-0.214, 1.1719128e-8, -6.5091141e-9, 1.0500021e+2
-0.215, 1.1845260e-8, -6.5130279e-9, 1.0533355e+2
-0.216, 1.1960210e-8, -6.5433832e-9, 1.0566689e+2
-0.217, 1.1945831e-8, -6.5356343e-9, 1.0600022e+2
-0.218, 1.1941278e-8, -6.5380306e-9, 1.0633356e+2
-0.219, 1.2073642e-8, -6.5590395e-9, 1.0666689e+2
-0.220, 1.2297148e-8, -6.5844419e-9, 1.0700023e+2
-0.221, 1.2361693e-8, -6.5926695e-9, 1.0733356e+2
-0.222, 1.2422482e-8, -6.6099242e-9, 1.0766690e+2
-0.223, 1.2463063e-8, -6.6162347e-9, 1.0800024e+2
-0.224, 1.2563314e-8, -6.6693562e-9, 1.0833357e+2
-0.225, 1.2604373e-8, -6.6948376e-9, 1.0866691e+2
-0.226, 1.2867581e-8, -6.8022783e-9, 1.0900024e+2
-0.227, 1.2896179e-8, -6.8203314e-9, 1.0933358e+2
-0.228, 1.2905126e-8, -6.8786443e-9, 1.0966692e+2
-0.229, 1.3079186e-8, -6.9129937e-9, 1.1000025e+2
-0.230, 1.3168093e-8, -6.9357595e-9, 1.1033359e+2
-0.231, 1.3362125e-8, -6.9610819e-9, 1.1066692e+2
-0.232, 1.3418682e-8, -6.9913568e-9, 1.1100026e+2
-0.233, 1.3476836e-8, -7.0108483e-9, 1.1133360e+2
-0.234, 1.3566941e-8, -7.0591764e-9, 1.1166693e+2
-0.235, 1.3745875e-8, -7.0991168e-9, 1.1200027e+2
-0.236, 1.3892857e-8, -7.1553528e-9, 1.1233360e+2
-0.237, 1.3924490e-8, -7.2937878e-9, 1.1266694e+2
-0.238, 1.4041436e-8, -7.3635236e-9, 1.1300027e+2
-0.239, 1.4371984e-8, -7.4070590e-9, 1.1333361e+2
-0.240, 1.4417756e-8, -7.4557063e-9, 1.1366695e+2
-0.241, 1.4474711e-8, -7.4911739e-9, 1.1400028e+2
-0.242, 1.4693825e-8, -7.5434965e-9, 1.1433362e+2
-0.243, 1.4850793e-8, -7.5849540e-9, 1.1466695e+2
-0.244, 1.4886579e-8, -7.7298594e-9, 1.1500029e+2
-0.245, 1.5130137e-8, -7.8161309e-9, 1.1533363e+2
-0.246, 1.5221200e-8, -7.9127078e-9, 1.1566696e+2
-0.247, 1.5350210e-8, -7.9575209e-9, 1.1600030e+2
-0.248, 1.5435683e-8, -8.0115203e-9, 1.1633363e+2
-0.249, 1.5601435e-8, -8.0724698e-9, 1.1666697e+2
-0.250, 1.5768387e-8, -8.1537088e-9, 1.1700031e+2
-0.251, 1.5856896e-8, -8.3009306e-9, 1.1733364e+2
-0.252, 1.5990297e-8, -8.4000629e-9, 1.1766698e+2
-0.253, 1.6124577e-8, -8.4339318e-9, 1.1800031e+2
-0.254, 1.6292969e-8, -8.4993550e-9, 1.1833365e+2
-0.255, 1.6415425e-8, -8.5545526e-9, 1.1866698e+2
-0.256, 1.6481408e-8, -8.6387475e-9, 1.1900032e+2
-0.257, 1.6637095e-8, -8.8040215e-9, 1.1933366e+2
-0.258, 1.6835282e-8, -8.8809475e-9, 1.1966699e+2
-0.259, 1.6852375e-8, -8.9354266e-9, 1.2000033e+2
-0.260, 1.6947915e-8, -9.0024477e-9, 1.2033366e+2
-0.261, 1.7250983e-8, -9.0211394e-9, 1.2066700e+2
-0.262, 1.7227817e-8, -9.1504671e-9, 1.2100034e+2
-0.263, 1.7337495e-8, -9.2697290e-9, 1.2133367e+2
-0.264, 1.7450448e-8, -9.3619121e-9, 1.2166701e+2
-0.265, 1.7523858e-8, -9.4171106e-9, 1.2200034e+2
-0.266, 1.7707665e-8, -9.4580894e-9, 1.2233368e+2
-0.267, 1.7709182e-8, -9.4999475e-9, 1.2266702e+2
-0.268, 1.7791381e-8, -9.5600186e-9, 1.2300035e+2
-0.269, 1.7859040e-8, -9.6664996e-9, 1.2333369e+2
-0.270, 1.7885560e-8, -9.8090878e-9, 1.2366702e+2
-0.271, 1.8024634e-8, -9.8527826e-9, 1.2400036e+2
-0.272, 1.8240952e-8, -9.8853743e-9, 1.2433369e+2
-0.273, 1.8216587e-8, -9.9490398e-9, 1.2466703e+2
-0.274, 1.8318357e-8, -9.9869837e-9, 1.2500037e+2
-0.275, 1.8312845e-8, -1.0016620e-8, 1.2533370e+2
-0.276, 1.8388254e-8, -1.0085556e-8, 1.2566704e+2
-0.277, 1.8511429e-8, -1.0158248e-8, 1.2600037e+2
-0.278, 1.8430111e-8, -1.0247237e-8, 1.2633371e+2
-0.279, 1.8505039e-8, -1.0337023e-8, 1.2666705e+2
-0.280, 1.8733820e-8, -1.0367298e-8, 1.2700038e+2
-0.281, 1.8667118e-8, -1.0398212e-8, 1.2733372e+2
-0.282, 1.8788858e-8, -1.0442546e-8, 1.2766705e+2
-0.283, 1.8798763e-8, -1.0467390e-8, 1.2800038e+2
-0.284, 1.8792852e-8, -1.0503895e-8, 1.2833371e+2
-0.285, 1.8832871e-8, -1.0538004e-8, 1.2866704e+2
-0.286, 1.8843735e-8, -1.0642329e-8, 1.2900037e+2
-0.287, 1.8848690e-8, -1.0626672e-8, 1.2933369e+2
-0.288, 1.8960122e-8, -1.0736589e-8, 1.2966702e+2
-0.289, 1.9043599e-8, -1.0798497e-8, 1.3000035e+2
-0.290, 1.9200565e-8, -1.0810080e-8, 1.3033368e+2
-0.291, 1.9190580e-8, -1.0839156e-8, 1.3066701e+2
-0.292, 1.9181874e-8, -1.0844988e-8, 1.3100034e+2
-0.293, 1.9270301e-8, -1.0864878e-8, 1.3133366e+2
-0.294, 1.9233797e-8, -1.0870949e-8, 1.3166699e+2
-0.295, 1.9265748e-8, -1.0890281e-8, 1.3200032e+2
-0.296, 1.9291310e-8, -1.0901544e-8, 1.3233365e+2
-0.297, 1.9288755e-8, -1.0950751e-8, 1.3266698e+2
-0.298, 1.9307446e-8, -1.0932378e-8, 1.3300031e+2
-0.299, 1.9301615e-8, -1.0953785e-8, 1.3333363e+2
-0.300, 1.9335085e-8, -1.0960576e-8, 1.3366696e+2
-0.301, 1.9328935e-8, -1.0964730e-8, 1.3400029e+2
-0.302, 1.9403064e-8, -1.0981505e-8, 1.3433362e+2
-0.303, 1.9505233e-8, -1.1017851e-8, 1.3466695e+2
-0.304, 1.9496046e-8, -1.1029513e-8, 1.3500027e+2
-0.305, 1.9549725e-8, -1.1046767e-8, 1.3533360e+2
-0.306, 1.9713562e-8, -1.1056114e-8, 1.3566693e+2
-0.307, 1.9636877e-8, -1.1151492e-8, 1.3600026e+2
-0.308, 1.9720513e-8, -1.1159321e-8, 1.3633359e+2
-0.309, 1.9780023e-8, -1.1198063e-8, 1.3666692e+2
-0.310, 1.9747592e-8, -1.1220349e-8, 1.3700024e+2
-0.311, 1.9756778e-8, -1.1264843e-8, 1.3733357e+2
-0.312, 1.9827633e-8, -1.1280740e-8, 1.3766690e+2
-0.313, 1.9786015e-8, -1.1306462e-8, 1.3800023e+2
-0.314, 1.9847523e-8, -1.1292323e-8, 1.3833356e+2
-0.315, 1.9821643e-8, -1.1326352e-8, 1.3866689e+2
-0.316, 1.9882112e-8, -1.1335618e-8, 1.3900021e+2
-0.317, 1.9914863e-8, -1.1341051e-8, 1.3933354e+2
-0.318, 1.9880835e-8, -1.1339053e-8, 1.3966687e+2
-0.319, 1.9995145e-8, -1.1352314e-8, 1.4000020e+2
-0.320, 2.0048585e-8, -1.1367331e-8, 1.4033353e+2
-0.321, 2.0072710e-8, -1.1373801e-8, 1.4066685e+2
-0.322, 2.0239341e-8, -1.1390417e-8, 1.4100018e+2
-0.323, 2.0210026e-8, -1.1391855e-8, 1.4133351e+2
-0.324, 2.0197245e-8, -1.1409029e-8, 1.4166684e+2
-0.325, 2.0265063e-8, -1.1413742e-8, 1.4200017e+2
-0.326, 2.0257154e-8, -1.1423807e-8, 1.4233350e+2
-0.327, 2.0286231e-8, -1.1422369e-8, 1.4266682e+2
-0.328, 2.0306201e-8, -1.1442340e-8, 1.4300015e+2
-0.329, 2.0269857e-8, -1.1437147e-8, 1.4333348e+2
-0.330, 2.0314349e-8, -1.1461351e-8, 1.4366681e+2
-0.331, 2.0306521e-8, -1.1468621e-8, 1.4400014e+2
-0.332, 2.0414122e-8, -1.1470059e-8, 1.4433347e+2
-0.333, 2.0378813e-8, -1.1482840e-8, 1.4466679e+2
-0.334, 2.0405334e-8, -1.1481322e-8, 1.4500012e+2
-0.335, 2.0536421e-8, -1.1492186e-8, 1.4533345e+2
-0.336, 2.0493763e-8, -1.1520783e-8, 1.4566678e+2
-0.337, 2.0422670e-8, -1.1522061e-8, 1.4600011e+2
-0.338, 2.0713996e-8, -1.1534603e-8, 1.4633344e+2
-0.339, 2.0632516e-8, -1.1515112e-8, 1.4666676e+2
-0.340, 2.0556151e-8, -1.1552656e-8, 1.4700009e+2
-0.341, 2.0772069e-8, -1.1589001e-8, 1.4733342e+2
-0.342, 2.0700735e-8, -1.1589720e-8, 1.4766675e+2
-0.343, 2.0737081e-8, -1.1591078e-8, 1.4800008e+2
-0.344, 2.0709363e-8, -1.1602102e-8, 1.4833340e+2
-0.345, 2.0744430e-8, -1.1605297e-8, 1.4866673e+2
-0.346, 2.0746587e-8, -1.1601783e-8, 1.4900006e+2
-0.347, 2.0786048e-8, -1.1591478e-8, 1.4933339e+2
-0.348, 2.0780536e-8, -1.1642921e-8, 1.4966672e+2
-0.349, 2.0805539e-8, -1.1704829e-8, 1.5000005e+2
-0.350, 2.0823034e-8, -1.1686696e-8, 1.5033337e+2
-0.351, 2.0940139e-8, -1.1707785e-8, 1.5066670e+2
-0.352, 2.0886858e-8, -1.1743571e-8, 1.5100003e+2
-0.353, 2.0835415e-8, -1.1760107e-8, 1.5133336e+2
-0.354, 2.1037593e-8, -1.1753158e-8, 1.5166669e+2
-0.355, 2.1099902e-8, -1.1729992e-8, 1.5200002e+2
-0.356, 2.1020339e-8, -1.1760107e-8, 1.5233334e+2
-0.357, 2.1083126e-8, -1.1795734e-8, 1.5266667e+2
-0.358, 2.1116836e-8, -1.1781595e-8, 1.5300000e+2
-0.359, 2.1110845e-8, -1.1784950e-8, 1.5333333e+2
-0.360, 2.1209818e-8, -1.1804601e-8, 1.5366666e+2
-0.361, 2.1224995e-8, -1.1788305e-8, 1.5399998e+2
-0.362, 2.1189608e-8, -1.1801965e-8, 1.5433331e+2
-0.363, 2.1216129e-8, -1.1830802e-8, 1.5466664e+2
-0.364, 2.1244167e-8, -1.1826409e-8, 1.5499997e+2
-0.365, 2.1243768e-8, -1.1833838e-8, 1.5533330e+2
-0.366, 2.1259105e-8, -1.1833677e-8, 1.5566663e+2
-0.367, 2.1267093e-8, -1.1838631e-8, 1.5599995e+2
-0.368, 2.1299606e-8, -1.1825290e-8, 1.5633328e+2
-0.369, 2.1330280e-8, -1.1862196e-8, 1.5666661e+2
-0.370, 2.1402810e-8, -1.1857402e-8, 1.5699994e+2
-0.371, 2.1442034e-8, -1.1862435e-8, 1.5733327e+2
-0.372, 2.1333394e-8, -1.1840627e-8, 1.5766660e+2
-0.373, 2.1458808e-8, -1.1842065e-8, 1.5799992e+2
-0.374, 2.1483732e-8, -1.1858281e-8, 1.5833325e+2
-0.375, 2.1545238e-8, -1.1845421e-8, 1.5866658e+2
-0.376, 2.1477899e-8, -1.1860038e-8, 1.5899991e+2
-0.377, 2.1574715e-8, -1.1896224e-8, 1.5933324e+2
-0.378, 2.1690864e-8, -1.1872500e-8, 1.5966656e+2
-0.379, 2.1616014e-8, -1.1894867e-8, 1.5999989e+2
-0.380, 2.1681197e-8, -1.1897743e-8, 1.6033322e+2
-0.381, 2.1716184e-8, -1.1906529e-8, 1.6066655e+2
-0.382, 2.1749576e-8, -1.1924343e-8, 1.6099988e+2
-0.383, 2.1743425e-8, -1.1918512e-8, 1.6133321e+2
-0.384, 2.1771303e-8, -1.1937683e-8, 1.6166653e+2
-0.385, 2.1765473e-8, -1.1932332e-8, 1.6199986e+2
-0.386, 2.1917327e-8, -1.1928417e-8, 1.6233319e+2
-0.387, 2.1843038e-8, -1.1932890e-8, 1.6266652e+2
-0.388, 2.1837046e-8, -1.1939042e-8, 1.6299985e+2
-0.389, 2.1996808e-8, -1.1943355e-8, 1.6333318e+2
-0.390, 2.1971086e-8, -1.1933290e-8, 1.6366650e+2
-0.391, 2.2039703e-8, -1.1948467e-8, 1.6399983e+2
-0.392, 2.2164238e-8, -1.1953899e-8, 1.6433316e+2
-0.393, 2.2117510e-8, -1.1964364e-8, 1.6466649e+2
-0.394, 2.2174383e-8, -1.1953899e-8, 1.6499982e+2
-0.395, 2.2161204e-8, -1.1959331e-8, 1.6533315e+2
-0.396, 2.2191719e-8, -1.1973310e-8, 1.6566647e+2
-0.397, 2.2202103e-8, -1.2007019e-8, 1.6599980e+2
-0.398, 2.2206097e-8, -1.2011093e-8, 1.6633313e+2
-0.399, 2.2283661e-8, -1.1960609e-8, 1.6666646e+2
-0.400, 2.2279906e-8, -1.1997115e-8, 1.6699979e+2
-0.401, 2.2245798e-8, -1.1998073e-8, 1.6733311e+2
-0.402, 2.2372330e-8, -1.2008378e-8, 1.6766644e+2
-0.403, 2.2383993e-8, -1.2056706e-8, 1.6799977e+2
-0.404, 2.2355156e-8, -1.2039371e-8, 1.6833310e+2
-0.405, 2.2489596e-8, -1.2063096e-8, 1.6866643e+2
-0.406, 2.2452690e-8, -1.2047281e-8, 1.6899976e+2
-0.407, 2.2583135e-8, -1.2057505e-8, 1.6933308e+2
-0.408, 2.2574989e-8, -1.2079153e-8, 1.6966641e+2
-0.409, 2.2661739e-8, -1.2118375e-8, 1.6999974e+2
-0.410, 2.2691616e-8, -1.2154801e-8, 1.7033307e+2
-0.411, 2.2672523e-8, -1.2142578e-8, 1.7066640e+2
-0.412, 2.2729798e-8, -1.2166942e-8, 1.7099973e+2
-0.413, 2.2697446e-8, -1.2176208e-8, 1.7133305e+2
-0.414, 2.2704555e-8, -1.2137066e-8, 1.7166638e+2
-0.415, 2.2742420e-8, -1.2095448e-8, 1.7199971e+2
-0.416, 2.2747692e-8, -1.2129878e-8, 1.7233304e+2
-0.417, 2.2728281e-8, -1.2107511e-8, 1.7266637e+2
-0.418, 2.2847782e-8, -1.2148729e-8, 1.7299969e+2
-0.419, 2.2868951e-8, -1.2149448e-8, 1.7333302e+2
-0.420, 2.2862562e-8, -1.2231167e-8, 1.7366635e+2
-0.421, 2.3083512e-8, -1.2257767e-8, 1.7399968e+2
-0.422, 2.2976952e-8, -1.2216549e-8, 1.7433301e+2
-0.423, 2.3101165e-8, -1.2273264e-8, 1.7466634e+2
-0.424, 2.3123773e-8, -1.2240034e-8, 1.7499966e+2
-0.425, 2.3117302e-8, -1.2269190e-8, 1.7533299e+2
-0.426, 2.3112989e-8, -1.2257847e-8, 1.7566632e+2
-0.427, 2.3174737e-8, -1.2271826e-8, 1.7599965e+2
-0.428, 2.3192230e-8, -1.2279575e-8, 1.7633298e+2
-0.429, 2.3215636e-8, -1.2302820e-8, 1.7666631e+2
-0.430, 2.3199101e-8, -1.2288441e-8, 1.7699963e+2
-0.431, 2.3271154e-8, -1.2304977e-8, 1.7733296e+2
-0.432, 2.3241917e-8, -1.2319355e-8, 1.7766629e+2
-0.433, 2.3233449e-8, -1.2302900e-8, 1.7799962e+2
-0.434, 2.3449688e-8, -1.2319835e-8, 1.7833295e+2
-0.435, 2.3357186e-8, -1.2304658e-8, 1.7866628e+2
-0.436, 2.3416696e-8, -1.2317279e-8, 1.7899960e+2
-0.437, 2.3518945e-8, -1.2321513e-8, 1.7933293e+2
-0.438, 2.3523260e-8, -1.2350989e-8, 1.7966626e+2
-0.439, 2.3668962e-8, -1.2343080e-8, 1.7999959e+2
-0.440, 2.3633495e-8, -1.2339486e-8, 1.8033292e+2
-0.441, 2.3666566e-8, -1.2356660e-8, 1.8066624e+2
-0.442, 2.3642443e-8, -1.2340284e-8, 1.8099957e+2
-0.443, 2.3688134e-8, -1.2294433e-8, 1.8133290e+2
-0.444, 2.3728553e-8, -1.2339086e-8, 1.8166623e+2
-0.445, 2.3661533e-8, -1.2360175e-8, 1.8199956e+2
-0.446, 2.3850772e-8, -1.2332936e-8, 1.8233289e+2
-0.447, 2.3936325e-8, -1.2350589e-8, 1.8266621e+2
-0.448, 2.3786628e-8, -1.2371118e-8, 1.8299954e+2
-0.449, 2.3739737e-8, -1.2390371e-8, 1.8333287e+2
-0.450, 2.3972351e-8, -1.2365208e-8, 1.8366620e+2
-0.451, 2.4056067e-8, -1.2378547e-8, 1.8399953e+2
-0.452, 2.3981297e-8, -1.2404749e-8, 1.8433286e+2
-0.453, 2.4140979e-8, -1.2397639e-8, 1.8466618e+2
-0.454, 2.4129397e-8, -1.2435822e-8, 1.8499951e+2
-0.455, 2.4166223e-8, -1.2418329e-8, 1.8533284e+2
-0.456, 2.4213831e-8, -1.2438139e-8, 1.8566617e+2
-0.457, 2.4290598e-8, -1.2423521e-8, 1.8599950e+2
-0.458, 2.4236039e-8, -1.2440855e-8, 1.8633282e+2
-0.459, 2.4234522e-8, -1.2452198e-8, 1.8666615e+2
-0.460, 2.4430070e-8, -1.2445328e-8, 1.8699948e+2
-0.461, 2.4469053e-8, -1.2448924e-8, 1.8733281e+2
-0.462, 2.4492298e-8, -1.2451160e-8, 1.8766614e+2
-0.463, 2.4629454e-8, -1.2457471e-8, 1.8799947e+2
-0.464, 2.4643114e-8, -1.2473846e-8, 1.8833279e+2
-0.465, 2.4654298e-8, -1.2463941e-8, 1.8866612e+2
-0.466, 2.4711492e-8, -1.2497491e-8, 1.8899945e+2
-0.467, 2.4708617e-8, -1.2513707e-8, 1.8933278e+2
-0.468, 2.4721317e-8, -1.2508355e-8, 1.8966611e+2
-0.469, 2.4869657e-8, -1.2531600e-8, 1.8999944e+2
-0.470, 2.4909198e-8, -1.2542864e-8, 1.9033276e+2
-0.471, 2.5052346e-8, -1.2555166e-8, 1.9066609e+2
-0.472, 2.5085496e-8, -1.2614517e-8, 1.9099942e+2
-0.473, 2.5098517e-8, -1.2608366e-8, 1.9133275e+2
-0.474, 2.5152755e-8, -1.2621227e-8, 1.9166608e+2
-0.475, 2.5183750e-8, -1.2656455e-8, 1.9199940e+2
-0.476, 2.5174245e-8, -1.2689765e-8, 1.9233273e+2
-0.477, 2.5261155e-8, -1.2668596e-8, 1.9266606e+2
-0.478, 2.5315952e-8, -1.2740331e-8, 1.9299939e+2
-0.479, 2.5506470e-8, -1.2724194e-8, 1.9333272e+2
-0.480, 2.5544415e-8, -1.2753031e-8, 1.9366605e+2
-0.481, 2.5598412e-8, -1.2758782e-8, 1.9399937e+2
-0.482, 2.5653453e-8, -1.2780191e-8, 1.9433270e+2
-0.483, 2.5658244e-8, -1.2784025e-8, 1.9466603e+2
-0.484, 2.5694749e-8, -1.2797524e-8, 1.9499936e+2
-0.485, 2.5902679e-8, -1.2802318e-8, 1.9533269e+2
-0.486, 2.5919217e-8, -1.2830676e-8, 1.9566602e+2
-0.487, 2.6013717e-8, -1.2830276e-8, 1.9599934e+2
-0.488, 2.6082972e-8, -1.2836907e-8, 1.9633267e+2
-0.489, 2.6124511e-8, -1.2852004e-8, 1.9666600e+2
-0.490, 2.6148873e-8, -1.2875329e-8, 1.9699933e+2
-0.491, 2.6217174e-8, -1.2883397e-8, 1.9733266e+2
-0.492, 2.6236666e-8, -1.2889628e-8, 1.9766599e+2
-0.493, 2.6469678e-8, -1.2904486e-8, 1.9799931e+2
-0.494, 2.6422230e-8, -1.2907921e-8, 1.9833264e+2
-0.495, 2.6583509e-8, -1.2924376e-8, 1.9866597e+2
-0.496, 2.6642541e-8, -1.2921341e-8, 1.9899930e+2
-0.497, 2.6637430e-8, -1.2943068e-8, 1.9933263e+2
-0.498, 2.6792398e-8, -1.2969989e-8, 1.9966595e+2
-0.499, 2.6829463e-8, -1.3015521e-8, 1.9999928e+2
