Dec. 21, 2005   08:01:15
Cyclic Voltammetry
File: d:\ida_biofilms\12_10_18_dphzstar\a_760b\100um_pyo\a_100um_pyo_gc_4.txt
Data Source:  Experiment
Instrument Model:  CHI760E
Header: 
Note: 

Init E (V) = 0.1
High E (V) = 0.1
Low E (V) = -0.5
Init P/N = N
Scan Rate (V/s) = 0.003
Segment = 1
Sample Interval (V) = 0.001
Quiet Time (sec) = 2
Sensitivity (A/V) = 1e-7
2nd E (V) = 0.1
Sens 2 (A/V) = 1e-7

Potential/V, i1/A, i2/A, Time/s

0.100, -9.3935796e-8, -8.2640248e-8, 3.3333334e-1
0.099, -7.7393665e-8, -7.4340264e-8, 6.6666669e-1
0.098, -6.7144185e-8, -6.7733374e-8, 1.0000000e+0
0.097, -5.9607707e-8, -6.2444194e-8, 1.3333334e+0
0.096, -5.3496798e-8, -5.7963973e-8, 1.6666667e+0
0.095, -4.8642569e-8, -5.4156519e-8, 2.0000000e+0
0.094, -4.4227054e-8, -5.0758608e-8, 2.3333333e+0
0.093, -4.0714916e-8, -4.7845898e-8, 2.6666665e+0
0.092, -3.7555694e-8, -4.5175945e-8, 2.9999998e+0
0.091, -3.4619500e-8, -4.2774879e-8, 3.3333330e+0
0.090, -3.2126167e-8, -4.0576943e-8, 3.6666663e+0
0.089, -2.9912176e-8, -3.8580154e-8, 3.9999995e+0
0.088, -2.7902445e-8, -3.6735056e-8, 4.3333330e+0
0.087, -2.6113904e-8, -3.5090142e-8, 4.6666665e+0
0.086, -2.4415950e-8, -3.3523669e-8, 5.0000000e+0
0.085, -2.2989271e-8, -3.2141884e-8, 5.3333335e+0
0.084, -2.1525286e-8, -3.0846611e-8, 5.6666670e+0
0.083, -2.0338572e-8, -2.9647115e-8, 6.0000005e+0
0.082, -1.9206176e-8, -2.8499299e-8, 6.3333340e+0
0.081, -1.8040787e-8, -2.7385196e-8, 6.6666675e+0
0.080, -1.7058646e-8, -2.6468719e-8, 7.0000010e+0
0.079, -1.6117408e-8, -2.5596416e-8, 7.3333344e+0
0.078, -1.5092771e-8, -2.4753989e-8, 7.6666679e+0
0.077, -1.4403156e-8, -2.4066130e-8, 8.0000010e+0
0.076, -1.3591881e-8, -2.3304784e-8, 8.3333340e+0
0.075, -1.2746020e-8, -2.2680432e-8, 8.6666670e+0
0.074, -1.2129416e-8, -2.2099377e-8, 9.0000000e+0
0.073, -1.1469357e-8, -2.1483093e-8, 9.3333330e+0
0.072, -1.0786213e-8, -2.0915776e-8, 9.6666660e+0
0.071, -1.0171048e-8, -2.0375220e-8, 9.9999990e+0
0.070, -9.6324078e-9, -1.9850479e-8, 1.0333332e+1
0.069, -9.1072687e-9, -1.9445562e-8, 1.0666665e+1
0.068, -8.6077714e-9, -1.9058936e-8, 1.0999998e+1
0.067, -8.0692919e-9, -1.8650264e-8, 1.1333331e+1
0.066, -7.6333802e-9, -1.8237836e-8, 1.1666664e+1
0.065, -7.1372375e-9, -1.7828686e-8, 1.1999997e+1
0.064, -6.6603469e-9, -1.7480563e-8, 1.2333330e+1
0.063, -6.2479200e-9, -1.7190674e-8, 1.2666663e+1
0.062, -5.7515379e-9, -1.6813155e-8, 1.2999996e+1
0.061, -5.4547793e-9, -1.6525263e-8, 1.3333329e+1
0.060, -5.1091327e-9, -1.6251908e-8, 1.3666662e+1
0.059, -4.6840052e-9, -1.5892843e-8, 1.3999995e+1
0.058, -4.3693529e-9, -1.5695456e-8, 1.4333328e+1
0.057, -3.9852841e-9, -1.5384479e-8, 1.4666661e+1
0.056, -3.7117704e-9, -1.5196997e-8, 1.4999994e+1
0.055, -3.3827399e-9, -1.4892491e-8, 1.5333327e+1
0.054, -3.1797613e-9, -1.4727456e-8, 1.5666660e+1
0.053, -2.8471361e-9, -1.4425185e-8, 1.5999993e+1
0.052, -2.5855249e-9, -1.4277165e-8, 1.6333326e+1
0.051, -2.2663196e-9, -1.3973536e-8, 1.6666660e+1
0.050, -2.0558324e-9, -1.3828072e-8, 1.6999994e+1
0.049, -1.6164856e-9, -1.3618225e-8, 1.7333328e+1
0.048, -1.4141465e-9, -1.3402386e-8, 1.7666662e+1
0.047, -1.2780288e-9, -1.3304371e-8, 1.7999996e+1
0.046, -8.8613145e-10, -1.3028382e-8, 1.8333330e+1
0.045, -7.7972961e-10, -1.2893622e-8, 1.8666664e+1
0.044, -5.2818361e-10, -1.2787619e-8, 1.8999998e+1
0.043, -3.1354275e-10, -1.2522653e-8, 1.9333332e+1
0.042, -2.3733604e-10, -1.2421764e-8, 1.9666666e+1
0.041, 5.2952396e-11, -1.2288521e-8, 2.0000000e+1
0.040, 2.6455779e-10, -1.2114779e-8, 2.0333334e+1
0.039, 3.5961648e-10, -1.1954858e-8, 2.0666668e+1
0.038, 6.3001449e-10, -1.1831202e-8, 2.1000002e+1
0.037, 7.3417961e-10, -1.1678709e-8, 2.1333336e+1
0.036, 9.2829106e-10, -1.1500013e-8, 2.1666670e+1
0.035, 1.1401361e-9, -1.1420213e-8, 2.2000004e+1
0.034, 1.1879849e-9, -1.1321958e-8, 2.2333338e+1
0.033, 1.5144596e-9, -1.1195906e-8, 2.2666672e+1
0.032, 1.6155094e-9, -1.1036303e-8, 2.3000006e+1
0.031, 1.6751805e-9, -1.0939966e-8, 2.3333340e+1
0.030, 1.9250492e-9, -1.0859925e-8, 2.3666674e+1
0.029, 2.0010162e-9, -1.0816071e-8, 2.4000008e+1
0.028, 2.1270687e-9, -1.0650157e-8, 2.4333342e+1
0.027, 2.3393931e-9, -1.0515877e-8, 2.4666676e+1
0.026, 2.4052951e-9, -1.0430004e-8, 2.5000010e+1
0.025, 2.5769600e-9, -1.0373129e-8, 2.5333344e+1
0.024, 2.6797671e-9, -1.0308665e-8, 2.5666677e+1
0.023, 2.7599678e-9, -1.0164320e-8, 2.6000011e+1
0.022, 3.0462621e-9, -1.0032037e-8, 2.6333345e+1
0.021, 2.8646123e-9, -9.9910578e-9, 2.6666679e+1
0.020, 3.1194334e-9, -9.9059037e-9, 2.7000013e+1
0.019, 3.1807024e-9, -9.8484696e-9, 2.7333347e+1
0.018, 3.2597050e-9, -9.7778541e-9, 2.7666681e+1
0.017, 3.5506322e-9, -9.5517105e-9, 2.8000015e+1
0.016, 3.6400196e-9, -9.5227142e-9, 2.8333349e+1
0.015, 3.6120609e-9, -9.4671959e-9, 2.8666683e+1
0.014, 3.8381249e-9, -9.4199066e-9, 2.9000017e+1
0.013, 3.7683088e-9, -9.3737347e-9, 2.9333351e+1
0.012, 3.9978074e-9, -9.2785166e-9, 2.9666685e+1
0.011, 4.1050883e-9, -9.1674810e-9, 3.0000019e+1
0.010, 4.1190673e-9, -9.0824086e-9, 3.0333353e+1
0.009, 4.1869663e-9, -9.0124326e-9, 3.0666687e+1
0.008, 4.3014361e-9, -8.9733705e-9, 3.1000021e+1
0.007, 4.4866808e-9, -8.9184917e-9, 3.1333355e+1
0.006, 4.5591331e-9, -8.8930898e-9, 3.1666689e+1
0.005, 4.6200825e-9, -8.8422052e-9, 3.2000023e+1
0.004, 4.6737627e-9, -8.7532177e-9, 3.2333355e+1
0.003, 4.7603539e-9, -8.6431413e-9, 3.2666687e+1
0.002, 4.8142734e-9, -8.5845082e-9, 3.3000019e+1
0.001, 4.9812252e-9, -8.5209226e-9, 3.3333351e+1
-0.000, 5.0320299e-9, -8.5025507e-9, 3.3666683e+1
-0.001, 5.0475268e-9, -8.4534237e-9, 3.4000015e+1
-0.002, 5.1989018e-9, -8.4344114e-9, 3.4333347e+1
-0.003, 5.2208691e-9, -8.3899181e-9, 3.4666679e+1
-0.004, 5.2726321e-9, -8.3239353e-9, 3.5000011e+1
-0.005, 5.4986162e-9, -8.2707343e-9, 3.5333344e+1
-0.006, 5.5154712e-9, -8.1715230e-9, 3.5666676e+1
-0.007, 5.5807341e-9, -8.1049008e-9, 3.6000008e+1
-0.008, 5.6301808e-9, -8.0592892e-9, 3.6333340e+1
-0.009, 5.6612546e-9, -8.0321296e-9, 3.6666672e+1
-0.010, 5.6960028e-9, -7.9949851e-9, 3.7000004e+1
-0.011, 5.8215761e-9, -7.9794873e-9, 3.7333336e+1
-0.012, 5.8806084e-9, -7.9480147e-9, 3.7666668e+1
-0.013, 6.0395720e-9, -7.9088727e-9, 3.8000000e+1
-0.014, 6.0303060e-9, -7.8533553e-9, 3.8333332e+1
-0.015, 6.1396634e-9, -7.8514386e-9, 3.8666664e+1
-0.016, 6.0950893e-9, -7.6919155e-9, 3.8999996e+1
-0.017, 6.1220096e-9, -7.6471824e-9, 3.9333328e+1
-0.018, 6.3792265e-9, -7.6104367e-9, 3.9666660e+1
-0.019, 6.4268360e-9, -7.5776052e-9, 3.9999992e+1
-0.020, 6.3843393e-9, -7.5442150e-9, 4.0333324e+1
-0.021, 6.5821255e-9, -7.5243243e-9, 4.0666656e+1
-0.022, 6.5577619e-9, -7.5135400e-9, 4.0999989e+1
-0.023, 6.5897137e-9, -7.4836652e-9, 4.1333321e+1
-0.024, 6.6473080e-9, -7.4463609e-9, 4.1666653e+1
-0.025, 6.6513821e-9, -7.4180826e-9, 4.1999985e+1
-0.026, 6.7787136e-9, -7.4062600e-9, 4.2333317e+1
-0.027, 6.7524324e-9, -7.3833339e-9, 4.2666649e+1
-0.028, 6.9193042e-9, -7.3666389e-9, 4.2999981e+1
-0.029, 6.8474106e-9, -7.2532877e-9, 4.3333313e+1
-0.030, 6.9097186e-9, -7.2266868e-9, 4.3666645e+1
-0.031, 7.0509487e-9, -7.1598261e-9, 4.3999977e+1
-0.032, 7.0195547e-9, -7.1011939e-9, 4.4333309e+1
-0.033, 7.0638890e-9, -7.0874542e-9, 4.4666641e+1
-0.034, 7.0701196e-9, -7.0586168e-9, 4.4999973e+1
-0.035, 7.0685222e-9, -7.0370487e-9, 4.5333305e+1
-0.036, 7.1227619e-9, -7.0173978e-9, 4.5666637e+1
-0.037, 7.3782220e-9, -6.9952710e-9, 4.5999969e+1
-0.038, 7.2760540e-9, -6.9999042e-9, 4.6333302e+1
-0.039, 7.3513813e-9, -6.9554904e-9, 4.6666634e+1
-0.040, 7.4341386e-9, -6.9453456e-9, 4.6999966e+1
-0.041, 7.3839734e-9, -6.9277712e-9, 4.7333298e+1
-0.042, 7.4643340e-9, -6.9173067e-9, 4.7666630e+1
-0.043, 7.4969257e-9, -6.8778454e-9, 4.7999962e+1
-0.044, 7.5041946e-9, -6.8557986e-9, 4.8333294e+1
-0.045, 7.5367064e-9, -6.8548398e-9, 4.8666626e+1
-0.046, 7.5274400e-9, -6.8037163e-9, 4.8999958e+1
-0.047, 7.5840756e-9, -6.7171246e-9, 4.9333290e+1
-0.048, 7.5728925e-9, -6.7005894e-9, 4.9666622e+1
-0.049, 7.6251343e-9, -6.6404389e-9, 4.9999954e+1
-0.050, 7.6296081e-9, -6.6290156e-9, 5.0333286e+1
-0.051, 7.6604421e-9, -6.5941870e-9, 5.0666618e+1
-0.052, 7.7217903e-9, -6.5818058e-9, 5.0999950e+1
-0.053, 7.8548732e-9, -6.5659895e-9, 5.1333282e+1
-0.054, 7.7804234e-9, -6.5571228e-9, 5.1666615e+1
-0.055, 7.8597457e-9, -6.5222943e-9, 5.1999947e+1
-0.056, 7.9245295e-9, -6.5222143e-9, 5.2333279e+1
-0.057, 7.9075155e-9, -6.4980106e-9, 5.2666611e+1
-0.058, 7.9716598e-9, -6.4798775e-9, 5.2999943e+1
-0.059, 7.9973814e-9, -6.4741261e-9, 5.3333275e+1
-0.060, 7.9686240e-9, -6.4439303e-9, 5.3666607e+1
-0.061, 7.9976212e-9, -6.4257177e-9, 5.3999939e+1
-0.062, 8.0113605e-9, -6.4114989e-9, 5.4333271e+1
-0.063, 8.0391596e-9, -6.3884134e-9, 5.4666603e+1
-0.064, 8.0360438e-9, -6.3381682e-9, 5.4999935e+1
-0.065, 8.0374818e-9, -6.2649965e-9, 5.5333267e+1
-0.066, 8.0873273e-9, -6.3061356e-9, 5.5666599e+1
-0.067, 8.0572917e-9, -6.2654766e-9, 5.5999931e+1
-0.068, 8.0519404e-9, -6.2312071e-9, 5.6333263e+1
-0.069, 8.1830249e-9, -6.1841572e-9, 5.6666595e+1
-0.070, 8.0754248e-9, -6.1667427e-9, 5.6999928e+1
-0.071, 8.1643332e-9, -6.1478911e-9, 5.7333260e+1
-0.072, 8.1929308e-9, -6.1222489e-9, 5.7666592e+1
-0.073, 8.1257499e-9, -6.0835865e-9, 5.7999924e+1
-0.074, 8.2241645e-9, -6.0866219e-9, 5.8333256e+1
-0.075, 8.2022762e-9, -6.0651342e-9, 5.8666588e+1
-0.076, 8.2743297e-9, -6.0628174e-9, 5.8999920e+1
-0.077, 8.3467819e-9, -6.0477197e-9, 5.9333252e+1
-0.078, 8.3384739e-9, -6.0350187e-9, 5.9666584e+1
-0.079, 8.4082101e-9, -6.0224776e-9, 5.9999916e+1
-0.080, 8.4030178e-9, -6.0257523e-9, 6.0333248e+1
-0.081, 8.3276896e-9, -5.9869301e-9, 6.0666580e+1
-0.082, 8.4517460e-9, -5.9973146e-9, 6.0999912e+1
-0.083, 8.3900771e-9, -5.9712737e-9, 6.1333244e+1
-0.084, 8.3960687e-9, -5.9612884e-9, 6.1666576e+1
-0.085, 8.4977572e-9, -5.9602501e-9, 6.1999908e+1
-0.086, 8.4565386e-9, -5.9252621e-9, 6.2333241e+1
-0.087, 8.4556602e-9, -5.9271792e-9, 6.2666573e+1
-0.088, 8.5123757e-9, -5.9003389e-9, 6.2999905e+1
-0.089, 8.4900886e-9, -5.8957856e-9, 6.3333237e+1
-0.090, 8.4911269e-9, -5.8908332e-9, 6.3666569e+1
-0.091, 8.5003142e-9, -5.8989809e-9, 6.3999901e+1
-0.092, 8.5063050e-9, -5.8393099e-9, 6.4333237e+1
-0.093, 8.5060652e-9, -5.7878662e-9, 6.4666573e+1
-0.094, 8.4907281e-9, -5.7989697e-9, 6.4999908e+1
-0.095, 8.5607041e-9, -5.7470468e-9, 6.5333244e+1
-0.096, 8.5285112e-9, -5.6874554e-9, 6.5666580e+1
-0.097, 8.5239584e-9, -5.7107008e-9, 6.5999916e+1
-0.098, 8.5819520e-9, -5.6542246e-9, 6.6333252e+1
-0.099, 8.5389766e-9, -5.6401661e-9, 6.6666588e+1
-0.100, 8.5585468e-9, -5.6256271e-9, 6.6999924e+1
-0.101, 8.6163006e-9, -5.6179585e-9, 6.7333260e+1
-0.102, 8.5755616e-9, -5.6067755e-9, 6.7666595e+1
-0.103, 8.6488132e-9, -5.6121277e-9, 6.7999931e+1
-0.104, 8.6008844e-9, -5.5923968e-9, 6.8333267e+1
-0.105, 8.6080734e-9, -5.5837694e-9, 6.8666603e+1
-0.106, 8.6083132e-9, -5.5911187e-9, 6.8999939e+1
-0.107, 8.6540846e-9, -5.5733054e-9, 6.9333275e+1
-0.108, 8.7021732e-9, -5.5625211e-9, 6.9666611e+1
-0.109, 8.6902707e-9, -5.5523763e-9, 6.9999947e+1
-0.110, 8.6428216e-9, -5.5640390e-9, 7.0333282e+1
-0.111, 8.8031431e-9, -5.5479026e-9, 7.0666618e+1
-0.112, 8.7299723e-9, -5.5407137e-9, 7.0999954e+1
-0.113, 8.7080050e-9, -5.5083618e-9, 7.1333290e+1
-0.114, 8.8118499e-9, -5.5062048e-9, 7.1666626e+1
-0.115, 8.8148857e-9, -5.5094000e-9, 7.1999962e+1
-0.116, 8.8191197e-9, -5.5170690e-9, 7.2333298e+1
-0.117, 8.9049115e-9, -5.4911871e-9, 7.2666634e+1
-0.118, 8.7629628e-9, -5.4869536e-9, 7.2999969e+1
-0.119, 8.8554657e-9, -5.4729745e-9, 7.3333305e+1
-0.120, 8.9418171e-9, -5.4675424e-9, 7.3666641e+1
-0.121, 8.8878975e-9, -5.4577969e-9, 7.3999977e+1
-0.122, 8.9164143e-9, -5.4490896e-9, 7.4333313e+1
-0.123, 8.9798409e-9, -5.4396638e-9, 7.4666649e+1
-0.124, 8.9035543e-9, -5.4202527e-9, 7.4999985e+1
-0.125, 8.9193701e-9, -5.4257647e-9, 7.5333321e+1
-0.126, 8.8961256e-9, -5.4010010e-9, 7.5666656e+1
-0.127, 8.9812788e-9, -5.4136224e-9, 7.5999992e+1
-0.128, 8.9883079e-9, -5.3572262e-9, 7.6333328e+1
-0.129, 8.9819974e-9, -5.3316644e-9, 7.6666664e+1
-0.130, 9.0043644e-9, -5.3664926e-9, 7.7000000e+1
-0.131, 9.0017283e-9, -5.3150488e-9, 7.7333336e+1
-0.132, 8.9843937e-9, -5.3047446e-9, 7.7666672e+1
-0.133, 9.0685894e-9, -5.3158482e-9, 7.8000008e+1
-0.134, 9.0198613e-9, -5.2483484e-9, 7.8333344e+1
-0.135, 9.0089172e-9, -5.2230260e-9, 7.8666679e+1
-0.136, 9.0691481e-9, -5.2307745e-9, 7.9000015e+1
-0.137, 9.0150687e-9, -5.1993014e-9, 7.9333351e+1
-0.138, 9.0435055e-9, -5.2209490e-9, 7.9666687e+1
-0.139, 9.0498959e-9, -5.1606386e-9, 8.0000023e+1
-0.140, 9.1333723e-9, -5.1802895e-9, 8.0333359e+1
-0.141, 9.0626777e-9, -5.1709432e-9, 8.0666695e+1
-0.142, 9.0968673e-9, -5.1448223e-9, 8.1000031e+1
-0.143, 9.1935233e-9, -5.1369939e-9, 8.1333366e+1
-0.144, 9.1665235e-9, -5.1331597e-9, 8.1666702e+1
-0.145, 9.1574970e-9, -5.1282867e-9, 8.2000038e+1
-0.146, 9.2189252e-9, -5.1139084e-9, 8.2333374e+1
-0.147, 9.1743519e-9, -5.1064792e-9, 8.2666710e+1
-0.148, 9.2638990e-9, -5.0954556e-9, 8.3000046e+1
-0.149, 9.3067145e-9, -5.1013669e-9, 8.3333382e+1
-0.150, 9.3206136e-9, -5.0972129e-9, 8.3666718e+1
-0.151, 9.3103898e-9, -5.0967337e-9, 8.4000053e+1
-0.152, 9.3909094e-9, -5.0913815e-9, 8.4333389e+1
-0.153, 9.3651078e-9, -5.0926596e-9, 8.4666725e+1
-0.154, 9.4137560e-9, -5.0762838e-9, 8.5000061e+1
-0.155, 9.3926671e-9, -5.0913016e-9, 8.5333397e+1
-0.156, 9.4827728e-9, -5.0658993e-9, 8.5666733e+1
-0.157, 9.4369215e-9, -5.0682161e-9, 8.6000069e+1
-0.158, 9.4639212e-9, -5.0693343e-9, 8.6333405e+1
-0.159, 9.5100123e-9, -5.0509619e-9, 8.6666740e+1
-0.160, 9.4933172e-9, -5.0566333e-9, 8.7000076e+1
-0.161, 9.5083346e-9, -5.0567928e-9, 8.7333412e+1
-0.162, 9.5428438e-9, -5.0443316e-9, 8.7666748e+1
-0.163, 9.5101722e-9, -5.0366631e-9, 8.8000084e+1
-0.164, 9.5400479e-9, -5.0171720e-9, 8.8333420e+1
-0.165, 9.6708934e-9, -5.0204472e-9, 8.8666756e+1
-0.166, 9.5756745e-9, -5.0317106e-9, 8.9000092e+1
-0.167, 9.5664081e-9, -5.0103823e-9, 8.9333427e+1
-0.168, 9.7067598e-9, -5.0222044e-9, 8.9666763e+1
-0.169, 9.6375823e-9, -5.0224442e-9, 9.0000099e+1
-0.170, 9.7003694e-9, -4.9995181e-9, 9.0333435e+1
-0.171, 9.7132302e-9, -4.9921693e-9, 9.0666771e+1
-0.172, 9.7954285e-9, -4.9874562e-9, 9.1000107e+1
-0.173, 9.8880903e-9, -4.9883346e-9, 9.1333443e+1
-0.174, 9.8102859e-9, -4.9790687e-9, 9.1666779e+1
-0.175, 9.9104573e-9, -4.9883346e-9, 9.2000114e+1
-0.176, 9.9248361e-9, -4.9747548e-9, 9.2333450e+1
-0.177, 9.9181259e-9, -4.9772315e-9, 9.2666786e+1
-0.178, 9.9997637e-9, -4.9725983e-9, 9.3000122e+1
-0.179, 9.9710071e-9, -4.9463975e-9, 9.3333458e+1
-0.180, 1.0006154e-8, -4.9646101e-9, 9.3666794e+1
-0.181, 1.0028042e-8, -4.9531073e-9, 9.4000130e+1
-0.182, 1.0014542e-8, -4.9630127e-9, 9.4333466e+1
-0.183, 1.0018137e-8, -4.9555835e-9, 9.4666801e+1
-0.184, 1.0095781e-8, -4.9593378e-9, 9.5000137e+1
-0.185, 1.0076690e-8, -4.9288231e-9, 9.5333473e+1
-0.186, 1.0153616e-8, -4.9412048e-9, 9.5666809e+1
-0.187, 1.0124858e-8, -4.9433617e-9, 9.6000145e+1
-0.188, 1.0217201e-8, -4.9392077e-9, 9.6333481e+1
-0.189, 1.0296684e-8, -4.9364921e-9, 9.6666817e+1
-0.190, 1.0239408e-8, -4.9229922e-9, 9.7000153e+1
-0.191, 1.0443265e-8, -4.9090927e-9, 9.7333488e+1
-0.192, 1.0393578e-8, -4.9225926e-9, 9.7666824e+1
-0.193, 1.0401008e-8, -4.8961519e-9, 9.8000160e+1
-0.194, 1.0530096e-8, -4.8983084e-9, 9.8333496e+1
-0.195, 1.0465471e-8, -4.8959921e-9, 9.8666832e+1
-0.196, 1.0457883e-8, -4.8930366e-9, 9.9000168e+1
-0.197, 1.0517235e-8, -4.8860866e-9, 9.9333504e+1
-0.198, 1.0545033e-8, -4.8928768e-9, 9.9666840e+1
-0.199, 1.0579383e-8, -4.8875246e-9, 1.0000018e+2
-0.200, 1.0617805e-8, -4.8827316e-9, 1.0033351e+2
-0.201, 1.0589448e-8, -4.8513389e-9, 1.0066685e+2
-0.202, 1.0630267e-8, -4.8713087e-9, 1.0100018e+2
-0.203, 1.0673243e-8, -4.8506199e-9, 1.0133352e+2
-0.204, 1.0736350e-8, -4.8620428e-9, 1.0166685e+2
-0.205, 1.0545673e-8, -4.8541344e-9, 1.0200019e+2
-0.206, 1.0713584e-8, -4.8478239e-9, 1.0233353e+2
-0.207, 1.0836920e-8, -4.8356021e-9, 1.0266686e+2
-0.208, 1.0878937e-8, -4.8479034e-9, 1.0300020e+2
-0.209, 1.0859766e-8, -4.7956612e-9, 1.0333353e+2
-0.210, 1.0974396e-8, -4.8061257e-9, 1.0366687e+2
-0.211, 1.0950031e-8, -4.8620428e-9, 1.0400021e+2
-0.212, 1.0948354e-8, -4.8440696e-9, 1.0433354e+2
-0.213, 1.1014016e-8, -4.7993360e-9, 1.0466688e+2
-0.214, 1.0981744e-8, -4.8391167e-9, 1.0500021e+2
-0.215, 1.1024401e-8, -4.8669153e-9, 1.0533355e+2
-0.216, 1.1100528e-8, -4.8411937e-9, 1.0566689e+2
-0.217, 1.1103404e-8, -4.8583679e-9, 1.0600022e+2
-0.218, 1.1158362e-8, -4.8611639e-9, 1.0633356e+2
-0.219, 1.1243356e-8, -4.8308091e-9, 1.0666689e+2
-0.220, 1.1323396e-8, -4.8461466e-9, 1.0700023e+2
-0.221, 1.1358384e-8, -4.8711493e-9, 1.0733356e+2
-0.222, 1.1372683e-8, -4.8955928e-9, 1.0766690e+2
-0.223, 1.1450886e-8, -4.8682733e-9, 1.0800024e+2
-0.224, 1.1448890e-8, -4.8786579e-9, 1.0833357e+2
-0.225, 1.1465266e-8, -4.9245896e-9, 1.0866691e+2
-0.226, 1.1548342e-8, -4.8963114e-9, 1.0900024e+2
-0.227, 1.1523659e-8, -4.9019833e-9, 1.0933358e+2
-0.228, 1.1617598e-8, -4.9146047e-9, 1.0966692e+2
-0.229, 1.1768814e-8, -4.9294626e-9, 1.1000025e+2
-0.230, 1.1714575e-8, -4.9513496e-9, 1.1033359e+2
-0.231, 1.1824731e-8, -4.9550244e-9, 1.1066692e+2
-0.232, 1.1910683e-8, -4.9666071e-9, 1.1100026e+2
-0.233, 1.1926420e-8, -4.9798676e-9, 1.1133360e+2
-0.234, 1.1969236e-8, -4.9803468e-9, 1.1166693e+2
-0.235, 1.1980979e-8, -4.9849795e-9, 1.1200027e+2
-0.236, 1.2006940e-8, -5.0082254e-9, 1.1233360e+2
-0.237, 1.2166782e-8, -5.0060684e-9, 1.1266694e+2
-0.238, 1.2125963e-8, -5.0285949e-9, 1.1300027e+2
-0.239, 1.2373116e-8, -5.0395390e-9, 1.1333361e+2
-0.240, 1.2379107e-8, -5.0445714e-9, 1.1366695e+2
-0.241, 1.2400755e-8, -5.0629443e-9, 1.1400028e+2
-0.242, 1.2482633e-8, -5.0885061e-9, 1.1433362e+2
-0.243, 1.2481674e-8, -5.0893045e-9, 1.1466695e+2
-0.244, 1.2479518e-8, -5.1156657e-9, 1.1500029e+2
-0.245, 1.2696875e-8, -5.1439435e-9, 1.1533363e+2
-0.246, 1.2636325e-8, -5.1468194e-9, 1.1566696e+2
-0.247, 1.2787541e-8, -5.2075291e-9, 1.1600030e+2
-0.248, 1.2876368e-8, -5.1810884e-9, 1.1633363e+2
-0.249, 1.2845374e-8, -5.3024278e-9, 1.1666697e+2
-0.250, 1.2949938e-8, -5.3307856e-9, 1.1700031e+2
-0.251, 1.2943468e-8, -5.3977263e-9, 1.1733364e+2
-0.252, 1.2972944e-8, -5.4260041e-9, 1.1766698e+2
-0.253, 1.3091727e-8, -5.4415810e-9, 1.1800031e+2
-0.254, 1.3157631e-8, -5.4543619e-9, 1.1833365e+2
-0.255, 1.3324821e-8, -5.4676224e-9, 1.1866698e+2
-0.256, 1.3361166e-8, -5.4917462e-9, 1.1900032e+2
-0.257, 1.3371872e-8, -5.4942229e-9, 1.1933366e+2
-0.258, 1.3446720e-8, -5.5339235e-9, 1.1966699e+2
-0.259, 1.3430903e-8, -5.5433498e-9, 1.2000033e+2
-0.260, 1.3465652e-8, -5.5717875e-9, 1.2033366e+2
-0.261, 1.3580121e-8, -5.5800951e-9, 1.2066700e+2
-0.262, 1.3527958e-8, -5.6019824e-9, 1.2100034e+2
-0.263, 1.3638914e-8, -5.6318581e-9, 1.2133367e+2
-0.264, 1.3806744e-8, -5.6665264e-9, 1.2166701e+2
-0.265, 1.3715920e-8, -5.7122187e-9, 1.2200034e+2
-0.266, 1.3811617e-8, -5.7424137e-9, 1.2233368e+2
-0.267, 1.3867055e-8, -5.7768426e-9, 1.2266702e+2
-0.268, 1.3909552e-8, -5.8197389e-9, 1.2300035e+2
-0.269, 1.3915463e-8, -5.8766143e-9, 1.2333369e+2
-0.270, 1.3931919e-8, -5.8907532e-9, 1.2366702e+2
-0.271, 1.4016832e-8, -5.9178329e-9, 1.2400036e+2
-0.272, 1.3960595e-8, -5.9393210e-9, 1.2433369e+2
-0.273, 1.3994066e-8, -5.9739094e-9, 1.2466703e+2
-0.274, 1.4160937e-8, -5.9689569e-9, 1.2500037e+2
-0.275, 1.4187858e-8, -5.9956373e-9, 1.2533370e+2
-0.276, 1.4260869e-8, -5.9976344e-9, 1.2566704e+2
-0.277, 1.4289387e-8, -6.0173648e-9, 1.2600037e+2
-0.278, 1.4293461e-8, -6.0215188e-9, 1.2633371e+2
-0.279, 1.4339872e-8, -6.0380541e-9, 1.2666705e+2
-0.280, 1.4380531e-8, -6.0427672e-9, 1.2700038e+2
-0.281, 1.4397946e-8, -6.0526726e-9, 1.2733372e+2
-0.282, 1.4405534e-8, -6.0713647e-9, 1.2766705e+2
-0.283, 1.4421511e-8, -6.0775154e-9, 1.2800038e+2
-0.284, 1.4420951e-8, -6.0822285e-9, 1.2833371e+2
-0.285, 1.4442599e-8, -6.0914149e-9, 1.2866704e+2
-0.286, 1.4447792e-8, -6.0938916e-9, 1.2900037e+2
-0.287, 1.4552036e-8, -6.1238468e-9, 1.2933369e+2
-0.288, 1.4610350e-8, -6.0911751e-9, 1.2966702e+2
-0.289, 1.4491806e-8, -6.1422991e-9, 1.3000035e+2
-0.290, 1.4625527e-8, -6.1235270e-9, 1.3033368e+2
-0.291, 1.4417197e-8, -6.2902390e-9, 1.3066701e+2
-0.292, 1.4737282e-8, -6.2093997e-9, 1.3100034e+2
-0.293, 1.4531348e-8, -6.2567689e-9, 1.3133366e+2
-0.294, 1.4697659e-8, -6.2673933e-9, 1.3166699e+2
-0.295, 1.4688394e-8, -6.2223400e-9, 1.3200032e+2
-0.296, 1.4737999e-8, -6.2491003e-9, 1.3233365e+2
-0.297, 1.4819479e-8, -6.3449579e-9, 1.3266698e+2
-0.298, 1.4819719e-8, -6.2966294e-9, 1.3300031e+2
-0.299, 1.4810293e-8, -6.3284227e-9, 1.3333363e+2
-0.300, 1.4820996e-8, -6.3466357e-9, 1.3366696e+2
-0.301, 1.4890812e-8, -6.3041390e-9, 1.3400029e+2
-0.302, 1.4868845e-8, -6.2996657e-9, 1.3433362e+2
-0.303, 1.5016466e-8, -6.3316978e-9, 1.3466695e+2
-0.304, 1.4963346e-8, -6.3814634e-9, 1.3500027e+2
-0.305, 1.5128780e-8, -6.3964016e-9, 1.3533360e+2
-0.306, 1.4855744e-8, -6.4231620e-9, 1.3566693e+2
-0.307, 1.4893929e-8, -6.4153336e-9, 1.3600026e+2
-0.308, 1.4949526e-8, -6.4087033e-9, 1.3633359e+2
-0.309, 1.4983076e-8, -6.4049490e-9, 1.3666692e+2
-0.310, 1.5013430e-8, -6.4184489e-9, 1.3700024e+2
-0.311, 1.4988906e-8, -6.4257981e-9, 1.3733357e+2
-0.312, 1.5215450e-8, -6.4248393e-9, 1.3766690e+2
-0.313, 1.5029647e-8, -6.4386585e-9, 1.3800023e+2
-0.314, 1.5195321e-8, -6.4429724e-9, 1.3833356e+2
-0.315, 1.5181820e-8, -6.4389782e-9, 1.3866689e+2
-0.316, 1.5264098e-8, -6.4561525e-9, 1.3900021e+2
-0.317, 1.5229670e-8, -6.4530372e-9, 1.3933354e+2
-0.318, 1.5298127e-8, -6.4608656e-9, 1.3966687e+2
-0.319, 1.5323369e-8, -6.4601466e-9, 1.4000020e+2
-0.320, 1.5357799e-8, -6.4468062e-9, 1.4033353e+2
-0.321, 1.5325366e-8, -6.4426526e-9, 1.4066685e+2
-0.322, 1.5387116e-8, -6.4617440e-9, 1.4100018e+2
-0.323, 1.5367943e-8, -6.4690138e-9, 1.4133351e+2
-0.324, 1.5382161e-8, -6.4729275e-9, 1.4166684e+2
-0.325, 1.5405648e-8, -6.4863475e-9, 1.4200017e+2
-0.326, 1.5390309e-8, -6.4790786e-9, 1.4233350e+2
-0.327, 1.5406206e-8, -6.4778805e-9, 1.4266682e+2
-0.328, 1.5460685e-8, -6.4882650e-9, 1.4300015e+2
-0.329, 1.5413637e-8, -6.4718089e-9, 1.4333348e+2
-0.330, 1.5447505e-8, -6.4865078e-9, 1.4366681e+2
-0.331, 1.5488643e-8, -6.5015251e-9, 1.4400014e+2
-0.332, 1.5462364e-8, -6.4912209e-9, 1.4433347e+2
-0.333, 1.5588896e-8, -6.4944952e-9, 1.4466679e+2
-0.334, 1.5536173e-8, -6.5037615e-9, 1.4500012e+2
-0.335, 1.5639220e-8, -6.5063182e-9, 1.4533345e+2
-0.336, 1.5588096e-8, -6.5111108e-9, 1.4566678e+2
-0.337, 1.5614297e-8, -6.5055992e-9, 1.4600011e+2
-0.338, 1.5724693e-8, -6.5006467e-9, 1.4633344e+2
-0.339, 1.5714228e-8, -6.5167822e-9, 1.4666676e+2
-0.340, 1.5712391e-8, -6.5000871e-9, 1.4700009e+2
-0.341, 1.5831334e-8, -6.5182202e-9, 1.4733342e+2
-0.342, 1.5746421e-8, -6.5046408e-9, 1.4766675e+2
-0.343, 1.5783964e-8, -6.5154246e-9, 1.4800008e+2
-0.344, 1.5828858e-8, -6.5114305e-9, 1.4833340e+2
-0.345, 1.5801220e-8, -6.5226935e-9, 1.4866673e+2
-0.346, 1.5836845e-8, -6.5012857e-9, 1.4900006e+2
-0.347, 1.5855699e-8, -6.5320394e-9, 1.4933339e+2
-0.348, 1.5847471e-8, -6.5198176e-9, 1.4966672e+2
-0.349, 1.5868160e-8, -6.5182202e-9, 1.5000005e+2
-0.350, 1.5862728e-8, -6.5229333e-9, 1.5033337e+2
-0.351, 1.5887252e-8, -6.5299632e-9, 1.5066670e+2
-0.352, 1.5898594e-8, -6.5376313e-9, 1.5100003e+2
-0.353, 1.5884616e-8, -6.5317201e-9, 1.5133336e+2
-0.354, 1.5941572e-8, -6.5329187e-9, 1.5166669e+2
-0.355, 1.5895079e-8, -6.5298029e-9, 1.5200002e+2
-0.356, 1.5957706e-8, -6.5347558e-9, 1.5233334e+2
-0.357, 1.5999325e-8, -6.5412262e-9, 1.5266667e+2
-0.358, 1.5979673e-8, -6.5402674e-9, 1.5300000e+2
-0.359, 1.5951317e-8, -6.5417858e-9, 1.5333333e+2
-0.360, 1.6116511e-8, -6.5315606e-9, 1.5366666e+2
-0.361, 1.6069940e-8, -6.5433832e-9, 1.5399998e+2
-0.362, 1.6101971e-8, -6.5341168e-9, 1.5433331e+2
-0.363, 1.6116990e-8, -6.5436221e-9, 1.5466664e+2
-0.364, 1.6262932e-8, -6.5535279e-9, 1.5499997e+2
-0.365, 1.6188883e-8, -6.5508119e-9, 1.5533330e+2
-0.366, 1.6143431e-8, -6.5584005e-9, 1.5566663e+2
-0.367, 1.6316692e-8, -6.5512116e-9, 1.5599995e+2
-0.368, 1.6299598e-8, -6.5534480e-9, 1.5633328e+2
-0.369, 1.6288654e-8, -6.5523298e-9, 1.5666661e+2
-0.370, 1.6351761e-8, -6.5675074e-9, 1.5699994e+2
-0.371, 1.6339618e-8, -6.5646315e-9, 1.5733327e+2
-0.372, 1.6317092e-8, -6.5603176e-9, 1.5766660e+2
-0.373, 1.6383952e-8, -6.5650307e-9, 1.5799992e+2
-0.374, 1.6372290e-8, -6.5464980e-9, 1.5833325e+2
-0.375, 1.6366378e-8, -6.5547257e-9, 1.5866658e+2
-0.376, 1.6417424e-8, -6.5591990e-9, 1.5899991e+2
-0.377, 1.6381795e-8, -6.5548065e-9, 1.5933324e+2
-0.378, 1.6429485e-8, -6.5720602e-9, 1.5966656e+2
-0.379, 1.6430445e-8, -6.5763741e-9, 1.5999989e+2
-0.380, 1.6461039e-8, -6.5607169e-9, 1.6033322e+2
-0.381, 1.6497625e-8, -6.5750956e-9, 1.6066655e+2
-0.382, 1.6485883e-8, -6.5810868e-9, 1.6099988e+2
-0.383, 1.6675120e-8, -6.5877965e-9, 1.6133321e+2
-0.384, 1.6566082e-8, -6.5966637e-9, 1.6166653e+2
-0.385, 1.6567919e-8, -6.5726997e-9, 1.6199986e+2
-0.386, 1.6742220e-8, -6.6151165e-9, 1.6233319e+2
-0.387, 1.6767302e-8, -6.5867582e-9, 1.6266652e+2
-0.388, 1.6716738e-8, -6.6148766e-9, 1.6299985e+2
-0.389, 1.6831528e-8, -6.6106431e-9, 1.6333318e+2
-0.390, 1.6781202e-8, -6.5782109e-9, 1.6366650e+2
-0.391, 1.6801572e-8, -6.6037731e-9, 1.6399983e+2
-0.392, 1.6850779e-8, -6.5973031e-9, 1.6433316e+2
-0.393, 1.6853337e-8, -6.6216663e-9, 1.6466649e+2
-0.394, 1.6851338e-8, -6.6365242e-9, 1.6499982e+2
-0.395, 1.6874344e-8, -6.5913119e-9, 1.6533315e+2
-0.396, 1.6873466e-8, -6.6471486e-9, 1.6566647e+2
-0.397, 1.6913646e-8, -6.6421966e-9, 1.6599980e+2
-0.398, 1.6878257e-8, -6.6604890e-9, 1.6633313e+2
-0.399, 1.7064540e-8, -6.6663199e-9, 1.6666646e+2
-0.400, 1.6990331e-8, -6.6827761e-9, 1.6699979e+2
-0.401, 1.7005988e-8, -6.6497052e-9, 1.6733311e+2
-0.402, 1.7188757e-8, -6.6815771e-9, 1.6766644e+2
-0.403, 1.7099529e-8, -6.6615278e-9, 1.6799977e+2
-0.404, 1.7111113e-8, -6.6852519e-9, 1.6833310e+2
-0.405, 1.7292523e-8, -6.6545778e-9, 1.6866643e+2
-0.406, 1.7198023e-8, -6.6671193e-9, 1.6899976e+2
-0.407, 1.7237564e-8, -6.6947581e-9, 1.6933308e+2
-0.408, 1.7327990e-8, -6.6872494e-9, 1.6966641e+2
-0.409, 1.7297156e-8, -6.6801400e-9, 1.6999974e+2
-0.410, 1.7336937e-8, -6.7434858e-9, 1.7033307e+2
-0.411, 1.7335019e-8, -6.7121722e-9, 1.7066640e+2
-0.412, 1.7352834e-8, -6.7380532e-9, 1.7099973e+2
-0.413, 1.7365613e-8, -6.7328609e-9, 1.7133305e+2
-0.414, 1.7370006e-8, -6.6799797e-9, 1.7166638e+2
-0.415, 1.7435669e-8, -6.7354970e-9, 1.7199971e+2
-0.416, 1.7416179e-8, -6.7091368e-9, 1.7233304e+2
-0.417, 1.7439824e-8, -6.7265504e-9, 1.7266637e+2
-0.418, 1.7513633e-8, -6.7491568e-9, 1.7299969e+2
-0.419, 1.7560284e-8, -6.7629764e-9, 1.7333302e+2
-0.420, 1.7582332e-8, -6.7757577e-9, 1.7366635e+2
-0.421, 1.7710621e-8, -6.7556276e-9, 1.7399968e+2
-0.422, 1.7739618e-8, -6.7631363e-9, 1.7433301e+2
-0.423, 1.7658937e-8, -6.7833463e-9, 1.7466634e+2
-0.424, 1.7844741e-8, -6.7863817e-9, 1.7499966e+2
-0.425, 1.7763982e-8, -6.8061921e-9, 1.7533299e+2
-0.426, 1.7802005e-8, -6.8553994e-9, 1.7566632e+2
-0.427, 1.7755355e-8, -6.8028370e-9, 1.7599965e+2
-0.428, 1.7743453e-8, -6.8670616e-9, 1.7633298e+2
-0.429, 1.7847377e-8, -6.8323138e-9, 1.7666631e+2
-0.430, 1.7835953e-8, -6.8417392e-9, 1.7699963e+2
-0.431, 1.7877891e-8, -6.8611503e-9, 1.7733296e+2
-0.432, 1.7888516e-8, -6.8668227e-9, 1.7766629e+2
-0.433, 1.7894665e-8, -6.8725736e-9, 1.7799962e+2
-0.434, 1.8104673e-8, -6.8741710e-9, 1.7833295e+2
-0.435, 1.8030384e-8, -6.8664225e-9, 1.7866628e+2
-0.436, 1.8040369e-8, -6.8845556e-9, 1.7899960e+2
-0.437, 1.8168659e-8, -6.8831176e-9, 1.7933293e+2
-0.438, 1.8154042e-8, -6.8814403e-9, 1.7966626e+2
-0.439, 1.8210198e-8, -6.8865531e-9, 1.7999959e+2
-0.440, 1.8275381e-8, -6.9148309e-9, 1.8033292e+2
-0.441, 1.8294873e-8, -6.9149904e-9, 1.8066624e+2
-0.442, 1.8320193e-8, -6.8923041e-9, 1.8099957e+2
-0.443, 1.8326505e-8, -6.8908661e-9, 1.8133290e+2
-0.444, 1.8332177e-8, -6.8956592e-9, 1.8166623e+2
-0.445, 1.8328581e-8, -6.9075616e-9, 1.8199956e+2
-0.446, 1.8366846e-8, -6.9192239e-9, 1.8233289e+2
-0.447, 1.8460067e-8, -6.9063635e-9, 1.8266621e+2
-0.448, 1.8390091e-8, -6.9161090e-9, 1.8299954e+2
-0.449, 1.8486027e-8, -6.9371180e-9, 1.8333287e+2
-0.450, 1.8637163e-8, -6.9318453e-9, 1.8366620e+2
-0.451, 1.8565350e-8, -6.9286505e-9, 1.8399953e+2
-0.452, 1.8636285e-8, -6.9357595e-9, 1.8433286e+2
-0.453, 1.8769846e-8, -6.9415913e-9, 1.8466618e+2
-0.454, 1.8799161e-8, -6.9538126e-9, 1.8499951e+2
-0.455, 1.8745162e-8, -6.9380759e-9, 1.8533284e+2
-0.456, 1.8786940e-8, -6.9444663e-9, 1.8566617e+2
-0.457, 1.8802357e-8, -6.9444663e-9, 1.8599950e+2
-0.458, 1.8815697e-8, -6.9551707e-9, 1.8633282e+2
-0.459, 1.8864904e-8, -6.9546120e-9, 1.8666615e+2
-0.460, 1.8898136e-8, -6.9803336e-9, 1.8699948e+2
-0.461, 1.8941432e-8, -6.9789752e-9, 1.8733281e+2
-0.462, 1.9024586e-8, -6.9764989e-9, 1.8766614e+2
-0.463, 1.9107265e-8, -6.9799344e-9, 1.8799947e+2
-0.464, 1.9171489e-8, -6.9868036e-9, 1.8833279e+2
-0.465, 1.9166457e-8, -6.9856054e-9, 1.8866612e+2
-0.466, 1.9272699e-8, -7.0083717e-9, 1.8899945e+2
-0.467, 1.9290910e-8, -6.9943926e-9, 1.8933278e+2
-0.468, 1.9304490e-8, -6.9862449e-9, 1.8966611e+2
-0.469, 1.9337881e-8, -7.0296995e-9, 1.8999944e+2
-0.470, 1.9368477e-8, -6.9997443e-9, 1.9033276e+2
-0.471, 1.9401545e-8, -7.0443185e-9, 1.9066609e+2
-0.472, 1.9559712e-8, -7.0576585e-9, 1.9099942e+2
-0.473, 1.9534388e-8, -7.0241080e-9, 1.9133275e+2
-0.474, 1.9665954e-8, -7.0567796e-9, 1.9166608e+2
-0.475, 1.9715241e-8, -7.0474333e-9, 1.9199940e+2
-0.476, 1.9735051e-8, -7.0848181e-9, 1.9233273e+2
-0.477, 1.9798955e-8, -7.1086230e-9, 1.9266606e+2
-0.478, 1.9791607e-8, -7.0917676e-9, 1.9299939e+2
-0.479, 1.9925409e-8, -7.1034307e-9, 1.9333272e+2
-0.480, 1.9919417e-8, -7.1354629e-9, 1.9366605e+2
-0.481, 1.9933715e-8, -7.1581492e-9, 1.9399937e+2
-0.482, 2.0219689e-8, -7.1480044e-9, 1.9433270e+2
-0.483, 2.0214898e-8, -7.1527171e-9, 1.9466603e+2
-0.484, 2.0273930e-8, -7.2310806e-9, 1.9499936e+2
-0.485, 2.0285192e-8, -7.2143056e-9, 1.9533269e+2
-0.486, 2.0313470e-8, -7.2347555e-9, 1.9566602e+2
-0.487, 2.0342227e-8, -7.2443411e-9, 1.9599934e+2
-0.488, 2.0467242e-8, -7.3008972e-9, 1.9633267e+2
-0.489, 2.0486652e-8, -7.3200681e-9, 1.9666600e+2
-0.490, 2.0636589e-8, -7.3554554e-9, 1.9699933e+2
-0.491, 2.0720385e-8, -7.3628046e-9, 1.9733266e+2
-0.492, 2.0767276e-8, -7.3698341e-9, 1.9766599e+2
-0.493, 2.0779417e-8, -7.3743074e-9, 1.9799931e+2
-0.494, 2.0796671e-8, -7.3763045e-9, 1.9833264e+2
-0.495, 2.0888296e-8, -7.3972339e-9, 1.9866597e+2
-0.496, 2.1065713e-8, -7.4132900e-9, 1.9899930e+2
-0.497, 2.1080330e-8, -7.4197599e-9, 1.9933263e+2
-0.498, 2.1252955e-8, -7.4488367e-9, 1.9966595e+2
-0.499, 2.1265096e-8, -7.4568254e-9, 1.9999928e+2
