Dec. 20, 2005   22:56:28
Cyclic Voltammetry
File: d:\ida_biofilms\12_10_18_dphzstar\a_760b\10um_pyo\a_10um_pyo_gc_2.txt
Data Source:  Experiment
Instrument Model:  CHI760E
Header: 
Note: 

Init E (V) = 0.1
High E (V) = 0.1
Low E (V) = -0.5
Init P/N = N
Scan Rate (V/s) = 0.003
Segment = 1
Sample Interval (V) = 0.001
Quiet Time (sec) = 2
Sensitivity (A/V) = 1e-7
2nd E (V) = 0.1
Sens 2 (A/V) = 1e-7

Potential/V, i1/A, i2/A, Time/s

0.100, -1.0248908e-7, -8.0150990e-8, 3.3333334e-1
0.099, -8.2538101e-8, -7.1219070e-8, 6.6666669e-1
0.098, -7.0040755e-8, -6.4107084e-8, 1.0000000e+0
0.097, -6.0970642e-8, -5.8609899e-8, 1.3333334e+0
0.096, -5.3756889e-8, -5.3950103e-8, 1.6666667e+0
0.095, -4.8113915e-8, -5.0142884e-8, 2.0000000e+0
0.094, -4.3206654e-8, -4.6871584e-8, 2.3333333e+0
0.093, -3.9205322e-8, -4.4134136e-8, 2.6666665e+0
0.092, -3.5683279e-8, -4.1629537e-8, 2.9999998e+0
0.091, -3.2375233e-8, -3.9511647e-8, 3.3333330e+0
0.090, -2.9890771e-8, -3.7589466e-8, 3.6666663e+0
0.089, -2.7477318e-8, -3.5856203e-8, 3.9999995e+0
0.088, -2.5250149e-8, -3.4262971e-8, 4.3333330e+0
0.087, -2.3330601e-8, -3.2855226e-8, 4.6666665e+0
0.086, -2.1571937e-8, -3.1498441e-8, 5.0000000e+0
0.085, -1.9982620e-8, -3.0339525e-8, 5.3333335e+0
0.084, -1.8472067e-8, -2.9180688e-8, 5.6666670e+0
0.083, -1.7131420e-8, -2.8071458e-8, 6.0000005e+0
0.082, -1.5942467e-8, -2.7040109e-8, 6.3333340e+0
0.081, -1.4678108e-8, -2.6137132e-8, 6.6666675e+0
0.080, -1.3635656e-8, -2.5260917e-8, 7.0000010e+0
0.079, -1.2663022e-8, -2.4524569e-8, 7.3333344e+0
0.078, -1.1627123e-8, -2.3745967e-8, 7.6666679e+0
0.077, -1.0900602e-8, -2.3114586e-8, 8.0000010e+0
0.076, -1.0073992e-8, -2.2424093e-8, 8.3333340e+0
0.075, -9.2175050e-9, -2.1794468e-8, 8.6666670e+0
0.074, -8.6192742e-9, -2.1220282e-8, 9.0000000e+0
0.073, -7.8744620e-9, -2.0706887e-8, 9.3333330e+0
0.072, -7.2925270e-9, -2.0179350e-8, 9.6666660e+0
0.071, -6.6911809e-9, -1.9687441e-8, 9.9999990e+0
0.070, -6.0737788e-9, -1.9232118e-8, 1.0333332e+1
0.069, -5.6399441e-9, -1.8770004e-8, 1.0666665e+1
0.068, -4.9905893e-9, -1.8309411e-8, 1.0999998e+1
0.067, -4.6413486e-9, -1.7860717e-8, 1.1333331e+1
0.066, -4.2514481e-9, -1.7505885e-8, 1.1666664e+1
0.065, -3.5437002e-9, -1.7184762e-8, 1.1999997e+1
0.064, -3.3777872e-9, -1.6808441e-8, 1.2333330e+1
0.063, -3.0327001e-9, -1.6390663e-8, 1.2666663e+1
0.062, -2.5044455e-9, -1.6202941e-8, 1.2999996e+1
0.061, -2.2207072e-9, -1.5834130e-8, 1.3333329e+1
0.060, -1.8266531e-9, -1.5468913e-8, 1.3666662e+1
0.059, -1.4055992e-9, -1.5302282e-8, 1.3999995e+1
0.058, -1.2514284e-9, -1.4937863e-8, 1.4333328e+1
0.057, -8.4842749e-10, -1.4745030e-8, 1.4666661e+1
0.056, -5.9823951e-10, -1.4402898e-8, 1.4999994e+1
0.055, -3.6418743e-10, -1.4269257e-8, 1.5333327e+1
0.054, -2.6769080e-11, -1.3913706e-8, 1.5666660e+1
0.053, 1.9833625e-10, -1.3743799e-8, 1.5999993e+1
0.052, 4.2807469e-10, -1.3439770e-8, 1.6333326e+1
0.051, 6.9264139e-10, -1.3332570e-8, 1.6666660e+1
0.050, 7.2635126e-10, -1.3078468e-8, 1.6999994e+1
0.049, 1.1737661e-9, -1.2903048e-8, 1.7333328e+1
0.048, 1.1786389e-9, -1.2718442e-8, 1.7666662e+1
0.047, 1.3885667e-9, -1.2450441e-8, 1.7999996e+1
0.046, 1.6935533e-9, -1.2375352e-8, 1.8333330e+1
0.045, 1.7561801e-9, -1.2119253e-8, 1.8666664e+1
0.044, 2.0093238e-9, -1.1935606e-8, 1.8999998e+1
0.043, 2.2817987e-9, -1.1810433e-8, 1.9333332e+1
0.042, 2.2313138e-9, -1.1524778e-8, 1.9666666e+1
0.041, 2.5963711e-9, -1.1415978e-8, 2.0000000e+1
0.040, 2.6756133e-9, -1.1336977e-8, 2.0333334e+1
0.039, 2.7691542e-9, -1.1166271e-8, 2.0666668e+1
0.038, 2.9597509e-9, -1.0976153e-8, 2.1000002e+1
0.037, 3.1213505e-9, -1.0900026e-8, 2.1333336e+1
0.036, 3.2161693e-9, -1.0805286e-8, 2.1666670e+1
0.035, 3.3315182e-9, -1.0617885e-8, 2.2000004e+1
0.034, 3.5650909e-9, -1.0456286e-8, 2.2333338e+1
0.033, 3.6804393e-9, -1.0365540e-8, 2.2666672e+1
0.032, 3.7465813e-9, -1.0246517e-8, 2.3000006e+1
0.031, 3.7870009e-9, -1.0066465e-8, 2.3333340e+1
0.030, 4.0876738e-9, -9.9525543e-9, 2.3666674e+1
0.029, 4.1757828e-9, -9.8836166e-9, 2.4000008e+1
0.028, 3.7109540e-9, -9.7979047e-9, 2.4333342e+1
0.027, 4.4986628e-9, -9.6158548e-9, 2.4666676e+1
0.026, 4.3818766e-9, -9.4870067e-9, 2.5000010e+1
0.025, 4.7459752e-9, -9.4815746e-9, 2.5333344e+1
0.024, 4.5863726e-9, -9.3691019e-9, 2.5666677e+1
0.023, 4.6299080e-9, -9.3270041e-9, 2.6000011e+1
0.022, 4.7116262e-9, -9.0895176e-9, 2.6333345e+1
0.021, 4.8779389e-9, -9.0162668e-9, 2.6666679e+1
0.020, 4.9872164e-9, -8.9558769e-9, 2.7000013e+1
0.019, 5.0784408e-9, -8.8908534e-9, 2.7333347e+1
0.018, 5.0972129e-9, -8.8394092e-9, 2.7666681e+1
0.017, 5.2160765e-9, -8.6544043e-9, 2.8000015e+1
0.016, 5.2735110e-9, -8.5476035e-9, 2.8333349e+1
0.015, 5.4165783e-9, -8.4949612e-9, 2.8666683e+1
0.014, 5.5414326e-9, -8.4436778e-9, 2.9000017e+1
0.013, 5.5708291e-9, -8.4122052e-9, 2.9333351e+1
0.012, 5.5828910e-9, -8.3205007e-9, 2.9666685e+1
0.011, 5.7343459e-9, -8.2352676e-9, 3.0000019e+1
0.010, 5.6641301e-9, -8.1179214e-9, 3.0333353e+1
0.009, 5.8020051e-9, -8.0264586e-9, 3.0666687e+1
0.008, 5.9259810e-9, -8.0050500e-9, 3.1000021e+1
0.007, 5.9566556e-9, -7.9436218e-9, 3.1333355e+1
0.006, 6.0347793e-9, -7.9061566e-9, 3.1666689e+1
0.005, 6.0693677e-9, -7.8301898e-9, 3.2000023e+1
0.004, 6.0968466e-9, -7.6660340e-9, 3.2333355e+1
0.003, 6.1639471e-9, -7.6078006e-9, 3.2666687e+1
0.002, 6.1500480e-9, -7.5348687e-9, 3.3000019e+1
0.001, 6.4262773e-9, -7.5268805e-9, 3.3333351e+1
-0.000, 6.4171704e-9, -7.4919724e-9, 3.3666683e+1
-0.001, 6.4673356e-9, -7.4450024e-9, 3.4000015e+1
-0.002, 6.6067285e-9, -7.4028255e-9, 3.4333347e+1
-0.003, 6.5822849e-9, -7.3370034e-9, 3.4666679e+1
-0.004, 6.5977819e-9, -7.2916309e-9, 3.5000011e+1
-0.005, 6.6728703e-9, -7.1554336e-9, 3.5333344e+1
-0.006, 6.6680776e-9, -7.0716375e-9, 3.5666676e+1
-0.007, 6.7405299e-9, -7.0641288e-9, 3.6000008e+1
-0.008, 6.7618577e-9, -7.0309780e-9, 3.6333340e+1
-0.009, 6.8692985e-9, -6.9871233e-9, 3.6666672e+1
-0.010, 6.9786559e-9, -6.9725852e-9, 3.7000004e+1
-0.011, 6.9685111e-9, -6.9327242e-9, 3.7333336e+1
-0.012, 7.0305788e-9, -6.8816797e-9, 3.7666668e+1
-0.013, 7.0363297e-9, -6.8364674e-9, 3.8000000e+1
-0.014, 7.0788273e-9, -6.6841337e-9, 3.8333332e+1
-0.015, 7.0983979e-9, -6.7109736e-9, 3.8666664e+1
-0.016, 7.2767730e-9, -6.6087260e-9, 3.8999996e+1
-0.017, 7.0405641e-9, -6.5845214e-9, 3.9333328e+1
-0.018, 7.4303048e-9, -6.5464980e-9, 3.9666660e+1
-0.019, 7.2035218e-9, -6.5500134e-9, 3.9999992e+1
-0.020, 7.3884467e-9, -6.5160632e-9, 4.0333324e+1
-0.021, 7.4484370e-9, -6.4984897e-9, 4.0666656e+1
-0.022, 7.4499549e-9, -6.4457679e-9, 4.0999989e+1
-0.023, 7.4967650e-9, -6.4283543e-9, 4.1333321e+1
-0.024, 7.5024378e-9, -6.3822627e-9, 4.1666653e+1
-0.025, 7.5123419e-9, -6.3282624e-9, 4.1999985e+1
-0.026, 7.5502058e-9, -6.2182663e-9, 4.2333317e+1
-0.027, 7.5518836e-9, -6.1612311e-9, 4.2666649e+1
-0.028, 7.5930222e-9, -6.1113852e-9, 4.2999981e+1
-0.029, 7.6147506e-9, -6.0825482e-9, 4.3333313e+1
-0.030, 7.5910256e-9, -6.0711249e-9, 4.3666645e+1
-0.031, 7.6321642e-9, -6.0454832e-9, 4.3999977e+1
-0.032, 7.6586852e-9, -6.0285483e-9, 4.4333309e+1
-0.033, 7.6620399e-9, -6.0020278e-9, 4.4666641e+1
-0.034, 7.9421039e-9, -5.9636847e-9, 4.4999973e+1
-0.035, 7.7853759e-9, -5.9554570e-9, 4.5333305e+1
-0.036, 7.8925773e-9, -5.9176735e-9, 4.5666637e+1
-0.037, 7.9514493e-9, -5.8589604e-9, 4.5999969e+1
-0.038, 7.7974391e-9, -5.7930585e-9, 4.6333302e+1
-0.039, 7.9196569e-9, -5.7625438e-9, 4.6666634e+1
-0.040, 7.9616740e-9, -5.6887335e-9, 4.6999966e+1
-0.041, 8.0028926e-9, -5.6138050e-9, 4.7333298e+1
-0.042, 7.9958635e-9, -5.6199561e-9, 4.7666630e+1
-0.043, 8.0159932e-9, -5.5949529e-9, 4.7999962e+1
-0.044, 8.0341263e-9, -5.5786571e-9, 4.8333294e+1
-0.045, 8.0267775e-9, -5.5682725e-9, 4.8666626e+1
-0.046, 7.9923490e-9, -5.5632401e-9, 4.8999958e+1
-0.047, 8.0835729e-9, -5.5421516e-9, 4.9333290e+1
-0.048, 8.0621652e-9, -5.5126752e-9, 4.9666622e+1
-0.049, 8.0560145e-9, -5.5125153e-9, 4.9999954e+1
-0.050, 8.1751965e-9, -5.4909477e-9, 5.0333286e+1
-0.051, 8.0872473e-9, -5.4660245e-9, 5.0666618e+1
-0.052, 8.0893248e-9, -5.4252851e-9, 5.0999950e+1
-0.053, 8.2780840e-9, -5.3946110e-9, 5.1333282e+1
-0.054, 8.1401286e-9, -5.3878213e-9, 5.1666615e+1
-0.055, 8.1327798e-9, -5.3820695e-9, 5.1999947e+1
-0.056, 8.1832647e-9, -5.2372449e-9, 5.2333279e+1
-0.057, 8.0657596e-9, -5.2649636e-9, 5.2666611e+1
-0.058, 8.2017175e-9, -5.1717421e-9, 5.2999943e+1
-0.059, 8.1842240e-9, -5.1691060e-9, 5.3333275e+1
-0.060, 8.1880573e-9, -5.1300439e-9, 5.3666607e+1
-0.061, 8.2839158e-9, -5.1058402e-9, 5.3999939e+1
-0.062, 8.1922114e-9, -5.1020859e-9, 5.4333271e+1
-0.063, 8.2913445e-9, -5.0856306e-9, 5.4666603e+1
-0.064, 8.3209795e-9, -5.0778017e-9, 5.4999935e+1
-0.065, 8.2593923e-9, -5.0579114e-9, 5.5333267e+1
-0.066, 8.4586960e-9, -5.0576716e-9, 5.5666599e+1
-0.067, 8.4940828e-9, -5.0214055e-9, 5.5999931e+1
-0.068, 8.2810399e-9, -5.0292339e-9, 5.6333263e+1
-0.069, 8.2496463e-9, -5.0223643e-9, 5.6666595e+1
-0.070, 8.3219387e-9, -4.9772315e-9, 5.6999928e+1
-0.071, 8.2549985e-9, -5.0006363e-9, 5.7333260e+1
-0.072, 8.3999829e-9, -4.9622138e-9, 5.7666592e+1
-0.073, 8.2855927e-9, -4.9389683e-9, 5.7999924e+1
-0.074, 8.3389535e-9, -4.9201163e-9, 5.8333256e+1
-0.075, 8.3764178e-9, -4.9045394e-9, 5.8666588e+1
-0.076, 8.4433580e-9, -4.8463860e-9, 5.8999920e+1
-0.077, 8.4245064e-9, -4.8014930e-9, 5.9333252e+1
-0.078, 8.4372873e-9, -4.7820814e-9, 5.9666584e+1
-0.079, 8.4852161e-9, -4.7346322e-9, 5.9999916e+1
-0.080, 8.4551806e-9, -4.6724846e-9, 6.0333248e+1
-0.081, 8.3226581e-9, -4.7154605e-9, 6.0666580e+1
-0.082, 8.5042275e-9, -4.6733635e-9, 6.0999912e+1
-0.083, 8.4729939e-9, -4.6308664e-9, 6.1333244e+1
-0.084, 8.2468503e-9, -4.6342215e-9, 6.1666576e+1
-0.085, 8.5254763e-9, -4.6176858e-9, 6.1999908e+1
-0.086, 8.4619707e-9, -4.6094581e-9, 6.2333241e+1
-0.087, 8.4353697e-9, -4.6127333e-9, 6.2666573e+1
-0.088, 8.4699590e-9, -4.5905262e-9, 6.2999905e+1
-0.089, 8.3760181e-9, -4.5940411e-9, 6.3333237e+1
-0.090, 8.4202725e-9, -4.5932422e-9, 6.3666569e+1
-0.091, 8.4358494e-9, -4.5690385e-9, 6.3999901e+1
-0.092, 8.4138021e-9, -4.5666417e-9, 6.4333237e+1
-0.093, 8.4628491e-9, -4.5537809e-9, 6.4666573e+1
-0.094, 8.4840179e-9, -4.5371658e-9, 6.4999908e+1
-0.095, 8.4065324e-9, -4.5201509e-9, 6.5333244e+1
-0.096, 8.4947223e-9, -4.5224673e-9, 6.5666580e+1
-0.097, 8.4632488e-9, -4.5059321e-9, 6.5999916e+1
-0.098, 8.5157303e-9, -4.5072102e-9, 6.6333252e+1
-0.099, 8.4860945e-9, -4.4699053e-9, 6.6666588e+1
-0.100, 8.4766683e-9, -4.4701456e-9, 6.6999924e+1
-0.101, 8.5204439e-9, -4.4590416e-9, 6.7333260e+1
-0.102, 8.4729139e-9, -4.4501749e-9, 6.7666595e+1
-0.103, 8.5141334e-9, -4.3892259e-9, 6.7999931e+1
-0.104, 8.5146921e-9, -4.3663797e-9, 6.8333267e+1
-0.105, 8.5045473e-9, -4.3724504e-9, 6.8666603e+1
-0.106, 8.4788256e-9, -4.3376223e-9, 6.8999939e+1
-0.107, 8.5015914e-9, -4.3134185e-9, 6.9333275e+1
-0.108, 8.5360208e-9, -4.3055097e-9, 6.9666611e+1
-0.109, 8.5023109e-9, -4.2851402e-9, 6.9999947e+1
-0.110, 8.4916065e-9, -4.1837711e-9, 7.0333282e+1
-0.111, 8.5329850e-9, -4.2090131e-9, 7.0666618e+1
-0.112, 8.4987155e-9, -4.2036614e-9, 7.0999954e+1
-0.113, 8.5277128e-9, -4.1811350e-9, 7.1333290e+1
-0.114, 8.5399350e-9, -4.1402357e-9, 7.1666626e+1
-0.115, 8.5178877e-9, -4.1393573e-9, 7.1999962e+1
-0.116, 8.5114165e-9, -4.1384784e-9, 7.2333298e+1
-0.117, 8.5358609e-9, -4.1201056e-9, 7.2666634e+1
-0.118, 8.5327452e-9, -4.1192272e-9, 7.2999969e+1
-0.119, 8.5137337e-9, -4.1050079e-9, 7.3333305e+1
-0.120, 8.5360208e-9, -4.0994963e-9, 7.3666641e+1
-0.121, 8.5158103e-9, -4.0925467e-9, 7.3999977e+1
-0.122, 8.5314671e-9, -4.0845585e-9, 7.4333313e+1
-0.123, 8.5206029e-9, -4.0838395e-9, 7.4666649e+1
-0.124, 8.5277128e-9, -4.0691415e-9, 7.4999985e+1
-0.125, 8.5416918e-9, -4.0649875e-9, 7.5333321e+1
-0.126, 8.5214822e-9, -4.0749728e-9, 7.5666656e+1
-0.127, 8.5891410e-9, -4.0708987e-9, 7.5999992e+1
-0.128, 8.5496001e-9, -4.0462953e-9, 7.6333328e+1
-0.129, 8.5295495e-9, -4.0386268e-9, 7.6666664e+1
-0.130, 8.5950527e-9, -4.0339141e-9, 7.7000000e+1
-0.131, 8.5407335e-9, -4.0129051e-9, 7.7333336e+1
-0.132, 8.5192458e-9, -4.0190558e-9, 7.7666672e+1
-0.133, 8.6203746e-9, -3.9957309e-9, 7.8000008e+1
-0.134, 8.5662952e-9, -3.9954111e-9, 7.8333344e+1
-0.135, 8.5821918e-9, -3.9978874e-9, 7.8666679e+1
-0.136, 8.5920968e-9, -3.9589056e-9, 7.9000015e+1
-0.137, 8.5785175e-9, -3.9757602e-9, 7.9333351e+1
-0.138, 8.5611029e-9, -3.9599439e-9, 7.9666687e+1
-0.139, 8.5776390e-9, -3.9451660e-9, 8.0000023e+1
-0.140, 8.6303604e-9, -3.9513166e-9, 8.0333359e+1
-0.141, 8.5722069e-9, -3.9403729e-9, 8.0666695e+1
-0.142, 8.5802752e-9, -3.9124148e-9, 8.1000031e+1
-0.143, 8.6472154e-9, -3.9184056e-9, 8.1333366e+1
-0.144, 8.5927363e-9, -3.8921244e-9, 8.1666702e+1
-0.145, 8.5695708e-9, -3.8251042e-9, 8.2000038e+1
-0.146, 8.7633625e-9, -3.8905270e-9, 8.2333374e+1
-0.147, 8.6008045e-9, -3.8116044e-9, 8.2666710e+1
-0.148, 8.6847596e-9, -3.8263823e-9, 8.3000046e+1
-0.149, 8.7863681e-9, -3.7719032e-9, 8.3333382e+1
-0.150, 8.6242897e-9, -3.7639154e-9, 8.3666718e+1
-0.151, 8.7106411e-9, -3.7509742e-9, 8.4000053e+1
-0.152, 8.7679153e-9, -3.7368353e-9, 8.4333389e+1
-0.153, 8.6660670e-9, -3.7972256e-9, 8.4666725e+1
-0.154, 8.7078451e-9, -3.7115933e-9, 8.5000061e+1
-0.155, 8.7165519e-9, -3.7135102e-9, 8.5333397e+1
-0.156, 8.7932381e-9, -3.6784422e-9, 8.5666733e+1
-0.157, 8.8407672e-9, -3.7282084e-9, 8.6000069e+1
-0.158, 8.7747054e-9, -3.6754866e-9, 8.6333405e+1
-0.159, 8.8850216e-9, -3.6682175e-9, 8.6666740e+1
-0.160, 8.8680867e-9, -3.6615073e-9, 8.7000076e+1
-0.161, 8.8331786e-9, -3.6583920e-9, 8.7333412e+1
-0.162, 8.9565155e-9, -3.6408183e-9, 8.7666748e+1
-0.163, 8.9064303e-9, -3.6359455e-9, 8.8000084e+1
-0.164, 8.8767145e-9, -3.6374632e-9, 8.8333420e+1
-0.165, 8.9993311e-9, -3.6263597e-9, 8.8666756e+1
-0.166, 8.9363850e-9, -3.6180523e-9, 8.9000092e+1
-0.167, 8.9774446e-9, -3.6251617e-9, 8.9333427e+1
-0.168, 9.0037249e-9, -3.6292356e-9, 8.9666763e+1
-0.169, 8.9549976e-9, -3.6189307e-9, 9.0000099e+1
-0.170, 8.9980539e-9, -3.5945669e-9, 9.0333435e+1
-0.171, 9.0101153e-9, -3.6281174e-9, 9.0666771e+1
-0.172, 9.0097956e-9, -3.6162946e-9, 9.1000107e+1
-0.173, 9.0350385e-9, -3.5909724e-9, 9.1333443e+1
-0.174, 9.0250536e-9, -3.6041528e-9, 9.1666779e+1
-0.175, 9.0673904e-9, -3.5960048e-9, 9.2000114e+1
-0.176, 9.0662722e-9, -3.6059100e-9, 9.2333450e+1
-0.177, 9.0634762e-9, -3.5879371e-9, 9.2666786e+1
-0.178, 9.2531947e-9, -3.5695642e-9, 9.3000122e+1
-0.179, 9.1832986e-9, -3.5836232e-9, 9.3333458e+1
-0.180, 9.2413721e-9, -3.5872978e-9, 9.3666794e+1
-0.181, 9.3742143e-9, -3.5742771e-9, 9.4000130e+1
-0.182, 9.2893009e-9, -3.5444816e-9, 9.4333466e+1
-0.183, 9.3361905e-9, -3.5670080e-9, 9.4666801e+1
-0.184, 9.4337258e-9, -3.5529488e-9, 9.5000137e+1
-0.185, 9.2317061e-9, -3.5326588e-9, 9.5333473e+1
-0.186, 9.4571311e-9, -3.5583809e-9, 9.5666809e+1
-0.187, 9.3669454e-9, -3.5412864e-9, 9.6000145e+1
-0.188, 9.4338057e-9, -3.5458394e-9, 9.6333481e+1
-0.189, 9.4819743e-9, -3.5369727e-9, 9.6666817e+1
-0.190, 9.4897228e-9, -3.5366532e-9, 9.7000153e+1
-0.191, 9.5267074e-9, -3.5357743e-9, 9.7333488e+1
-0.192, 9.5189598e-9, -3.5177212e-9, 9.7666824e+1
-0.193, 9.5050599e-9, -3.5164431e-9, 9.8000160e+1
-0.194, 9.5574615e-9, -3.5137273e-9, 9.8333496e+1
-0.195, 9.5809467e-9, -3.5090941e-9, 9.8666832e+1
-0.196, 9.5985202e-9, -3.5068575e-9, 9.9000168e+1
-0.197, 9.7594013e-9, -3.5123691e-9, 9.9333504e+1
-0.198, 9.6526804e-9, -3.5085350e-9, 9.9666840e+1
-0.199, 9.6456505e-9, -3.4828131e-9, 1.0000018e+2
-0.200, 9.8459134e-9, -3.4957539e-9, 1.0033351e+2
-0.201, 9.8341708e-9, -3.4824137e-9, 1.0066685e+2
-0.202, 9.8163566e-9, -3.4832124e-9, 1.0100018e+2
-0.203, 9.8896082e-9, -3.4807361e-9, 1.0133352e+2
-0.204, 9.9569482e-9, -3.4916801e-9, 1.0166685e+2
-0.205, 9.7866408e-9, -3.4760232e-9, 1.0200019e+2
-0.206, 9.9067030e-9, -3.4761030e-9, 1.0233353e+2
-0.207, 9.9970485e-9, -3.4670766e-9, 1.0266686e+2
-0.208, 1.0003679e-8, -3.4880054e-9, 1.0300020e+2
-0.209, 9.9937729e-9, -3.4695529e-9, 1.0333353e+2
-0.210, 1.0099695e-8, -3.4632421e-9, 1.0366687e+2
-0.211, 1.0112476e-8, -3.4635619e-9, 1.0400021e+2
-0.212, 1.0107284e-8, -3.4717098e-9, 1.0433354e+2
-0.213, 1.0328955e-8, -3.4632421e-9, 1.0466688e+2
-0.214, 1.0272639e-8, -3.4846503e-9, 1.0500021e+2
-0.215, 1.0326080e-8, -3.4817749e-9, 1.0533355e+2
-0.216, 1.0406440e-8, -3.4644403e-9, 1.0566689e+2
-0.217, 1.0385351e-8, -3.4721890e-9, 1.0600022e+2
-0.218, 1.0463076e-8, -3.4545351e-9, 1.0633356e+2
-0.219, 1.0465392e-8, -3.4505412e-9, 1.0666689e+2
-0.220, 1.0503975e-8, -3.4772214e-9, 1.0700023e+2
-0.221, 1.0550465e-8, -3.4777008e-9, 1.0733356e+2
-0.222, 1.0531854e-8, -3.4644403e-9, 1.0766690e+2
-0.223, 1.0655110e-8, -3.4943159e-9, 1.0800024e+2
-0.224, 1.0635460e-8, -3.4798575e-9, 1.0833357e+2
-0.225, 1.0636178e-8, -3.4907215e-9, 1.0866691e+2
-0.226, 1.0823419e-8, -3.4876861e-9, 1.0900024e+2
-0.227, 1.0738026e-8, -3.5074965e-9, 1.0933358e+2
-0.228, 1.0863280e-8, -3.4936771e-9, 1.0966692e+2
-0.229, 1.0956581e-8, -3.5220349e-9, 1.1000025e+2
-0.230, 1.0960096e-8, -3.5038219e-9, 1.1033359e+2
-0.231, 1.0960895e-8, -3.5372123e-9, 1.1066692e+2
-0.232, 1.1012898e-8, -3.5257892e-9, 1.1100026e+2
-0.233, 1.1051161e-8, -3.5455998e-9, 1.1133360e+2
-0.234, 1.1060747e-8, -3.5559045e-9, 1.1166693e+2
-0.235, 1.1181288e-8, -3.5484753e-9, 1.1200027e+2
-0.236, 1.1352792e-8, -3.5813865e-9, 1.1233360e+2
-0.237, 1.1371405e-8, -3.5928096e-9, 1.1266694e+2
-0.238, 1.1405594e-8, -3.5939280e-9, 1.1300027e+2
-0.239, 1.1452006e-8, -3.6013570e-9, 1.1333361e+2
-0.240, 1.1482200e-8, -3.6074277e-9, 1.1366695e+2
-0.241, 1.1506644e-8, -3.6238834e-9, 1.1400028e+2
-0.242, 1.1631658e-8, -3.6237235e-9, 1.1433362e+2
-0.243, 1.1583250e-8, -3.6242032e-9, 1.1466695e+2
-0.244, 1.1743093e-8, -3.6329899e-9, 1.1500029e+2
-0.245, 1.1921627e-8, -3.6760457e-9, 1.1533363e+2
-0.246, 1.1927778e-8, -3.6946584e-9, 1.1566696e+2
-0.247, 1.1953659e-8, -3.6955368e-9, 1.1600030e+2
-0.248, 1.2053192e-8, -3.7206997e-9, 1.1633363e+2
-0.249, 1.2034499e-8, -3.7856429e-9, 1.1666697e+2
-0.250, 1.2174771e-8, -3.8564978e-9, 1.1700031e+2
-0.251, 1.2277338e-8, -3.8677608e-9, 1.1733364e+2
-0.252, 1.2327344e-8, -3.8987547e-9, 1.1766698e+2
-0.253, 1.2413376e-8, -3.9287902e-9, 1.1800031e+2
-0.254, 1.2442613e-8, -3.9555501e-9, 1.1833365e+2
-0.255, 1.2475124e-8, -3.9955710e-9, 1.1866698e+2
-0.256, 1.2547257e-8, -4.0157011e-9, 1.1900032e+2
-0.257, 1.2570102e-8, -4.0327954e-9, 1.1933366e+2
-0.258, 1.2775398e-8, -4.0447774e-9, 1.1966699e+2
-0.259, 1.2860951e-8, -4.0646682e-9, 1.2000033e+2
-0.260, 1.2870616e-8, -4.0879935e-9, 1.2033366e+2
-0.261, 1.2938995e-8, -4.0955022e-9, 1.2066700e+2
-0.262, 1.2949538e-8, -4.1051678e-9, 1.2100034e+2
-0.263, 1.2980373e-8, -4.1079637e-9, 1.2133367e+2
-0.264, 1.3115693e-8, -4.1244195e-9, 1.2166701e+2
-0.265, 1.3069840e-8, -4.1375996e-9, 1.2200034e+2
-0.266, 1.3256923e-8, -4.1757828e-9, 1.2233368e+2
-0.267, 1.3321865e-8, -4.1944750e-9, 1.2266702e+2
-0.268, 1.3391363e-8, -4.2162029e-9, 1.2300035e+2
-0.269, 1.3409175e-8, -4.2724393e-9, 1.2333369e+2
-0.270, 1.3424753e-8, -4.3141375e-9, 1.2366702e+2
-0.271, 1.3471164e-8, -4.3187702e-9, 1.2400036e+2
-0.272, 1.3517015e-8, -4.3433737e-9, 1.2433369e+2
-0.273, 1.3567181e-8, -4.4054413e-9, 1.2466703e+2
-0.274, 1.3731177e-8, -4.4511337e-9, 1.2500037e+2
-0.275, 1.3792525e-8, -4.4368349e-9, 1.2533370e+2
-0.276, 1.3835262e-8, -4.4767754e-9, 1.2566704e+2
-0.277, 1.3888543e-8, -4.4770947e-9, 1.2600037e+2
-0.278, 1.3896691e-8, -4.5104054e-9, 1.2633371e+2
-0.279, 1.3902683e-8, -4.5016186e-9, 1.2666705e+2
-0.280, 1.3953726e-8, -4.5275002e-9, 1.2700038e+2
-0.281, 1.3971299e-8, -4.5080890e-9, 1.2733372e+2
-0.282, 1.4057891e-8, -4.5390030e-9, 1.2766705e+2
-0.283, 1.4068994e-8, -4.5559378e-9, 1.2800038e+2
-0.284, 1.4287709e-8, -4.5632871e-9, 1.2833371e+2
-0.285, 1.4283635e-8, -4.5807811e-9, 1.2866704e+2
-0.286, 1.4307760e-8, -4.5669610e-9, 1.2900037e+2
-0.287, 1.4366952e-8, -4.5766266e-9, 1.2933369e+2
-0.288, 1.4393392e-8, -4.5815001e-9, 1.2966702e+2
-0.289, 1.4399223e-8, -4.5784643e-9, 1.3000035e+2
-0.290, 1.4437087e-8, -4.5886890e-9, 1.3033368e+2
-0.291, 1.4458736e-8, -4.5942010e-9, 1.3066701e+2
-0.292, 1.4454980e-8, -4.5924433e-9, 1.3100034e+2
-0.293, 1.4597729e-8, -4.5926032e-9, 1.3133366e+2
-0.294, 1.4550838e-8, -4.6017896e-9, 1.3166699e+2
-0.295, 1.4623690e-8, -4.6073012e-9, 1.3200032e+2
-0.296, 1.4691588e-8, -4.6112953e-9, 1.3233365e+2
-0.297, 1.4719866e-8, -4.6061031e-9, 1.3266698e+2
-0.298, 1.4776023e-8, -4.6115352e-9, 1.3300031e+2
-0.299, 1.4868605e-8, -4.6136117e-9, 1.3333363e+2
-0.300, 1.4862774e-8, -4.6168069e-9, 1.3366696e+2
-0.301, 1.4895766e-8, -4.6138520e-9, 1.3400029e+2
-0.302, 1.4892010e-8, -4.6264725e-9, 1.3433362e+2
-0.303, 1.4950244e-8, -4.6279909e-9, 1.3466695e+2
-0.304, 1.4989066e-8, -4.6529136e-9, 1.3500027e+2
-0.305, 1.4965583e-8, -4.6314255e-9, 1.3533360e+2
-0.306, 1.5044424e-8, -4.6379758e-9, 1.3566693e+2
-0.307, 1.5050416e-8, -4.6484403e-9, 1.3600026e+2
-0.308, 1.5224876e-8, -4.6486801e-9, 1.3633359e+2
-0.309, 1.5293654e-8, -4.6446855e-9, 1.3666692e+2
-0.310, 1.5236699e-8, -4.6652953e-9, 1.3700024e+2
-0.311, 1.5328961e-8, -4.6572270e-9, 1.3733357e+2
-0.312, 1.5316500e-8, -4.6823101e-9, 1.3766690e+2
-0.313, 1.5343899e-8, -4.6791944e-9, 1.3800023e+2
-0.314, 1.5370899e-8, -4.6678514e-9, 1.3833356e+2
-0.315, 1.5368583e-8, -4.7220108e-9, 1.3866689e+2
-0.316, 1.5410521e-8, -4.6667332e-9, 1.3900021e+2
-0.317, 1.5384719e-8, -4.7137831e-9, 1.3933354e+2
-0.318, 1.5398857e-8, -4.6973274e-9, 1.3966687e+2
-0.319, 1.5482891e-8, -4.7041175e-9, 1.4000020e+2
-0.320, 1.5492398e-8, -4.6991646e-9, 1.4033353e+2
-0.321, 1.5500706e-8, -4.7272031e-9, 1.4066685e+2
-0.322, 1.5602074e-8, -4.7238480e-9, 1.4100018e+2
-0.323, 1.5639220e-8, -4.7091500e-9, 1.4133351e+2
-0.324, 1.5585140e-8, -4.7510880e-9, 1.4166684e+2
-0.325, 1.5793631e-8, -4.7361497e-9, 1.4200017e+2
-0.326, 1.5699850e-8, -4.7475730e-9, 1.4233350e+2
-0.327, 1.5763275e-8, -4.7688213e-9, 1.4266682e+2
-0.328, 1.5799221e-8, -4.7732147e-9, 1.4300015e+2
-0.329, 1.5826700e-8, -4.7689008e-9, 1.4333348e+2
-0.330, 1.5818314e-8, -4.7664246e-9, 1.4366681e+2
-0.331, 1.5857935e-8, -4.7388657e-9, 1.4400014e+2
-0.332, 1.5857855e-8, -4.7883919e-9, 1.4433347e+2
-0.333, 1.5897715e-8, -4.8063655e-9, 1.4466679e+2
-0.334, 1.5876628e-8, -4.7814424e-9, 1.4500012e+2
-0.335, 1.5930627e-8, -4.8075637e-9, 1.4533345e+2
-0.336, 1.5880381e-8, -4.8232200e-9, 1.4566678e+2
-0.337, 1.5912573e-8, -4.8295310e-9, 1.4600011e+2
-0.338, 1.5994532e-8, -4.8036495e-9, 1.4633344e+2
-0.339, 1.6037907e-8, -4.8359214e-9, 1.4666676e+2
-0.340, 1.6007233e-8, -4.8287321e-9, 1.4700009e+2
-0.341, 1.6133445e-8, -4.8754627e-9, 1.4733342e+2
-0.342, 1.5981671e-8, -4.8435105e-9, 1.4766675e+2
-0.343, 1.6131128e-8, -4.8850484e-9, 1.4800008e+2
-0.344, 1.6230979e-8, -4.8322470e-9, 1.4833340e+2
-0.345, 1.6118987e-8, -4.8377591e-9, 1.4866673e+2
-0.346, 1.6158609e-8, -4.8365605e-9, 1.4900006e+2
-0.347, 1.6253907e-8, -4.7865547e-9, 1.4933339e+2
-0.348, 1.6254385e-8, -4.8785780e-9, 1.4966672e+2
-0.349, 1.6198628e-8, -4.8713886e-9, 1.5000005e+2
-0.350, 1.6306068e-8, -4.8782582e-9, 1.5033337e+2
-0.351, 1.6249272e-8, -4.8868860e-9, 1.5066670e+2
-0.352, 1.6352478e-8, -4.8547735e-9, 1.5100003e+2
-0.353, 1.6346169e-8, -4.8186672e-9, 1.5133336e+2
-0.354, 1.6593402e-8, -4.8178683e-9, 1.5166669e+2
-0.355, 1.6269803e-8, -4.8410338e-9, 1.5200002e+2
-0.356, 1.6337461e-8, -4.9163620e-9, 1.5233334e+2
-0.357, 1.6375806e-8, -4.9039004e-9, 1.5266667e+2
-0.358, 1.6376365e-8, -4.8951136e-9, 1.5300000e+2
-0.359, 1.6395296e-8, -4.8759419e-9, 1.5333333e+2
-0.360, 1.6407039e-8, -4.9035012e-9, 1.5366666e+2
-0.361, 1.6382435e-8, -4.9420836e-9, 1.5399998e+2
-0.362, 1.6395695e-8, -4.9009445e-9, 1.5433331e+2
-0.363, 1.6439550e-8, -4.8846491e-9, 1.5466664e+2
-0.364, 1.6431722e-8, -4.9191575e-9, 1.5499997e+2
-0.365, 1.6520550e-8, -4.9213944e-9, 1.5533330e+2
-0.366, 1.6471823e-8, -4.9287436e-9, 1.5566663e+2
-0.367, 1.6475337e-8, -4.9217137e-9, 1.5599995e+2
-0.368, 1.6499861e-8, -4.9350541e-9, 1.5633328e+2
-0.369, 1.6535088e-8, -4.9330571e-9, 1.5666661e+2
-0.370, 1.6651155e-8, -4.9330571e-9, 1.5699994e+2
-0.371, 1.6670727e-8, -4.9246696e-9, 1.5733327e+2
-0.372, 1.6635020e-8, -4.9595776e-9, 1.5766660e+2
-0.373, 1.6775770e-8, -4.9638111e-9, 1.5799992e+2
-0.374, 1.6731276e-8, -4.9575806e-9, 1.5833325e+2
-0.375, 1.6766744e-8, -4.9584594e-9, 1.5866658e+2
-0.376, 1.6827055e-8, -4.9709210e-9, 1.5899991e+2
-0.377, 1.6790787e-8, -4.9704414e-9, 1.5933324e+2
-0.378, 1.6825137e-8, -4.9718794e-9, 1.5966656e+2
-0.379, 1.6828812e-8, -4.9646101e-9, 1.5999989e+2
-0.380, 1.6839754e-8, -4.9894533e-9, 1.6033322e+2
-0.381, 1.6852375e-8, -4.9611750e-9, 1.6066655e+2
-0.382, 1.6859646e-8, -4.9856990e-9, 1.6099988e+2
-0.383, 1.6928663e-8, -4.9810658e-9, 1.6133321e+2
-0.384, 1.6886565e-8, -4.9821041e-9, 1.6166653e+2
-0.385, 1.6891198e-8, -4.9911306e-9, 1.6199986e+2
-0.386, 1.7046409e-8, -4.9921693e-9, 1.6233319e+2
-0.387, 1.6980666e-8, -5.0106217e-9, 1.6266652e+2
-0.388, 1.6924190e-8, -4.9995181e-9, 1.6299985e+2
-0.389, 1.7142264e-8, -5.0158939e-9, 1.6333318e+2
-0.390, 1.7140588e-8, -5.0351452e-9, 1.6366650e+2
-0.391, 1.7113827e-8, -5.0360240e-9, 1.6399983e+2
-0.392, 1.7225341e-8, -5.0254796e-9, 1.6433316e+2
-0.393, 1.7204894e-8, -5.0307518e-9, 1.6466649e+2
-0.394, 1.7293400e-8, -5.0316307e-9, 1.6499982e+2
-0.395, 1.7312571e-8, -5.0293938e-9, 1.6533315e+2
-0.396, 1.7304345e-8, -5.0483258e-9, 1.6566647e+2
-0.397, 1.7324075e-8, -5.0403375e-9, 1.6599980e+2
-0.398, 1.7335658e-8, -5.0400981e-9, 1.6633313e+2
-0.399, 1.7363856e-8, -5.0412963e-9, 1.6666646e+2
-0.400, 1.7423528e-8, -5.0417754e-9, 1.6699979e+2
-0.401, 1.7401319e-8, -5.0699733e-9, 1.6733311e+2
-0.402, 1.7783313e-8, -5.0054294e-9, 1.6766644e+2
-0.403, 1.7082673e-8, -5.0814761e-9, 1.6799977e+2
-0.404, 1.7542551e-8, -5.0710121e-9, 1.6833310e+2
-0.405, 1.7670201e-8, -5.0825149e-9, 1.6866643e+2
-0.406, 1.7664767e-8, -5.0893849e-9, 1.6899976e+2
-0.407, 1.7617879e-8, -5.0749263e-9, 1.6933308e+2
-0.408, 1.7778600e-8, -5.0848312e-9, 1.6966641e+2
-0.409, 1.7746487e-8, -5.0897042e-9, 1.6999974e+2
-0.410, 1.7817980e-8, -5.0927396e-9, 1.7033307e+2
-0.411, 1.7826368e-8, -5.0992104e-9, 1.7066640e+2
-0.412, 1.7846020e-8, -5.0994498e-9, 1.7099973e+2
-0.413, 1.7849215e-8, -5.0996891e-9, 1.7133305e+2
-0.414, 1.7850093e-8, -5.1163846e-9, 1.7166638e+2
-0.415, 1.7973909e-8, -5.1210973e-9, 1.7199971e+2
-0.416, 1.8008977e-8, -5.1392308e-9, 1.7233304e+2
-0.417, 1.8053230e-8, -5.1459406e-9, 1.7266637e+2
-0.418, 1.8192225e-8, -5.1330797e-9, 1.7299969e+2
-0.419, 1.8231447e-8, -5.1453015e-9, 1.7333302e+2
-0.420, 1.8249978e-8, -5.2235052e-9, 1.7366635e+2
-0.421, 1.8320915e-8, -5.2334106e-9, 1.7399968e+2
-0.422, 1.8349271e-8, -5.1405089e-9, 1.7433301e+2
-0.423, 1.8383860e-8, -5.3287885e-9, 1.7466634e+2
-0.424, 1.8497131e-8, -5.1949076e-9, 1.7499966e+2
-0.425, 1.8375871e-8, -5.2914841e-9, 1.7533299e+2
-0.426, 1.8438259e-8, -5.3435669e-9, 1.7566632e+2
-0.427, 1.8559039e-8, -5.4342317e-9, 1.7599965e+2
-0.428, 1.8615276e-8, -5.3728830e-9, 1.7633298e+2
-0.429, 1.8675186e-8, -5.4792850e-9, 1.7666631e+2
-0.430, 1.8631731e-8, -5.4143414e-9, 1.7699963e+2
-0.431, 1.8807629e-8, -5.4229687e-9, 1.7733296e+2
-0.432, 1.8815618e-8, -5.4414215e-9, 1.7766629e+2
-0.433, 1.8825443e-8, -5.4496492e-9, 1.7799962e+2
-0.434, 1.8981131e-8, -5.5897611e-9, 1.7833295e+2
-0.435, 1.8651063e-8, -5.4025988e-9, 1.7866628e+2
-0.436, 1.9333568e-8, -6.2977477e-9, 1.7899960e+2
-0.437, 1.9265828e-8, -5.2387628e-9, 1.7933293e+2
-0.438, 1.9144968e-8, -5.2776645e-9, 1.7966626e+2
-0.439, 1.9275014e-8, -5.5435097e-9, 1.7999959e+2
-0.440, 1.9328057e-8, -5.5526956e-9, 1.8033292e+2
-0.441, 1.9343473e-8, -5.5525358e-9, 1.8066624e+2
-0.442, 1.9399069e-8, -5.5594058e-9, 1.8099957e+2
-0.443, 1.9516575e-8, -5.5503793e-9, 1.8133290e+2
-0.444, 1.9602128e-8, -5.5767404e-9, 1.8166623e+2
-0.445, 1.9721311e-8, -5.6318581e-9, 1.8199956e+2
-0.446, 1.9754063e-8, -5.5952727e-9, 1.8233289e+2
-0.447, 1.9844009e-8, -5.6065357e-9, 1.8266621e+2
-0.448, 1.9863180e-8, -5.6400062e-9, 1.8299954e+2
-0.449, 1.9938987e-8, -5.6366511e-9, 1.8333287e+2
-0.450, 2.0185022e-8, -5.6820237e-9, 1.8366620e+2
-0.451, 2.0175037e-8, -5.7256386e-9, 1.8399953e+2
-0.452, 2.0263226e-8, -5.7992890e-9, 1.8433286e+2
-0.453, 2.0311873e-8, -5.8052003e-9, 1.8466618e+2
-0.454, 2.0354848e-8, -5.8540879e-9, 1.8499951e+2
-0.455, 2.0399662e-8, -5.8900342e-9, 1.8533284e+2
-0.456, 2.0535301e-8, -5.9216672e-9, 1.8566617e+2
-0.457, 2.0665189e-8, -5.9399601e-9, 1.8599950e+2
-0.458, 2.0737959e-8, -5.9556169e-9, 1.8633282e+2
-0.459, 2.0800186e-8, -5.9919625e-9, 1.8666615e+2
-0.460, 2.0844521e-8, -5.9962764e-9, 1.8699948e+2
-0.461, 2.0958991e-8, -6.0208798e-9, 1.8733281e+2
-0.462, 2.1116279e-8, -6.0275100e-9, 1.8766614e+2
-0.463, 2.1256309e-8, -6.0585039e-9, 1.8799947e+2
-0.464, 2.1277478e-8, -6.0737610e-9, 1.8833279e+2
-0.465, 2.1270608e-8, -6.1182552e-9, 1.8866612e+2
-0.466, 2.1499627e-8, -6.0950893e-9, 1.8899945e+2
-0.467, 2.1616573e-8, -6.1806422e-9, 1.8933278e+2
-0.468, 2.1655875e-8, -6.2533343e-9, 1.8966611e+2
-0.469, 2.1767550e-8, -6.2705086e-9, 1.8999944e+2
-0.470, 2.1989219e-8, -6.3386469e-9, 1.9033276e+2
-0.471, 2.1905025e-8, -6.4006351e-9, 1.9066609e+2
-0.472, 2.2197709e-8, -6.4202061e-9, 1.9099942e+2
-0.473, 2.2233097e-8, -6.4609456e-9, 1.9133275e+2
-0.474, 2.2287336e-8, -6.4841914e-9, 1.9166608e+2
-0.475, 2.2424571e-8, -6.5131882e-9, 1.9199940e+2
-0.476, 2.2595598e-8, -6.5254100e-9, 1.9233273e+2
-0.477, 2.2707512e-8, -6.5647110e-9, 1.9266606e+2
-0.478, 2.2707752e-8, -6.5579213e-9, 1.9299939e+2
-0.479, 2.2850339e-8, -6.6255010e-9, 1.9333272e+2
-0.480, 2.2927106e-8, -6.6731105e-9, 1.9366605e+2
-0.481, 2.3188237e-8, -6.7564265e-9, 1.9399937e+2
-0.482, 2.3288568e-8, -6.8300769e-9, 1.9433270e+2
-0.483, 2.3346082e-8, -6.9031678e-9, 1.9466603e+2
-0.484, 2.3474691e-8, -6.9320851e-9, 1.9499936e+2
-0.485, 2.3735982e-8, -7.0408839e-9, 1.9533269e+2
-0.486, 2.3789104e-8, -6.9720256e-9, 1.9566602e+2
-0.487, 2.3988406e-8, -7.0257857e-9, 1.9599934e+2
-0.488, 2.4158314e-8, -7.0586168e-9, 1.9633267e+2
-0.489, 2.4206644e-8, -7.1207644e-9, 1.9666600e+2
-0.490, 2.4341563e-8, -7.1789983e-9, 1.9699933e+2
-0.491, 2.4549333e-8, -7.2768525e-9, 1.9733266e+2
-0.492, 2.4672429e-8, -7.3595294e-9, 1.9766599e+2
-0.493, 2.4782826e-8, -7.4255118e-9, 1.9799931e+2
-0.494, 2.4933563e-8, -7.4710433e-9, 1.9833264e+2
-0.495, 2.5167934e-8, -7.4966060e-9, 1.9866597e+2
-0.496, 2.5193337e-8, -7.5452533e-9, 1.9899930e+2
-0.497, 2.5340396e-8, -7.5937416e-9, 1.9933263e+2
-0.498, 2.5639153e-8, -7.6618800e-9, 1.9966595e+2
-0.499, 2.5732536e-8, -7.8029503e-9, 1.9999928e+2
