Dec. 21, 2005   08:18:25
Cyclic Voltammetry
File: d:\ida_biofilms\12_10_18_dphzstar\a_760b\100um_pyo\a_100um_pyo_gc_6.txt
Data Source:  Experiment
Instrument Model:  CHI760E
Header: 
Note: 

Init E (V) = 0.1
High E (V) = 0.1
Low E (V) = -0.5
Init P/N = N
Scan Rate (V/s) = 0.003
Segment = 1
Sample Interval (V) = 0.001
Quiet Time (sec) = 2
Sensitivity (A/V) = 1e-7
2nd E (V) = 0.1
Sens 2 (A/V) = 1e-7

Potential/V, i1/A, i2/A, Time/s

0.100, -9.3004061e-8, -8.1188169e-8, 3.3333334e-1
0.099, -7.6674894e-8, -7.2981329e-8, 6.6666669e-1
0.098, -6.6550427e-8, -6.6670232e-8, 1.0000000e+0
0.097, -5.9054216e-8, -6.1277447e-8, 1.3333334e+0
0.096, -5.3025257e-8, -5.6939019e-8, 1.6666667e+0
0.095, -4.8144670e-8, -5.3126847e-8, 2.0000000e+0
0.094, -4.3887002e-8, -4.9838377e-8, 2.3333333e+0
0.093, -4.0283080e-8, -4.6877179e-8, 2.6666665e+0
0.092, -3.7215639e-8, -4.4253078e-8, 2.9999998e+0
0.091, -3.4225447e-8, -4.1834198e-8, 3.3333330e+0
0.090, -3.1830364e-8, -3.9692178e-8, 3.6666663e+0
0.089, -2.9585463e-8, -3.7659841e-8, 3.9999995e+0
0.088, -2.7581564e-8, -3.5864193e-8, 4.3333330e+0
0.087, -2.5772414e-8, -3.4179497e-8, 4.6666665e+0
0.086, -2.4182457e-8, -3.2658075e-8, 5.0000000e+0
0.085, -2.2730136e-8, -3.1227085e-8, 5.3333335e+0
0.084, -2.1281169e-8, -2.9995476e-8, 5.6666670e+0
0.083, -1.9985656e-8, -2.8719613e-8, 6.0000005e+0
0.082, -1.8869237e-8, -2.7527545e-8, 6.3333340e+0
0.081, -1.7709120e-8, -2.6487651e-8, 6.6666675e+0
0.080, -1.6848640e-8, -2.5591543e-8, 7.0000010e+0
0.079, -1.5928968e-8, -2.4677622e-8, 7.3333344e+0
0.078, -1.4897540e-8, -2.3884482e-8, 7.6666679e+0
0.077, -1.4087145e-8, -2.3132239e-8, 8.0000010e+0
0.076, -1.3425969e-8, -2.2451573e-8, 8.3333340e+0
0.075, -1.2525547e-8, -2.1782807e-8, 8.6666670e+0
0.074, -1.2018621e-8, -2.1195600e-8, 9.0000000e+0
0.073, -1.1178110e-8, -2.0594413e-8, 9.3333330e+0
0.072, -1.0611592e-8, -2.0085968e-8, 9.6666660e+0
0.071, -1.0036207e-8, -1.9542616e-8, 9.9999990e+0
0.070, -9.2628776e-9, -1.9075312e-8, 1.0333332e+1
0.069, -8.7414929e-9, -1.8611921e-8, 1.0666665e+1
0.068, -8.2697138e-9, -1.8224418e-8, 1.0999998e+1
0.067, -7.8139122e-9, -1.7705508e-8, 1.1333331e+1
0.066, -7.4082749e-9, -1.7354109e-8, 1.1666664e+1
0.065, -6.7756156e-9, -1.7015973e-8, 1.1999997e+1
0.064, -6.5587380e-9, -1.6675839e-8, 1.2333330e+1
0.063, -6.0911933e-9, -1.6288016e-8, 1.2666663e+1
0.062, -5.6337930e-9, -1.5947242e-8, 1.2999996e+1
0.061, -5.3010076e-9, -1.5682357e-8, 1.3333329e+1
0.060, -4.8363384e-9, -1.5361872e-8, 1.3666662e+1
0.059, -4.3986694e-9, -1.5120232e-8, 1.3999995e+1
0.058, -4.2538444e-9, -1.4843284e-8, 1.4333328e+1
0.057, -3.7559449e-9, -1.4542771e-8, 1.4666661e+1
0.056, -3.4758014e-9, -1.4335798e-8, 1.4999994e+1
0.055, -3.2539711e-9, -1.3992309e-8, 1.5333327e+1
0.054, -2.7642193e-9, -1.3824637e-8, 1.5666660e+1
0.053, -2.7326663e-9, -1.3524364e-8, 1.5999993e+1
0.052, -2.4091471e-9, -1.3392720e-8, 1.6333326e+1
0.051, -2.0573503e-9, -1.3228243e-8, 1.6666660e+1
0.050, -1.8146711e-9, -1.2941790e-8, 1.6999994e+1
0.049, -1.4012057e-9, -1.2821729e-8, 1.7333328e+1
0.048, -1.2872950e-9, -1.2609644e-8, 1.7666662e+1
0.047, -1.0222491e-9, -1.2397400e-8, 1.7999996e+1
0.046, -7.5512624e-10, -1.2296270e-8, 1.8333330e+1
0.045, -5.6988164e-10, -1.2056547e-8, 1.8666664e+1
0.044, -3.3622902e-10, -1.1878251e-8, 1.8999998e+1
0.043, -1.0696985e-10, -1.1756113e-8, 1.9333332e+1
0.042, -2.3014663e-11, -1.1544987e-8, 1.9666666e+1
0.041, 2.0392793e-10, -1.1404955e-8, 2.0000000e+1
0.040, 4.5267809e-10, -1.1317566e-8, 2.0333334e+1
0.039, 6.3608546e-10, -1.1139350e-8, 2.0666668e+1
0.038, 7.4200801e-10, -1.0968085e-8, 2.1000002e+1
0.037, 9.3348329e-10, -1.0890121e-8, 2.1333336e+1
0.036, 1.1479644e-9, -1.0805846e-8, 2.1666670e+1
0.035, 1.2646709e-9, -1.0618365e-8, 2.2000004e+1
0.034, 1.4851431e-9, -1.0482247e-8, 2.2333338e+1
0.033, 1.6350802e-9, -1.0397094e-8, 2.2666672e+1
0.032, 1.7461950e-9, -1.0325360e-8, 2.3000006e+1
0.031, 1.8371799e-9, -1.0159048e-8, 2.3333340e+1
0.030, 2.1091753e-9, -1.0026286e-8, 2.3666674e+1
0.029, 2.1639739e-9, -9.9356194e-9, 2.4000008e+1
0.028, 2.3510558e-9, -9.8661230e-9, 2.4333342e+1
0.027, 2.5791966e-9, -9.7704254e-9, 2.4666676e+1
0.026, 2.6073945e-9, -9.6080264e-9, 2.5000010e+1
0.025, 2.7181899e-9, -9.4930774e-9, 2.5333344e+1
0.024, 2.9346681e-9, -9.4466666e-9, 2.5666677e+1
0.023, 2.9185321e-9, -9.3785282e-9, 2.6000011e+1
0.022, 3.1017797e-9, -9.2782768e-9, 2.6333345e+1
0.021, 3.1953205e-9, -9.2118961e-9, 2.6666679e+1
0.020, 3.3134651e-9, -9.0595620e-9, 2.7000013e+1
0.019, 3.4948753e-9, -9.0208196e-9, 2.7333347e+1
0.018, 3.5517507e-9, -8.9367846e-9, 2.7666681e+1
0.017, 3.6319514e-9, -8.8830250e-9, 2.8000015e+1
0.016, 3.6936199e-9, -8.8268681e-9, 2.8333349e+1
0.015, 3.7667109e-9, -8.7094429e-9, 2.8666683e+1
0.014, 4.0470143e-9, -8.5778780e-9, 2.9000017e+1
0.013, 4.0722568e-9, -8.5317868e-9, 2.9333351e+1
0.012, 4.0973394e-9, -8.4764284e-9, 2.9666685e+1
0.011, 4.3091846e-9, -8.4296188e-9, 3.0000019e+1
0.010, 4.1697117e-9, -8.3890388e-9, 3.0333353e+1
0.009, 4.4597606e-9, -8.3364773e-9, 3.0666687e+1
0.008, 4.5724731e-9, -8.2713738e-9, 3.1000021e+1
0.007, 4.6055439e-9, -8.1631351e-9, 3.1333355e+1
0.006, 4.6458042e-9, -8.0517806e-9, 3.1666689e+1
0.005, 4.6664934e-9, -8.0281355e-9, 3.2000023e+1
0.004, 4.8248978e-9, -7.9849993e-9, 3.2333355e+1
0.003, 4.9512701e-9, -7.9478548e-9, 3.2666687e+1
0.002, 5.0098228e-9, -7.9074347e-9, 3.3000019e+1
0.001, 5.1194200e-9, -7.8559115e-9, 3.3333351e+1
-0.000, 5.1099143e-9, -7.7531048e-9, 3.3666683e+1
-0.001, 5.1396301e-9, -7.6745010e-9, 3.4000015e+1
-0.002, 5.4654654e-9, -7.5993327e-9, 3.4333347e+1
-0.003, 5.4196936e-9, -7.5494073e-9, 3.4666679e+1
-0.004, 5.5240981e-9, -7.5346289e-9, 3.5000011e+1
-0.005, 5.6070952e-9, -7.4916535e-9, 3.5333344e+1
-0.006, 5.6073346e-9, -7.4526714e-9, 3.5666676e+1
-0.007, 5.7112604e-9, -7.4271886e-9, 3.6000008e+1
-0.008, 5.7983307e-9, -7.3944375e-9, 3.6333340e+1
-0.009, 5.8496941e-9, -7.3691151e-9, 3.6666672e+1
-0.010, 5.9713536e-9, -7.2905122e-9, 3.7000004e+1
-0.011, 6.0084981e-9, -7.2514506e-9, 3.7333336e+1
-0.012, 6.0639356e-9, -7.1351431e-9, 3.7666668e+1
-0.013, 6.0765570e-9, -7.1063058e-9, 3.8000000e+1
-0.014, 6.1256040e-9, -7.0614132e-9, 3.8333332e+1
-0.015, 6.2851266e-9, -7.0379280e-9, 3.8666664e+1
-0.016, 6.2840888e-9, -6.9930346e-9, 3.8999996e+1
-0.017, 6.4366619e-9, -6.9739432e-9, 3.9333328e+1
-0.018, 6.5105521e-9, -6.9446267e-9, 3.9666660e+1
-0.019, 6.5585608e-9, -6.9404731e-9, 3.9999992e+1
-0.020, 6.5552852e-9, -6.9164283e-9, 4.0333324e+1
-0.021, 6.6854122e-9, -6.8692185e-9, 4.0666656e+1
-0.022, 6.6124000e-9, -6.8499668e-9, 4.0999989e+1
-0.023, 6.6628054e-9, -6.7733610e-9, 4.1333321e+1
-0.024, 6.7098553e-9, -6.7331007e-9, 4.1666653e+1
-0.025, 6.7992429e-9, -6.6768648e-9, 4.1999985e+1
-0.026, 6.9489396e-9, -6.6234240e-9, 4.2333317e+1
-0.027, 6.9727446e-9, -6.5950663e-9, 4.2666649e+1
-0.028, 6.9914372e-9, -6.5619155e-9, 4.2999981e+1
-0.029, 7.0130848e-9, -6.5437029e-9, 4.3333313e+1
-0.030, 7.0336141e-9, -6.5090338e-9, 4.3666645e+1
-0.031, 7.0781083e-9, -6.4923391e-9, 4.3999977e+1
-0.032, 7.1045489e-9, -6.4771615e-9, 4.4333309e+1
-0.033, 7.1350637e-9, -6.4702914e-9, 4.4666641e+1
-0.034, 7.3068880e-9, -6.4455286e-9, 4.4999973e+1
-0.035, 7.2971429e-9, -6.4024723e-9, 4.5333305e+1
-0.036, 7.3243025e-9, -6.3757919e-9, 4.5666637e+1
-0.037, 7.4666504e-9, -6.3400849e-9, 4.5999969e+1
-0.038, 7.4364550e-9, -6.3323364e-9, 4.6333302e+1
-0.039, 7.4947684e-9, -6.2523755e-9, 4.6666634e+1
-0.040, 7.5093070e-9, -6.1676215e-9, 4.6999966e+1
-0.041, 7.4987625e-9, -6.1568377e-9, 4.7333298e+1
-0.042, 7.5345499e-9, -6.1142611e-9, 4.7666630e+1
-0.043, 7.5379845e-9, -6.0899770e-9, 4.7999962e+1
-0.044, 7.5643447e-9, -6.0697674e-9, 4.8333294e+1
-0.045, 7.5907858e-9, -6.0589032e-9, 4.8666626e+1
-0.046, 7.5880697e-9, -6.0473204e-9, 4.8999958e+1
-0.047, 7.7511872e-9, -6.0211995e-9, 4.9333290e+1
-0.048, 7.6940720e-9, -5.9961165e-9, 4.9666622e+1
-0.049, 7.7062134e-9, -5.9966760e-9, 4.9999954e+1
-0.050, 7.8593461e-9, -5.9849334e-9, 5.0333286e+1
-0.051, 7.8742843e-9, -5.9576939e-9, 5.0666618e+1
-0.052, 7.8927371e-9, -5.9546581e-9, 5.0999950e+1
-0.053, 7.9444202e-9, -5.9119216e-9, 5.1333282e+1
-0.054, 7.8779587e-9, -5.8914722e-9, 5.1666615e+1
-0.055, 7.9504110e-9, -5.8732592e-9, 5.1999947e+1
-0.056, 7.9957836e-9, -5.8091945e-9, 5.2333279e+1
-0.057, 7.9893132e-9, -5.8163838e-9, 5.2666611e+1
-0.058, 8.0258991e-9, -5.7920198e-9, 5.2999943e+1
-0.059, 8.0214253e-9, -5.7417746e-9, 5.3333275e+1
-0.060, 8.0274960e-9, -5.7087841e-9, 5.3666607e+1
-0.061, 8.0437124e-9, -5.6630118e-9, 5.3999939e+1
-0.062, 8.0499438e-9, -5.6803460e-9, 5.4333271e+1
-0.063, 8.1192804e-9, -5.5933556e-9, 5.4666603e+1
-0.064, 8.0585707e-9, -5.5919176e-9, 5.4999935e+1
-0.065, 8.0576914e-9, -5.5868052e-9, 5.5333267e+1
-0.066, 8.2563565e-9, -5.5812932e-9, 5.5666599e+1
-0.067, 8.1275076e-9, -5.5833702e-9, 5.5999931e+1
-0.068, 8.1206384e-9, -5.5562905e-9, 5.6333263e+1
-0.069, 8.3089979e-9, -5.5606040e-9, 5.6666595e+1
-0.070, 8.2119422e-9, -5.5407936e-9, 5.6999928e+1
-0.071, 8.2465306e-9, -5.5237788e-9, 5.7333260e+1
-0.072, 8.3524530e-9, -5.5117169e-9, 5.7666592e+1
-0.073, 8.2875902e-9, -5.4974976e-9, 5.7999924e+1
-0.074, 8.3026874e-9, -5.5068443e-9, 5.8333256e+1
-0.075, 8.4022194e-9, -5.4766489e-9, 5.8666588e+1
-0.076, 8.3766576e-9, -5.4629892e-9, 5.8999920e+1
-0.077, 8.4335330e-9, -5.4523652e-9, 5.9333252e+1
-0.078, 8.4307370e-9, -5.4402229e-9, 5.9666584e+1
-0.079, 8.4421599e-9, -5.4496492e-9, 5.9999916e+1
-0.080, 8.4387253e-9, -5.4077116e-9, 6.0333248e+1
-0.081, 8.4195531e-9, -5.3829479e-9, 6.0666580e+1
-0.082, 8.4935232e-9, -5.3472413e-9, 6.0999912e+1
-0.083, 8.4804235e-9, -5.3132920e-9, 6.1333244e+1
-0.084, 8.4809022e-9, -5.3008304e-9, 6.1666576e+1
-0.085, 8.5138936e-9, -5.3171259e-9, 6.1999908e+1
-0.086, 8.4569383e-9, -5.3082592e-9, 6.2333241e+1
-0.087, 8.5039078e-9, -5.2340496e-9, 6.2666573e+1
-0.088, 8.4551806e-9, -5.1990616e-9, 6.2999905e+1
-0.089, 8.5202041e-9, -5.1666298e-9, 6.3333237e+1
-0.090, 8.5234788e-9, -5.1453815e-9, 6.3666569e+1
-0.091, 8.4809821e-9, -5.1480176e-9, 6.3999901e+1
-0.092, 8.5256362e-9, -5.1155857e-9, 6.4333237e+1
-0.093, 8.5165297e-9, -5.1200590e-9, 6.4666573e+1
-0.094, 8.5210825e-9, -5.0942575e-9, 6.4999908e+1
-0.095, 8.5374579e-9, -5.1055209e-9, 6.5333244e+1
-0.096, 8.5383371e-9, -5.0771627e-9, 6.5666580e+1
-0.097, 8.5339433e-9, -5.0555951e-9, 6.5999916e+1
-0.098, 8.5774792e-9, -5.0711719e-9, 6.6333252e+1
-0.099, 8.5588665e-9, -5.0580713e-9, 6.6666588e+1
-0.100, 8.5656566e-9, -5.0497637e-9, 6.6999924e+1
-0.101, 8.5934548e-9, -5.0359441e-9, 6.7333260e+1
-0.102, 8.5841885e-9, -5.0475268e-9, 6.7666595e+1
-0.103, 8.7504217e-9, -5.0318700e-9, 6.7999931e+1
-0.104, 8.6718988e-9, -5.0325890e-9, 6.8333267e+1
-0.105, 8.6465759e-9, -5.0221245e-9, 6.8666603e+1
-0.106, 8.6274046e-9, -4.9957638e-9, 6.8999939e+1
-0.107, 8.6983389e-9, -5.0071067e-9, 6.9333275e+1
-0.108, 8.7148750e-9, -4.9753139e-9, 6.9666611e+1
-0.109, 8.8076169e-9, -4.9924886e-9, 6.9999947e+1
-0.110, 8.7356433e-9, -4.9708406e-9, 7.0333282e+1
-0.111, 8.8409271e-9, -4.9813056e-9, 7.0666618e+1
-0.112, 8.8107317e-9, -4.9365720e-9, 7.0999954e+1
-0.113, 8.8136076e-9, -4.9413647e-9, 7.1333290e+1
-0.114, 8.8441228e-9, -4.9269060e-9, 7.1666626e+1
-0.115, 8.8408472e-9, -4.9333768e-9, 7.1999962e+1
-0.116, 8.8095335e-9, -4.9225926e-9, 7.2333298e+1
-0.117, 8.9026750e-9, -4.9014242e-9, 7.2666634e+1
-0.118, 8.8727994e-9, -4.9201963e-9, 7.2999969e+1
-0.119, 8.9412575e-9, -4.8668354e-9, 7.3333305e+1
-0.120, 8.9630658e-9, -4.8548534e-9, 7.3666641e+1
-0.121, 8.9132195e-9, -4.8225814e-9, 7.3999977e+1
-0.122, 8.9116226e-9, -4.8047677e-9, 7.4333313e+1
-0.123, 8.9721715e-9, -4.7681818e-9, 7.4666649e+1
-0.124, 8.9728109e-9, -4.7587565e-9, 7.4999985e+1
-0.125, 8.9594705e-9, -4.7731348e-9, 7.5333321e+1
-0.126, 8.9886276e-9, -4.7330344e-9, 7.5666656e+1
-0.127, 8.9931813e-9, -4.7200137e-9, 7.5999992e+1
-0.128, 8.9982128e-9, -4.7217714e-9, 7.6333328e+1
-0.129, 8.9736893e-9, -4.6925348e-9, 7.6666664e+1
-0.130, 9.0252135e-9, -4.6822297e-9, 7.7000000e+1
-0.131, 9.0033261e-9, -4.6631383e-9, 7.7333336e+1
-0.132, 9.0228172e-9, -4.6526738e-9, 7.7666672e+1
-0.133, 9.0450234e-9, -4.6504369e-9, 7.8000008e+1
-0.134, 9.4224628e-9, -4.5871711e-9, 7.8333344e+1
-0.135, 8.9424557e-9, -4.6406918e-9, 7.8666679e+1
-0.136, 9.1473513e-9, -4.6022688e-9, 7.9000015e+1
-0.137, 9.0457428e-9, -4.6744817e-9, 7.9333351e+1
-0.138, 9.0613197e-9, -4.5856536e-9, 7.9666687e+1
-0.139, 9.0913552e-9, -4.5940411e-9, 8.0000023e+1
-0.140, 9.0784935e-9, -4.6157687e-9, 8.0333359e+1
-0.141, 9.0909555e-9, -4.5998725e-9, 8.0666695e+1
-0.142, 9.3481729e-9, -4.5887689e-9, 8.1000031e+1
-0.143, 9.4263770e-9, -4.5839763e-9, 8.1333366e+1
-0.144, 9.1741112e-9, -4.5923634e-9, 8.1666702e+1
-0.145, 9.1796233e-9, -4.5735118e-9, 8.2000038e+1
-0.146, 9.3520871e-9, -4.5665618e-9, 8.2333374e+1
-0.147, 9.2796348e-9, -4.5710351e-9, 8.2666710e+1
-0.148, 9.2867438e-9, -4.5847748e-9, 8.3000046e+1
-0.149, 9.4324477e-9, -4.5667217e-9, 8.3333382e+1
-0.150, 9.3238892e-9, -4.5539408e-9, 8.3666718e+1
-0.151, 9.3774100e-9, -4.5669610e-9, 8.4000053e+1
-0.152, 9.3969001e-9, -4.5353281e-9, 8.4333389e+1
-0.153, 9.3794066e-9, -4.5461124e-9, 8.4666725e+1
-0.154, 9.4280539e-9, -4.5454733e-9, 8.5000061e+1
-0.155, 9.4335659e-9, -4.5394826e-9, 8.5333397e+1
-0.156, 9.4564117e-9, -4.5168758e-9, 8.5666733e+1
-0.157, 9.4719885e-9, -4.5266213e-9, 8.6000069e+1
-0.158, 9.4813348e-9, -4.5111244e-9, 8.6333405e+1
-0.159, 9.4910808e-9, -4.5143196e-9, 8.6666740e+1
-0.160, 9.4943555e-9, -4.5006598e-9, 8.7000076e+1
-0.161, 9.4906811e-9, -4.5076094e-9, 8.7333412e+1
-0.162, 9.5535482e-9, -4.5042543e-9, 8.7666748e+1
-0.163, 9.5481951e-9, -4.4857225e-9, 8.8000084e+1
-0.164, 9.5255093e-9, -4.4948285e-9, 8.8333420e+1
-0.165, 9.5850208e-9, -4.4759765e-9, 8.8666756e+1
-0.166, 9.5390895e-9, -4.4956274e-9, 8.9000092e+1
-0.167, 9.5508312e-9, -4.4765356e-9, 8.9333427e+1
-0.168, 9.6588311e-9, -4.4615178e-9, 8.9666763e+1
-0.169, 9.5747961e-9, -4.4639146e-9, 9.0000099e+1
-0.170, 9.6698543e-9, -4.4520121e-9, 9.0333435e+1
-0.171, 9.7163451e-9, -4.4714237e-9, 9.0666771e+1
-0.172, 9.7055617e-9, -4.4264503e-9, 9.1000107e+1
-0.173, 9.7951087e-9, -4.4553672e-9, 9.1333443e+1
-0.174, 9.8348094e-9, -4.4480184e-9, 9.1666779e+1
-0.175, 9.8705168e-9, -4.4365152e-9, 9.2000114e+1
-0.176, 9.8834576e-9, -4.4248525e-9, 9.2333450e+1
-0.177, 9.8850546e-9, -4.4117523e-9, 9.2666786e+1
-0.178, 9.9825899e-9, -4.4001691e-9, 9.3000122e+1
-0.179, 9.9190842e-9, -4.4005688e-9, 9.3333458e+1
-0.180, 9.9663744e-9, -4.3910626e-9, 9.3666794e+1
-0.181, 1.0000803e-8, -4.3484865e-9, 9.4000130e+1
-0.182, 9.9750013e-9, -4.3881072e-9, 9.4333466e+1
-0.183, 9.9997637e-9, -4.3719712e-9, 9.4666801e+1
-0.184, 1.0057758e-8, -4.3446517e-9, 9.5000137e+1
-0.185, 1.0013424e-8, -4.3535189e-9, 9.5333473e+1
-0.186, 1.0089071e-8, -4.3691757e-9, 9.5666809e+1
-0.187, 1.0092187e-8, -4.3007171e-9, 9.6000145e+1
-0.188, 1.0138757e-8, -4.3254804e-9, 9.6333481e+1
-0.189, 1.0125817e-8, -4.2777910e-9, 9.6666817e+1
-0.190, 1.0217521e-8, -4.2638919e-9, 9.7000153e+1
-0.191, 1.0277511e-8, -4.2561434e-9, 9.7333488e+1
-0.192, 1.0279428e-8, -4.3067083e-9, 9.7666824e+1
-0.193, 1.0301635e-8, -4.2338564e-9, 9.8000160e+1
-0.194, 1.0420499e-8, -4.2246704e-9, 9.8333496e+1
-0.195, 1.0380159e-8, -4.2200372e-9, 9.8666832e+1
-0.196, 1.0395416e-8, -4.1840904e-9, 9.9000168e+1
-0.197, 1.0450375e-8, -4.1953538e-9, 9.9333504e+1
-0.198, 1.0460200e-8, -4.2174011e-9, 9.9666840e+1
-0.199, 1.0464194e-8, -4.2072563e-9, 1.0000018e+2
-0.200, 1.0517235e-8, -4.1808952e-9, 1.0033351e+2
-0.201, 1.0493350e-8, -4.1765817e-9, 1.0066685e+2
-0.202, 1.0512363e-8, -4.1955137e-9, 1.0100018e+2
-0.203, 1.0527859e-8, -4.1687533e-9, 1.0133352e+2
-0.204, 1.0551344e-8, -4.1909600e-9, 1.0166685e+2
-0.205, 1.0437833e-8, -4.1698716e-9, 1.0200019e+2
-0.206, 1.0562847e-8, -4.1816941e-9, 1.0233353e+2
-0.207, 1.0630986e-8, -4.1542152e-9, 1.0266686e+2
-0.208, 1.0686104e-8, -4.1455079e-9, 1.0300020e+2
-0.209, 1.0678355e-8, -4.1621231e-9, 1.0333353e+2
-0.210, 1.0787393e-8, -4.1741055e-9, 1.0366687e+2
-0.211, 1.0822301e-8, -4.1584487e-9, 1.0400021e+2
-0.212, 1.0790669e-8, -4.1710697e-9, 1.0433354e+2
-0.213, 1.0914404e-8, -4.1673154e-9, 1.0466688e+2
-0.214, 1.0853135e-8, -4.1594075e-9, 1.0500021e+2
-0.215, 1.0879257e-8, -4.1669161e-9, 1.0533355e+2
-0.216, 1.0942842e-8, -4.1416737e-9, 1.0566689e+2
-0.217, 1.0944120e-8, -4.1556532e-9, 1.0600022e+2
-0.218, 1.0962173e-8, -4.1452686e-9, 1.0633356e+2
-0.219, 1.0965769e-8, -4.1304102e-9, 1.0666689e+2
-0.220, 1.0991410e-8, -4.1612447e-9, 1.0700023e+2
-0.221, 1.1011380e-8, -4.1749839e-9, 1.0733356e+2
-0.222, 1.1024001e-8, -4.1575698e-9, 1.0766690e+2
-0.223, 1.1140308e-8, -4.1550137e-9, 1.0800024e+2
-0.224, 1.1225861e-8, -4.1637209e-9, 1.0833357e+2
-0.225, 1.1114667e-8, -4.1902415e-9, 1.0866691e+2
-0.226, 1.1380192e-8, -4.1808952e-9, 1.0900024e+2
-0.227, 1.1333062e-8, -4.1827324e-9, 1.0933358e+2
-0.228, 1.1294959e-8, -4.2046997e-9, 1.0966692e+2
-0.229, 1.1409269e-8, -4.2158033e-9, 1.1000025e+2
-0.230, 1.1426603e-8, -4.2778714e-9, 1.1033359e+2
-0.231, 1.1481242e-8, -4.2532675e-9, 1.1066692e+2
-0.232, 1.1482041e-8, -4.2645310e-9, 1.1100026e+2
-0.233, 1.1497938e-8, -4.2684452e-9, 1.1133360e+2
-0.234, 1.1520224e-8, -4.2731578e-9, 1.1166693e+2
-0.235, 1.1574862e-8, -4.3257198e-9, 1.1200027e+2
-0.236, 1.1648512e-8, -4.2700430e-9, 1.1233360e+2
-0.237, 1.1707066e-8, -4.3534389e-9, 1.1266694e+2
-0.238, 1.1759389e-8, -4.3587907e-9, 1.1300027e+2
-0.239, 1.1889834e-8, -4.3538382e-9, 1.1333361e+2
-0.240, 1.1924742e-8, -4.3970543e-9, 1.1366695e+2
-0.241, 1.1907328e-8, -4.4086366e-9, 1.1400028e+2
-0.242, 1.2014769e-8, -4.4500150e-9, 1.1433362e+2
-0.243, 1.1971154e-8, -4.4381929e-9, 1.1466695e+2
-0.244, 1.1968996e-8, -4.4345181e-9, 1.1500029e+2
-0.245, 1.2144975e-8, -4.4699857e-9, 1.1533363e+2
-0.246, 1.2142100e-8, -4.4628763e-9, 1.1566696e+2
-0.247, 1.2226054e-8, -4.4884381e-9, 1.1600030e+2
-0.248, 1.2336690e-8, -4.4989026e-9, 1.1633363e+2
-0.249, 1.2325187e-8, -4.5204702e-9, 1.1666697e+2
-0.250, 1.2423041e-8, -4.5349289e-9, 1.1700031e+2
-0.251, 1.2426955e-8, -4.5603312e-9, 1.1733364e+2
-0.252, 1.2431030e-8, -4.5507456e-9, 1.1766698e+2
-0.253, 1.2476002e-8, -4.5574553e-9, 1.1800031e+2
-0.254, 1.2474326e-8, -4.5879700e-9, 1.1833365e+2
-0.255, 1.2589593e-8, -4.5957984e-9, 1.1866698e+2
-0.256, 1.2576014e-8, -4.5989941e-9, 1.1900032e+2
-0.257, 1.2628417e-8, -4.6169668e-9, 1.1933366e+2
-0.258, 1.2871336e-8, -4.6259938e-9, 1.1966699e+2
-0.259, 1.2806632e-8, -4.6327036e-9, 1.2000033e+2
-0.260, 1.2807590e-8, -4.6675317e-9, 1.2033366e+2
-0.261, 1.2926773e-8, -4.6745612e-9, 1.2066700e+2
-0.262, 1.2908639e-8, -4.7295994e-9, 1.2100034e+2
-0.263, 1.2939793e-8, -4.7539634e-9, 1.2133367e+2
-0.264, 1.2967831e-8, -4.7770490e-9, 1.2166701e+2
-0.265, 1.2966873e-8, -4.8634003e-9, 1.2200034e+2
-0.266, 1.2994352e-8, -4.8649187e-9, 1.2233368e+2
-0.267, 1.3058417e-8, -4.9050985e-9, 1.2266702e+2
-0.268, 1.3092287e-8, -4.9105306e-9, 1.2300035e+2
-0.269, 1.3125996e-8, -4.9190780e-9, 1.2333369e+2
-0.270, 1.3181913e-8, -4.9591784e-9, 1.2366702e+2
-0.271, 1.3341277e-8, -4.9602966e-9, 1.2400036e+2
-0.272, 1.3339919e-8, -4.9690834e-9, 1.2433369e+2
-0.273, 1.3347587e-8, -4.9769917e-9, 1.2466703e+2
-0.274, 1.3382175e-8, -4.9860982e-9, 1.2500037e+2
-0.275, 1.3395755e-8, -5.0026334e-9, 1.2533370e+2
-0.276, 1.3398391e-8, -5.0275566e-9, 1.2566704e+2
-0.277, 1.3434498e-8, -5.0381805e-9, 1.2600037e+2
-0.278, 1.3420518e-8, -5.0277964e-9, 1.2633371e+2
-0.279, 1.3427867e-8, -5.0432933e-9, 1.2666705e+2
-0.280, 1.3481948e-8, -5.0553552e-9, 1.2700038e+2
-0.281, 1.3470525e-8, -5.0641420e-9, 1.2733372e+2
-0.282, 1.3548328e-8, -5.0611866e-9, 1.2766705e+2
-0.283, 1.3498643e-8, -5.0790798e-9, 1.2800038e+2
-0.284, 1.3587311e-8, -5.0769233e-9, 1.2833371e+2
-0.285, 1.3665514e-8, -5.0911422e-9, 1.2866704e+2
-0.286, 1.3611834e-8, -5.0987308e-9, 1.2900037e+2
-0.287, 1.3764727e-8, -5.0838729e-9, 1.2933369e+2
-0.288, 1.3802591e-8, -5.0893849e-9, 1.2966702e+2
-0.289, 1.3748831e-8, -5.1099143e-9, 1.3000035e+2
-0.290, 1.3811617e-8, -5.1258904e-9, 1.3033368e+2
-0.291, 1.3820563e-8, -5.1089555e-9, 1.3066701e+2
-0.292, 1.3836940e-8, -5.1229345e-9, 1.3100034e+2
-0.293, 1.3885188e-8, -5.1373132e-9, 1.3133366e+2
-0.294, 1.3840614e-8, -5.2211888e-9, 1.3166699e+2
-0.295, 1.3775191e-8, -5.1623164e-9, 1.3200032e+2
-0.296, 1.3876401e-8, -5.1979434e-9, 1.3233365e+2
-0.297, 1.3883910e-8, -5.2048130e-9, 1.3266698e+2
-0.298, 1.3878557e-8, -5.2734310e-9, 1.3300031e+2
-0.299, 1.3905238e-8, -5.1710232e-9, 1.3333363e+2
-0.300, 1.3922971e-8, -5.2308540e-9, 1.3366696e+2
-0.301, 1.3983042e-8, -5.2142388e-9, 1.3400029e+2
-0.302, 1.3960356e-8, -5.2211888e-9, 1.3433362e+2
-0.303, 1.3978569e-8, -5.2338898e-9, 1.3466695e+2
-0.304, 1.4015794e-8, -5.2474696e-9, 1.3500027e+2
-0.305, 1.4013477e-8, -5.2809401e-9, 1.3533360e+2
-0.306, 1.4222926e-8, -5.2732716e-9, 1.3566693e+2
-0.307, 1.4111253e-8, -5.2720730e-9, 1.3600026e+2
-0.308, 1.4270535e-8, -5.2318132e-9, 1.3633359e+2
-0.309, 1.4255518e-8, -5.2761471e-9, 1.3666692e+2
-0.310, 1.4315588e-8, -5.3012297e-9, 1.3700024e+2
-0.311, 1.4290666e-8, -5.3104960e-9, 1.3733357e+2
-0.312, 1.4370147e-8, -5.2965170e-9, 1.3766690e+2
-0.313, 1.4312552e-8, -5.3317444e-9, 1.3800023e+2
-0.314, 1.4368549e-8, -5.3606617e-9, 1.3833356e+2
-0.315, 1.4367351e-8, -5.3605018e-9, 1.3866689e+2
-0.316, 1.4392273e-8, -5.3524336e-9, 1.3900021e+2
-0.317, 1.4396908e-8, -5.3598623e-9, 1.3933354e+2
-0.318, 1.4376697e-8, -5.3537117e-9, 1.3966687e+2
-0.319, 1.4432454e-8, -5.3837472e-9, 1.4000020e+2
-0.320, 1.4437727e-8, -5.3822293e-9, 1.4033353e+2
-0.321, 1.4414720e-8, -5.3642562e-9, 1.4066685e+2
-0.322, 1.4519045e-8, -5.3789542e-9, 1.4100018e+2
-0.323, 1.4460332e-8, -5.3891789e-9, 1.4133351e+2
-0.324, 1.4479983e-8, -5.3986846e-9, 1.4166684e+2
-0.325, 1.4612107e-8, -5.4188147e-9, 1.4200017e+2
-0.326, 1.4494122e-8, -5.4207323e-9, 1.4233350e+2
-0.327, 1.4593255e-8, -5.4311964e-9, 1.4266682e+2
-0.328, 1.4584788e-8, -5.4115454e-9, 1.4300015e+2
-0.329, 1.4629042e-8, -5.4215308e-9, 1.4333348e+2
-0.330, 1.4606196e-8, -5.4379066e-9, 1.4366681e+2
-0.331, 1.4692787e-8, -5.4402229e-9, 1.4400014e+2
-0.332, 1.4789763e-8, -5.4416609e-9, 1.4433347e+2
-0.333, 1.4722024e-8, -5.4314362e-9, 1.4466679e+2
-0.334, 1.4791520e-8, -5.4164984e-9, 1.4500012e+2
-0.335, 1.4818281e-8, -5.4086700e-9, 1.4533345e+2
-0.336, 1.4841606e-8, -5.4455751e-9, 1.4566678e+2
-0.337, 1.4801826e-8, -5.4173772e-9, 1.4600011e+2
-0.338, 1.4843044e-8, -5.4564393e-9, 1.4633344e+2
-0.339, 1.4922206e-8, -5.3423683e-9, 1.4666676e+2
-0.340, 1.4884582e-8, -5.3952500e-9, 1.4700009e+2
-0.341, 1.5053770e-8, -5.4089098e-9, 1.4733342e+2
-0.342, 1.4908705e-8, -5.4274421e-9, 1.4766675e+2
-0.343, 1.5001609e-8, -5.4542024e-9, 1.4800008e+2
-0.344, 1.4938262e-8, -5.4708176e-9, 1.4833340e+2
-0.345, 1.5063994e-8, -5.4415810e-9, 1.4866673e+2
-0.346, 1.4903993e-8, -5.4637082e-9, 1.4900006e+2
-0.347, 1.4930832e-8, -5.4660245e-9, 1.4933339e+2
-0.348, 1.4922605e-8, -5.4715366e-9, 1.4966672e+2
-0.349, 1.4972372e-8, -5.4469327e-9, 1.5000005e+2
-0.350, 1.5018143e-8, -5.4466933e-9, 1.5033337e+2
-0.351, 1.5095868e-8, -5.4661844e-9, 1.5066670e+2
-0.352, 1.5030047e-8, -5.4758500e-9, 1.5100003e+2
-0.353, 1.5060401e-8, -5.4777671e-9, 1.5133336e+2
-0.354, 1.5258506e-8, -5.4684213e-9, 1.5166669e+2
-0.355, 1.5084606e-8, -5.4695395e-9, 1.5200002e+2
-0.356, 1.5194601e-8, -5.4816014e-9, 1.5233334e+2
-0.357, 1.5288862e-8, -5.4665041e-9, 1.5266667e+2
-0.358, 1.5099223e-8, -5.4605929e-9, 1.5300000e+2
-0.359, 1.5268332e-8, -5.4696994e-9, 1.5333333e+2
-0.360, 1.5314821e-8, -5.4637881e-9, 1.5366666e+2
-0.361, 1.5252196e-8, -5.4706577e-9, 1.5399998e+2
-0.362, 1.5317539e-8, -5.4789657e-9, 1.5433331e+2
-0.363, 1.5339666e-8, -5.4907878e-9, 1.5466664e+2
-0.364, 1.5337189e-8, -5.4710569e-9, 1.5499997e+2
-0.365, 1.5354443e-8, -5.4935838e-9, 1.5533330e+2
-0.366, 1.5351407e-8, -5.4733738e-9, 1.5566663e+2
-0.367, 1.5381364e-8, -5.4924651e-9, 1.5599995e+2
-0.368, 1.5370899e-8, -5.4930243e-9, 1.5633328e+2
-0.369, 1.5408443e-8, -5.5026899e-9, 1.5666661e+2
-0.370, 1.5408842e-8, -5.4907878e-9, 1.5699994e+2
-0.371, 1.5423939e-8, -5.5054858e-9, 1.5733327e+2
-0.372, 1.5440236e-8, -5.5050067e-9, 1.5766660e+2
-0.373, 1.5480415e-8, -5.5054064e-9, 1.5799992e+2
-0.374, 1.5441113e-8, -5.5060450e-9, 1.5833325e+2
-0.375, 1.5531459e-8, -5.4959801e-9, 1.5866658e+2
-0.376, 1.5456852e-8, -5.5127551e-9, 1.5899991e+2
-0.377, 1.5492478e-8, -5.5016520e-9, 1.5933324e+2
-0.378, 1.5600238e-8, -5.5173084e-9, 1.5966656e+2
-0.379, 1.5690903e-8, -5.5288116e-9, 1.5999989e+2
-0.380, 1.5645691e-8, -5.5173084e-9, 1.6033322e+2
-0.381, 1.5637143e-8, -5.5363203e-9, 1.6066655e+2
-0.382, 1.5749457e-8, -5.5295306e-9, 1.6099988e+2
-0.383, 1.5767030e-8, -5.5341633e-9, 1.6133321e+2
-0.384, 1.5805293e-8, -5.5299298e-9, 1.6166653e+2
-0.385, 1.5790674e-8, -5.5248170e-9, 1.6199986e+2
-0.386, 1.5846831e-8, -5.5347229e-9, 1.6233319e+2
-0.387, 1.5838523e-8, -5.5177076e-9, 1.6266652e+2
-0.388, 1.5841879e-8, -5.5157106e-9, 1.6299985e+2
-0.389, 1.5890686e-8, -5.5299298e-9, 1.6333318e+2
-0.390, 1.5860332e-8, -5.5463851e-9, 1.6366650e+2
-0.391, 1.5878305e-8, -5.5415925e-9, 1.6399983e+2
-0.392, 1.5933264e-8, -5.5370393e-9, 1.6433316e+2
-0.393, 1.5904986e-8, -5.5356812e-9, 1.6466649e+2
-0.394, 1.6022890e-8, -5.5173883e-9, 1.6499982e+2
-0.395, 1.5884616e-8, -5.5292109e-9, 1.6533315e+2
-0.396, 1.6073855e-8, -5.5307283e-9, 1.6566647e+2
-0.397, 1.5931105e-8, -5.5347229e-9, 1.6599980e+2
-0.398, 1.6034553e-8, -5.5320863e-9, 1.6633313e+2
-0.399, 1.6189281e-8, -5.5466249e-9, 1.6666646e+2
-0.400, 1.6071219e-8, -5.5604445e-9, 1.6699979e+2
-0.401, 1.6172587e-8, -5.5501395e-9, 1.6733311e+2
-0.402, 1.6260616e-8, -5.5548526e-9, 1.6766644e+2
-0.403, 1.6256143e-8, -5.5618825e-9, 1.6799977e+2
-0.404, 1.6244000e-8, -5.5471041e-9, 1.6833310e+2
-0.405, 1.6327236e-8, -5.5527760e-9, 1.6866643e+2
-0.406, 1.6304950e-8, -5.5465450e-9, 1.6899976e+2
-0.407, 1.6344652e-8, -5.5693112e-9, 1.6933308e+2
-0.408, 1.6352560e-8, -5.5542935e-9, 1.6966641e+2
-0.409, 1.6337543e-8, -5.5474239e-9, 1.6999974e+2
-0.410, 1.6426529e-8, -5.5526161e-9, 1.7033307e+2
-0.411, 1.6374447e-8, -5.5533351e-9, 1.7066640e+2
-0.412, 1.6385151e-8, -5.5677933e-9, 1.7099973e+2
-0.413, 1.6434518e-8, -5.5549325e-9, 1.7133305e+2
-0.414, 1.6390423e-8, -5.5640390e-9, 1.7166638e+2
-0.415, 1.6552102e-8, -5.5678733e-9, 1.7199971e+2
-0.416, 1.6421817e-8, -5.5697105e-9, 1.7233304e+2
-0.417, 1.6488357e-8, -5.5728258e-9, 1.7266637e+2
-0.418, 1.6690537e-8, -5.5856066e-9, 1.7299969e+2
-0.419, 1.6629587e-8, -5.5758616e-9, 1.7333302e+2
-0.420, 1.6712505e-8, -5.5733054e-9, 1.7366635e+2
-0.421, 1.6766824e-8, -5.5813731e-9, 1.7399968e+2
-0.422, 1.6715859e-8, -5.5725065e-9, 1.7433301e+2
-0.423, 1.6795420e-8, -5.6003850e-9, 1.7466634e+2
-0.424, 1.6797019e-8, -5.5945537e-9, 1.7499966e+2
-0.425, 1.6782399e-8, -5.6154827e-9, 1.7533299e+2
-0.426, 1.6833205e-8, -5.6025415e-9, 1.7566632e+2
-0.427, 1.6848382e-8, -5.5829710e-9, 1.7599965e+2
-0.428, 1.6842552e-8, -5.6026219e-9, 1.7633298e+2
-0.429, 1.6863559e-8, -5.6146838e-9, 1.7666631e+2
-0.430, 1.6905817e-8, -5.5893610e-9, 1.7699963e+2
-0.431, 1.6878897e-8, -5.6001452e-9, 1.7733296e+2
-0.432, 1.6910930e-8, -5.6117284e-9, 1.7766629e+2
-0.433, 1.6939607e-8, -5.6261067e-9, 1.7799962e+2
-0.434, 1.7109834e-8, -5.6264264e-9, 1.7833295e+2
-0.435, 1.7015495e-8, -5.6366511e-9, 1.7866628e+2
-0.436, 1.7153289e-8, -5.6700413e-9, 1.7899960e+2
-0.437, 1.7265043e-8, -5.6426424e-9, 1.7933293e+2
-0.438, 1.7195147e-8, -5.6362519e-9, 1.7966626e+2
-0.439, 1.7235486e-8, -5.7158931e-9, 1.7999959e+2
-0.440, 1.7325673e-8, -5.6679643e-9, 1.8033292e+2
-0.441, 1.7303387e-8, -5.6604557e-9, 1.8066624e+2
-0.442, 1.7325034e-8, -5.6814646e-9, 1.8099957e+2
-0.443, 1.7323437e-8, -5.7161329e-9, 1.8133290e+2
-0.444, 1.7343407e-8, -5.6887335e-9, 1.8166623e+2
-0.445, 1.7408350e-8, -5.7003962e-9, 1.8199956e+2
-0.446, 1.7377836e-8, -5.7511209e-9, 1.8233289e+2
-0.447, 1.7465705e-8, -5.7594285e-9, 1.8266621e+2
-0.448, 1.7423048e-8, -5.7821148e-9, 1.8299954e+2
-0.449, 1.7451088e-8, -5.7471268e-9, 1.8333287e+2
-0.450, 1.7673155e-8, -5.7683751e-9, 1.8366620e+2
-0.451, 1.7635532e-8, -5.7940968e-9, 1.8399953e+2
-0.452, 1.7667803e-8, -5.7770824e-9, 1.8433286e+2
-0.453, 1.7791301e-8, -5.7646208e-9, 1.8466618e+2
-0.454, 1.7753198e-8, -5.8165437e-9, 1.8499951e+2
-0.455, 1.7807038e-8, -5.8520908e-9, 1.8533284e+2
-0.456, 1.7824211e-8, -5.8337979e-9, 1.8566617e+2
-0.457, 1.7816543e-8, -5.8319607e-9, 1.8599950e+2
-0.458, 1.7862874e-8, -5.8671086e-9, 1.8633282e+2
-0.459, 1.7867427e-8, -5.8441025e-9, 1.8666615e+2
-0.460, 1.7924544e-8, -5.8544072e-9, 1.8699948e+2
-0.461, 1.7979261e-8, -5.8817267e-9, 1.8733281e+2
-0.462, 1.8006261e-8, -5.8678276e-9, 1.8766614e+2
-0.463, 1.8183037e-8, -5.8719012e-9, 1.8799947e+2
-0.464, 1.8182320e-8, -5.9305343e-9, 1.8833279e+2
-0.465, 1.8242469e-8, -5.9182326e-9, 1.8866612e+2
-0.466, 1.8303259e-8, -5.9140786e-9, 1.8899945e+2
-0.467, 1.8301902e-8, -5.9230252e-9, 1.8933278e+2
-0.468, 1.8323551e-8, -5.9389214e-9, 1.8966611e+2
-0.469, 1.8393765e-8, -5.9443535e-9, 1.8999944e+2
-0.470, 1.8395282e-8, -5.9419571e-9, 1.9033276e+2
-0.471, 1.8427874e-8, -5.9636847e-9, 1.9066609e+2
-0.472, 1.8598820e-8, -5.9680785e-9, 1.9099942e+2
-0.473, 1.8573738e-8, -5.9689569e-9, 1.9133275e+2
-0.474, 1.8636364e-8, -5.9828560e-9, 1.9166608e+2
-0.475, 1.8719200e-8, -5.9787024e-9, 1.9199940e+2
-0.476, 1.8766810e-8, -5.9739094e-9, 1.9233273e+2
-0.477, 1.8783025e-8, -5.9961964e-9, 1.9266606e+2
-0.478, 1.8797564e-8, -5.9897260e-9, 1.9299939e+2
-0.479, 1.8835987e-8, -6.0219980e-9, 1.9333272e+2
-0.480, 1.8954452e-8, -6.0204002e-9, 1.9366605e+2
-0.481, 1.9036250e-8, -6.0283090e-9, 1.9399937e+2
-0.482, 1.9141533e-8, -6.0441252e-9, 1.9433270e+2
-0.483, 1.9223091e-8, -6.0410099e-9, 1.9466603e+2
-0.484, 1.9189462e-8, -6.0514740e-9, 1.9499936e+2
-0.485, 1.9287716e-8, -6.0457230e-9, 1.9533269e+2
-0.486, 1.9297861e-8, -6.0611396e-9, 1.9566602e+2
-0.487, 1.9329493e-8, -6.0753589e-9, 1.9599934e+2
-0.488, 1.9468967e-8, -6.0790333e-9, 1.9633267e+2
-0.489, 1.9410892e-8, -6.0781549e-9, 1.9666600e+2
-0.490, 1.9673781e-8, -6.1067524e-9, 1.9699933e+2
-0.491, 1.9633921e-8, -6.1400627e-9, 1.9733266e+2
-0.492, 1.9740883e-8, -6.1453349e-9, 1.9766599e+2
-0.493, 1.9771717e-8, -6.1553997e-9, 1.9799931e+2
-0.494, 1.9799755e-8, -6.2187455e-9, 1.9833264e+2
-0.495, 1.9859744e-8, -6.2384764e-9, 1.9866597e+2
-0.496, 1.9981403e-8, -6.2295298e-9, 1.9899930e+2
-0.497, 2.0117522e-8, -6.2930354e-9, 1.9933263e+2
-0.498, 2.0234388e-8, -6.2945529e-9, 1.9966595e+2
-0.499, 2.0224803e-8, -6.3701204e-9, 1.9999928e+2
