Dec. 20, 2005   23:05:15
Cyclic Voltammetry
File: d:\ida_biofilms\12_10_18_dphzstar\a_760b\10um_pyo\a_10um_pyo_gc_3.txt
Data Source:  Experiment
Instrument Model:  CHI760E
Header: 
Note: 

Init E (V) = 0.1
High E (V) = 0.1
Low E (V) = -0.5
Init P/N = N
Scan Rate (V/s) = 0.003
Segment = 1
Sample Interval (V) = 0.001
Quiet Time (sec) = 2
Sensitivity (A/V) = 1e-7
2nd E (V) = 0.1
Sens 2 (A/V) = 1e-7

Potential/V, i1/A, i2/A, Time/s

0.100, -1.0077323e-7, -7.9935631e-8, 3.3333334e-1
0.099, -8.0911235e-8, -7.0478009e-8, 6.6666669e-1
0.098, -6.8617908e-8, -6.3168557e-8, 1.0000000e+0
0.097, -5.9492042e-8, -5.7335388e-8, 1.3333334e+0
0.096, -5.2649330e-8, -5.2602743e-8, 1.6666667e+0
0.095, -4.6956039e-8, -4.8624660e-8, 2.0000000e+0
0.094, -4.2247759e-8, -4.5344098e-8, 2.3333333e+0
0.093, -3.8292999e-8, -4.2474841e-8, 2.6666665e+0
0.092, -3.5001012e-8, -4.0053322e-8, 2.9999998e+0
0.091, -3.1689375e-8, -3.7863138e-8, 3.3333330e+0
0.090, -2.9181264e-8, -3.5955175e-8, 3.6666663e+0
0.089, -2.6789060e-8, -3.4183728e-8, 3.9999995e+0
0.088, -2.4577869e-8, -3.2656402e-8, 4.3333330e+0
0.087, -2.2855389e-8, -3.1204319e-8, 4.6666665e+0
0.086, -2.1107827e-8, -2.9915995e-8, 5.0000000e+0
0.085, -1.9389182e-8, -2.8691893e-8, 5.3333335e+0
0.084, -1.8104933e-8, -2.7448703e-8, 5.6666670e+0
0.083, -1.6721788e-8, -2.6451547e-8, 6.0000005e+0
0.082, -1.5513265e-8, -2.5470845e-8, 6.3333340e+0
0.081, -1.4305541e-8, -2.4592389e-8, 6.6666675e+0
0.080, -1.3364141e-8, -2.3798689e-8, 7.0000010e+0
0.079, -1.2438396e-8, -2.3029113e-8, 7.3333344e+0
0.078, -1.1453301e-8, -2.2287654e-8, 7.6666679e+0
0.077, -1.0595616e-8, -2.1647967e-8, 8.0000010e+0
0.076, -9.7380113e-9, -2.0970095e-8, 8.3333340e+0
0.075, -8.9885654e-9, -2.0372902e-8, 8.6666670e+0
0.074, -8.3300238e-9, -1.9807343e-8, 9.0000000e+0
0.073, -7.6276292e-9, -1.9277572e-8, 9.3333330e+0
0.072, -7.0762085e-9, -1.8810825e-8, 9.6666660e+0
0.071, -6.4778982e-9, -1.8313724e-8, 9.9999990e+0
0.070, -5.9213652e-9, -1.7856243e-8, 1.0333332e+1
0.069, -5.4308948e-9, -1.7414500e-8, 1.0666665e+1
0.068, -4.8770783e-9, -1.7083472e-8, 1.0999998e+1
0.067, -4.4380508e-9, -1.6715699e-8, 1.1333331e+1
0.066, -4.0184345e-9, -1.6334106e-8, 1.1666664e+1
0.065, -3.5992180e-9, -1.5899234e-8, 1.1999997e+1
0.064, -3.2157881e-9, -1.5644972e-8, 1.2333330e+1
0.063, -2.8528875e-9, -1.5322811e-8, 1.2666663e+1
0.062, -2.3340589e-9, -1.4944414e-8, 1.2999996e+1
0.061, -2.0222026e-9, -1.4725059e-8, 1.3333329e+1
0.060, -1.7653045e-9, -1.4381489e-8, 1.3666662e+1
0.059, -1.2910495e-9, -1.4141446e-8, 1.3999995e+1
0.058, -1.1490207e-9, -1.3870169e-8, 1.4333328e+1
0.057, -7.6071788e-10, -1.3564864e-8, 1.4666661e+1
0.056, -4.6979043e-10, -1.3373310e-8, 1.4999994e+1
0.055, -2.7983285e-10, -1.3131508e-8, 1.5333327e+1
0.054, -1.2630111e-10, -1.2916708e-8, 1.5666660e+1
0.053, 1.5432169e-10, -1.2721558e-8, 1.5999993e+1
0.052, 5.3271915e-10, -1.2445168e-8, 1.6333326e+1
0.051, 7.0190759e-10, -1.2313764e-8, 1.6666660e+1
0.050, 7.7939238e-10, -1.2042007e-8, 1.6999994e+1
0.049, 1.1728873e-9, -1.1884322e-8, 1.7333328e+1
0.048, 1.2930287e-9, -1.1681345e-8, 1.7666662e+1
0.047, 1.5130216e-9, -1.1450088e-8, 1.7999996e+1
0.046, 1.7144822e-9, -1.1357665e-8, 1.8333330e+1
0.045, 1.8479638e-9, -1.1171862e-8, 1.8666664e+1
0.044, 2.0638828e-9, -1.0954745e-8, 1.8999998e+1
0.043, 2.2798017e-9, -1.0870550e-8, 1.9333332e+1
0.042, 2.3806117e-9, -1.0729240e-8, 1.9666666e+1
0.041, 2.5954123e-9, -1.0530495e-8, 2.0000000e+1
0.040, 2.7044504e-9, -1.0414667e-8, 2.0333334e+1
0.039, 2.8042220e-9, -1.0316972e-8, 2.0666668e+1
0.038, 2.9817182e-9, -1.0106725e-8, 2.1000002e+1
0.037, 3.0934719e-9, -9.9680513e-9, 2.1333336e+1
0.036, 3.2497995e-9, -9.8831379e-9, 2.1666670e+1
0.035, 3.4345649e-9, -9.7242543e-9, 2.2000004e+1
0.034, 3.4840115e-9, -9.5706421e-9, 2.2333338e+1
0.033, 3.6407386e-9, -9.4738262e-9, 2.2666672e+1
0.032, 3.7121524e-9, -9.4037702e-9, 2.3000006e+1
0.031, 3.8019388e-9, -9.2894599e-9, 2.3333340e+1
0.030, 4.0777688e-9, -9.1265830e-9, 2.3666674e+1
0.029, 4.1157922e-9, -9.0154675e-9, 2.4000008e+1
0.028, 4.1150732e-9, -8.9552374e-9, 2.4333342e+1
0.027, 4.4603201e-9, -8.8811873e-9, 2.4666676e+1
0.026, 4.3702939e-9, -8.7557730e-9, 2.5000010e+1
0.025, 4.5955586e-9, -8.6069551e-9, 2.5333344e+1
0.024, 4.6111359e-9, -8.5153316e-9, 2.5666677e+1
0.023, 4.6910968e-9, -8.4766683e-9, 2.6000011e+1
0.022, 4.6910169e-9, -8.4018206e-9, 2.6333345e+1
0.021, 4.8943147e-9, -8.3360776e-9, 2.6666679e+1
0.020, 4.9945656e-9, -8.2014777e-9, 2.7000013e+1
0.019, 5.0787605e-9, -8.0651201e-9, 2.7333347e+1
0.018, 5.0866684e-9, -8.0245410e-9, 2.7666681e+1
0.017, 5.2001803e-9, -7.9722984e-9, 2.8000015e+1
0.016, 5.2624074e-9, -7.9097520e-9, 2.8333349e+1
0.015, 5.3772768e-9, -7.8333047e-9, 2.8666683e+1
0.014, 5.5540541e-9, -7.6987048e-9, 2.9000017e+1
0.013, 5.5268141e-9, -7.5974160e-9, 2.9333351e+1
0.012, 5.5690714e-9, -7.5319138e-9, 2.9666685e+1
0.011, 5.6490324e-9, -7.5041946e-9, 3.0000019e+1
0.010, 5.6501510e-9, -7.4652924e-9, 3.0333353e+1
0.009, 5.7586300e-9, -7.4037039e-9, 3.0666687e+1
0.008, 5.8929102e-9, -7.3592901e-9, 3.1000021e+1
0.007, 5.9698357e-9, -7.2698230e-9, 3.1333355e+1
0.006, 6.1061929e-9, -7.0830608e-9, 3.1666689e+1
0.005, 6.0851844e-9, -7.1172499e-9, 3.2000023e+1
0.004, 6.0814300e-9, -7.0472739e-9, 3.2333355e+1
0.003, 6.1588348e-9, -7.0106081e-9, 3.2666687e+1
0.002, 6.1814411e-9, -6.9840080e-9, 3.3000019e+1
0.001, 6.4557533e-9, -6.9338428e-9, 3.3333351e+1
-0.000, 6.2504584e-9, -6.9004522e-9, 3.3666683e+1
-0.001, 6.5375514e-9, -6.7915740e-9, 3.4000015e+1
-0.002, 6.5248504e-9, -6.7811894e-9, 3.4333347e+1
-0.003, 6.5556049e-9, -6.6662400e-9, 3.4666679e+1
-0.004, 6.5914714e-9, -6.6115216e-9, 3.5000011e+1
-0.005, 6.6822166e-9, -6.5609567e-9, 3.5333344e+1
-0.006, 6.6468293e-9, -6.5535279e-9, 3.5666676e+1
-0.007, 6.7660921e-9, -6.5070371e-9, 3.6000008e+1
-0.008, 6.8408608e-9, -6.4690138e-9, 3.6333340e+1
-0.009, 6.8808808e-9, -6.4230816e-9, 3.6666672e+1
-0.010, 6.9371975e-9, -6.3859376e-9, 3.7000004e+1
-0.011, 7.0066140e-9, -6.3257866e-9, 3.7333336e+1
-0.012, 7.0099690e-9, -6.1945418e-9, 3.7666668e+1
-0.013, 7.0290609e-9, -6.1499676e-9, 3.8000000e+1
-0.014, 7.0475132e-9, -6.0908558e-9, 3.8333332e+1
-0.015, 7.2004060e-9, -6.0658532e-9, 3.8666664e+1
-0.016, 7.1070247e-9, -6.0387730e-9, 3.8999996e+1
-0.017, 7.1299509e-9, -6.0411698e-9, 3.9333328e+1
-0.018, 7.2874768e-9, -5.9979541e-9, 3.9666660e+1
-0.019, 7.3108817e-9, -5.9850929e-9, 3.9999992e+1
-0.020, 7.3775031e-9, -5.9307736e-9, 4.0333324e+1
-0.021, 7.5112236e-9, -5.8439427e-9, 4.0666656e+1
-0.022, 7.4403697e-9, -5.7963336e-9, 4.0999989e+1
-0.023, 7.4811091e-9, -5.7434524e-9, 4.1333321e+1
-0.024, 7.5325524e-9, -5.6801062e-9, 4.1666653e+1
-0.025, 7.5233659e-9, -5.6253877e-9, 4.1999985e+1
-0.026, 7.5754487e-9, -5.5957519e-9, 4.2333317e+1
-0.027, 7.5645854e-9, -5.5788170e-9, 4.2666649e+1
-0.028, 7.6232975e-9, -5.5758616e-9, 4.2999981e+1
-0.029, 7.7388851e-9, -5.5425509e-9, 4.3333313e+1
-0.030, 7.5887092e-9, -5.5305684e-9, 4.3666645e+1
-0.031, 7.7781070e-9, -5.5018914e-9, 4.3999977e+1
-0.032, 7.5676203e-9, -5.4864744e-9, 4.4333309e+1
-0.033, 7.6906375e-9, -5.4308771e-9, 4.4666641e+1
-0.034, 7.8745241e-9, -5.4518856e-9, 4.4999973e+1
-0.035, 7.6850464e-9, -5.4120251e-9, 4.5333305e+1
-0.036, 7.8770004e-9, -5.3302265e-9, 4.5666637e+1
-0.037, 8.0051299e-9, -5.3466818e-9, 4.5999969e+1
-0.038, 7.9519289e-9, -5.1904343e-9, 4.6333302e+1
-0.039, 7.9500913e-9, -5.2114433e-9, 4.6666634e+1
-0.040, 8.0297333e-9, -5.1635944e-9, 4.6999966e+1
-0.041, 8.0110407e-9, -5.1133493e-9, 4.7333298e+1
-0.042, 8.0391596e-9, -5.0948166e-9, 4.7666630e+1
-0.043, 8.0235028e-9, -5.0643019e-9, 4.7999962e+1
-0.044, 8.0435525e-9, -5.0820357e-9, 4.8333294e+1
-0.045, 7.9509705e-9, -5.0799587e-9, 4.8666626e+1
-0.046, 8.0491445e-9, -5.0557545e-9, 4.8999958e+1
-0.047, 8.0592892e-9, -5.0388995e-9, 4.9333290e+1
-0.048, 8.0413161e-9, -5.0115800e-9, 4.9666622e+1
-0.049, 8.0378015e-9, -4.9900124e-9, 4.9999954e+1
-0.050, 8.1953271e-9, -4.9725184e-9, 5.0333286e+1
-0.051, 8.1813480e-9, -4.9429620e-9, 5.0666618e+1
-0.052, 8.0604075e-9, -4.9284239e-9, 5.0999950e+1
-0.053, 8.2372642e-9, -4.9226725e-9, 5.1333282e+1
-0.054, 8.1714422e-9, -4.8247384e-9, 5.1666615e+1
-0.055, 8.1920524e-9, -4.8573296e-9, 5.1999947e+1
-0.056, 8.3021288e-9, -4.7785664e-9, 5.2333279e+1
-0.057, 8.1878984e-9, -4.7001234e-9, 5.2666611e+1
-0.058, 8.3134708e-9, -4.6820703e-9, 5.2999943e+1
-0.059, 8.3315248e-9, -4.6554698e-9, 5.3333275e+1
-0.060, 8.3024476e-9, -4.6795940e-9, 5.3666607e+1
-0.061, 8.2098657e-9, -4.6192037e-9, 5.3999939e+1
-0.062, 8.4026190e-9, -4.6120943e-9, 5.4333271e+1
-0.063, 8.2892671e-9, -4.6077808e-9, 5.4666603e+1
-0.064, 8.3454239e-9, -4.5878101e-9, 5.4999935e+1
-0.065, 8.2059515e-9, -4.5870117e-9, 5.5333267e+1
-0.066, 8.3716252e-9, -4.5801416e-9, 5.5666599e+1
-0.067, 8.3727434e-9, -4.5636064e-9, 5.5999931e+1
-0.068, 8.3580449e-9, -4.5571360e-9, 5.6333263e+1
-0.069, 8.4559790e-9, -4.5334114e-9, 5.6666595e+1
-0.070, 8.4134824e-9, -4.5170356e-9, 5.6999928e+1
-0.071, 8.4047755e-9, -4.5060919e-9, 5.7333260e+1
-0.072, 8.4603728e-9, -4.4773345e-9, 5.7666592e+1
-0.073, 8.4196339e-9, -4.4774144e-9, 5.7999924e+1
-0.074, 8.4058147e-9, -4.4630362e-9, 5.8333256e+1
-0.075, 8.4368876e-9, -4.4551278e-9, 5.8666588e+1
-0.076, 8.4267429e-9, -4.4015276e-9, 5.8999920e+1
-0.077, 8.4893701e-9, -4.3581516e-9, 5.9333252e+1
-0.078, 8.4361691e-9, -4.3494448e-9, 5.9666584e+1
-0.079, 8.4531040e-9, -4.3566337e-9, 5.9999916e+1
-0.080, 8.4460741e-9, -4.3198085e-9, 6.0333248e+1
-0.081, 8.4055749e-9, -4.2420840e-9, 6.0666580e+1
-0.082, 8.4847374e-9, -4.2446406e-9, 6.0999912e+1
-0.083, 8.4540623e-9, -4.2472768e-9, 6.1333244e+1
-0.084, 8.4513463e-9, -4.1784989e-9, 6.1666576e+1
-0.085, 8.5020710e-9, -4.1500612e-9, 6.1999908e+1
-0.086, 8.4725151e-9, -4.1325672e-9, 6.2333241e+1
-0.087, 8.4442373e-9, -4.1356030e-9, 6.2666573e+1
-0.088, 8.5096596e-9, -4.1213837e-9, 6.2999905e+1
-0.089, 8.4401632e-9, -4.1117181e-9, 6.3333237e+1
-0.090, 8.4628491e-9, -4.1050079e-9, 6.3666569e+1
-0.091, 8.4893701e-9, -4.0978190e-9, 6.3999901e+1
-0.092, 8.4870537e-9, -4.0932657e-9, 6.4333237e+1
-0.093, 8.4945624e-9, -4.0863162e-9, 6.4666573e+1
-0.094, 8.4671621e-9, -4.0685824e-9, 6.4999908e+1
-0.095, 8.5037488e-9, -4.0676236e-9, 6.5333244e+1
-0.096, 8.4832195e-9, -4.0581178e-9, 6.5666580e+1
-0.097, 8.4659648e-9, -4.0482924e-9, 6.5999916e+1
-0.098, 8.5392156e-9, -4.0161803e-9, 6.6333252e+1
-0.099, 8.4971186e-9, -4.0252068e-9, 6.6666588e+1
-0.100, 8.5031893e-9, -3.9843875e-9, 6.6999924e+1
-0.101, 8.5479233e-9, -3.9803933e-9, 6.7333260e+1
-0.102, 8.4781062e-9, -4.0009227e-9, 6.7666595e+1
-0.103, 8.5337843e-9, -3.9533936e-9, 6.7999931e+1
-0.104, 8.5226803e-9, -3.9692898e-9, 6.8333267e+1
-0.105, 8.5142924e-9, -3.9660151e-9, 6.8666603e+1
-0.106, 8.5126954e-9, -3.9245567e-9, 6.8999939e+1
-0.107, 8.5086214e-9, -3.9154502e-9, 6.9333275e+1
-0.108, 8.5141334e-9, -3.9130534e-9, 6.9666611e+1
-0.109, 8.5467242e-9, -3.8503467e-9, 6.9999947e+1
-0.110, 8.5424912e-9, -3.7905954e-9, 7.0333282e+1
-0.111, 8.5291507e-9, -3.8047343e-9, 7.0666618e+1
-0.112, 8.5560714e-9, -3.8057730e-9, 7.0999954e+1
-0.113, 8.4806633e-9, -3.8306958e-9, 7.1333290e+1
-0.114, 8.5690921e-9, -3.7890779e-9, 7.1666626e+1
-0.115, 8.5100593e-9, -3.7693471e-9, 7.1999962e+1
-0.116, 8.4796241e-9, -3.7429864e-9, 7.2333298e+1
-0.117, 8.5622212e-9, -3.7149481e-9, 7.2666634e+1
-0.118, 8.5341831e-9, -3.7078385e-9, 7.2999969e+1
-0.119, 8.5344229e-9, -3.6819570e-9, 7.3333305e+1
-0.120, 8.5584668e-9, -3.6855519e-9, 7.3666641e+1
-0.121, 8.5133349e-9, -3.6587917e-9, 7.3999977e+1
-0.122, 8.5342631e-9, -3.6480874e-9, 7.4333313e+1
-0.123, 8.5472838e-9, -3.6472887e-9, 7.4666649e+1
-0.124, 8.5595850e-9, -3.6320313e-9, 7.4999985e+1
-0.125, 8.5429699e-9, -3.6280372e-9, 7.5333321e+1
-0.126, 8.5308285e-9, -3.6342680e-9, 7.5666656e+1
-0.127, 8.5433696e-9, -3.6173333e-9, 7.5999992e+1
-0.128, 8.5613427e-9, -3.6202890e-9, 7.6333328e+1
-0.129, 8.5439291e-9, -3.6119010e-9, 7.6666664e+1
-0.130, 8.5622212e-9, -3.6067889e-9, 7.7000000e+1
-0.131, 8.5412131e-9, -3.5992802e-9, 7.7333336e+1
-0.132, 8.6103098e-9, -3.6079071e-9, 7.7666672e+1
-0.133, 8.6011243e-9, -3.5876173e-9, 7.8000008e+1
-0.134, 8.5479233e-9, -3.5939280e-9, 7.8333344e+1
-0.135, 8.5667748e-9, -3.5836232e-9, 7.8666679e+1
-0.136, 8.6245295e-9, -3.5733982e-9, 7.9000015e+1
-0.137, 8.5889820e-9, -3.5719607e-9, 7.9333351e+1
-0.138, 8.6168601e-9, -3.5676468e-9, 7.9666687e+1
-0.139, 8.5563903e-9, -3.5757948e-9, 8.0000023e+1
-0.140, 8.6326768e-9, -3.5643719e-9, 8.0333359e+1
-0.141, 8.5712477e-9, -3.5399281e-9, 8.0666695e+1
-0.142, 8.5920968e-9, -3.5448808e-9, 8.1000031e+1
-0.143, 8.6055172e-9, -3.5466385e-9, 8.1333366e+1
-0.144, 8.6632719e-9, -3.5204373e-9, 8.1666702e+1
-0.145, 8.5734841e-9, -3.5124492e-9, 8.2000038e+1
-0.146, 8.7561736e-9, -3.5081353e-9, 8.2333374e+1
-0.147, 8.7452294e-9, -3.5193191e-9, 8.2666710e+1
-0.148, 8.5416918e-9, -3.5035026e-9, 8.3000046e+1
-0.149, 8.7255785e-9, -3.4761831e-9, 8.3333382e+1
-0.150, 8.6146237e-9, -3.4919996e-9, 8.3666718e+1
-0.151, 8.6894723e-9, -3.4777008e-9, 8.4000053e+1
-0.152, 8.7527381e-9, -3.4638015e-9, 8.4333389e+1
-0.153, 8.6496916e-9, -3.4802572e-9, 8.4666725e+1
-0.154, 8.6816438e-9, -3.4540562e-9, 8.5000061e+1
-0.155, 8.6946645e-9, -3.4494230e-9, 8.5333397e+1
-0.156, 8.8751158e-9, -3.4509406e-9, 8.5666733e+1
-0.157, 8.8463592e-9, -3.3994969e-9, 8.6000069e+1
-0.158, 8.8137675e-9, -3.4025327e-9, 8.6333405e+1
-0.159, 8.9506846e-9, -3.3846390e-9, 8.6666740e+1
-0.160, 8.8857410e-9, -3.4029319e-9, 8.7000076e+1
-0.161, 8.8634540e-9, -3.4156331e-9, 8.7333412e+1
-0.162, 8.9180929e-9, -3.3108287e-9, 8.7666748e+1
-0.163, 8.8712824e-9, -3.3765710e-9, 8.8000084e+1
-0.164, 8.8959649e-9, -3.3245684e-9, 8.8333420e+1
-0.165, 9.0043644e-9, -3.3240892e-9, 8.8666756e+1
-0.166, 8.9143377e-9, -3.3126659e-9, 8.9000092e+1
-0.167, 8.9636245e-9, -3.3179384e-9, 8.9333427e+1
-0.168, 9.0050829e-9, -3.2565897e-9, 8.9666763e+1
-0.169, 9.0016483e-9, -3.2560303e-9, 9.0000099e+1
-0.170, 9.0063610e-9, -3.2525953e-9, 9.0333435e+1
-0.171, 9.0288079e-9, -3.2193650e-9, 9.0666771e+1
-0.172, 9.0179437e-9, -3.2266341e-9, 9.1000107e+1
-0.173, 9.0252925e-9, -3.2025897e-9, 9.1333443e+1
-0.174, 9.0143493e-9, -3.1954006e-9, 9.1666779e+1
-0.175, 9.0574854e-9, -3.1922054e-9, 9.2000114e+1
-0.176, 9.0712247e-9, -3.1728742e-9, 9.2333450e+1
-0.177, 9.0423873e-9, -3.1692793e-9, 9.2666786e+1
-0.178, 9.2444070e-9, -3.1743117e-9, 9.3000122e+1
-0.179, 9.1360084e-9, -3.1618503e-9, 9.3333458e+1
-0.180, 9.1860137e-9, -3.1826195e-9, 9.3666794e+1
-0.181, 9.3428207e-9, -3.1723149e-9, 9.4000130e+1
-0.182, 9.2603836e-9, -3.1578564e-9, 9.4333466e+1
-0.183, 9.3229300e-9, -3.1520249e-9, 9.4666801e+1
-0.184, 9.3818029e-9, -3.1480309e-9, 9.5000137e+1
-0.185, 9.3653467e-9, -3.1403624e-9, 9.5333473e+1
-0.186, 9.4127968e-9, -3.1337322e-9, 9.5666809e+1
-0.187, 9.4123980e-9, -3.1373266e-9, 9.6000145e+1
-0.188, 9.4616039e-9, -3.1406817e-9, 9.6333481e+1
-0.189, 9.4890034e-9, -3.1275016e-9, 9.6666817e+1
-0.190, 9.4643999e-9, -3.1275813e-9, 9.7000153e+1
-0.191, 9.5245509e-9, -3.1255045e-9, 9.7333488e+1
-0.192, 9.4998676e-9, -3.1208713e-9, 9.7666824e+1
-0.193, 9.4900425e-9, -3.1262235e-9, 9.8000160e+1
-0.194, 9.5980415e-9, -3.1117648e-9, 9.8333496e+1
-0.195, 9.5342170e-9, -3.1124039e-9, 9.8666832e+1
-0.196, 9.5795087e-9, -3.0921938e-9, 9.9000168e+1
-0.197, 9.7280886e-9, -3.1188743e-9, 9.9333504e+1
-0.198, 9.5493933e-9, -3.1058536e-9, 9.9666840e+1
-0.199, 9.7171444e-9, -3.1064127e-9, 1.0000018e+2
-0.200, 9.7158663e-9, -3.1108860e-9, 1.0033351e+2
-0.201, 9.7001305e-9, -3.0992235e-9, 1.0066685e+2
-0.202, 9.7880788e-9, -3.0918743e-9, 1.0100018e+2
-0.203, 9.7858424e-9, -3.0897176e-9, 1.0133352e+2
-0.204, 9.8900070e-9, -3.0858833e-9, 1.0166685e+2
-0.205, 9.6215267e-9, -3.0997827e-9, 1.0200019e+2
-0.206, 9.8729922e-9, -3.0786940e-9, 1.0233353e+2
-0.207, 9.9692494e-9, -3.0596023e-9, 1.0266686e+2
-0.208, 9.9665334e-9, -3.0969070e-9, 1.0300020e+2
-0.209, 9.9913766e-9, -3.0810905e-9, 1.0333353e+2
-0.210, 1.0005117e-8, -3.0385936e-9, 1.0366687e+2
-0.211, 9.9848263e-9, -3.0691880e-9, 1.0400021e+2
-0.212, 1.0009829e-8, -3.0615197e-9, 1.0433354e+2
-0.213, 1.0128453e-8, -3.0715845e-9, 1.0466688e+2
-0.214, 1.0030519e-8, -3.0612000e-9, 1.0500021e+2
-0.215, 1.0177341e-8, -3.0311647e-9, 1.0533355e+2
-0.216, 1.0209772e-8, -3.0504959e-9, 1.0566689e+2
-0.217, 1.0128053e-8, -3.0572858e-9, 1.0600022e+2
-0.218, 1.0240207e-8, -3.0445846e-9, 1.0633356e+2
-0.219, 1.0336623e-8, -3.0389131e-9, 1.0666689e+2
-0.220, 1.0350842e-8, -3.0520935e-9, 1.0700023e+2
-0.221, 1.0412990e-8, -3.0415492e-9, 1.0733356e+2
-0.222, 1.0383035e-8, -3.0574456e-9, 1.0766690e+2
-0.223, 1.0472821e-8, -3.0524929e-9, 1.0800024e+2
-0.224, 1.0500460e-8, -3.0342002e-9, 1.0833357e+2
-0.225, 1.0503335e-8, -3.0516942e-9, 1.0866691e+2
-0.226, 1.0547909e-8, -3.0381144e-9, 1.0900024e+2
-0.227, 1.0555738e-8, -3.0564868e-9, 1.0933358e+2
-0.228, 1.0525383e-8, -3.0383538e-9, 1.0966692e+2
-0.229, 1.0616847e-8, -3.0516143e-9, 1.1000025e+2
-0.230, 1.0621959e-8, -3.0245346e-9, 1.1033359e+2
-0.231, 1.0632664e-8, -3.0339604e-9, 1.1066692e+2
-0.232, 1.0808802e-8, -3.0555285e-9, 1.1100026e+2
-0.233, 1.0750089e-8, -3.0580047e-9, 1.1133360e+2
-0.234, 1.0775171e-8, -3.0596823e-9, 1.1166693e+2
-0.235, 1.0897230e-8, -3.0578449e-9, 1.1200027e+2
-0.236, 1.0930381e-8, -3.0515344e-9, 1.1233360e+2
-0.237, 1.0941084e-8, -3.0640757e-9, 1.1266694e+2
-0.238, 1.0953785e-8, -3.0720639e-9, 1.1300027e+2
-0.239, 1.0979348e-8, -3.0731822e-9, 1.1333361e+2
-0.240, 1.0989333e-8, -3.0651142e-9, 1.1366695e+2
-0.241, 1.0988055e-8, -3.0741407e-9, 1.1400028e+2
-0.242, 1.1087827e-8, -3.0798921e-9, 1.1433362e+2
-0.243, 1.1209726e-8, -3.0897975e-9, 1.1466695e+2
-0.244, 1.1142306e-8, -3.0793330e-9, 1.1500029e+2
-0.245, 1.1323956e-8, -3.1053742e-9, 1.1533363e+2
-0.246, 1.1322198e-8, -3.0989040e-9, 1.1566696e+2
-0.247, 1.1357106e-8, -3.1097678e-9, 1.1600030e+2
-0.248, 1.1425644e-8, -3.0939513e-9, 1.1633363e+2
-0.249, 1.1421092e-8, -3.1056140e-9, 1.1666697e+2
-0.250, 1.1449369e-8, -3.1086493e-9, 1.1700031e+2
-0.251, 1.1481162e-8, -3.1186347e-9, 1.1733364e+2
-0.252, 1.1484836e-8, -3.1183149e-9, 1.1766698e+2
-0.253, 1.1486434e-8, -3.1152796e-9, 1.1800031e+2
-0.254, 1.1556410e-8, -3.1273417e-9, 1.1833365e+2
-0.255, 1.1702353e-8, -3.1326939e-9, 1.1866698e+2
-0.256, 1.1709703e-8, -3.1308565e-9, 1.1900032e+2
-0.257, 1.1730311e-8, -3.1324541e-9, 1.1933366e+2
-0.258, 1.1887678e-8, -3.1473919e-9, 1.1966699e+2
-0.259, 1.1884163e-8, -3.1418801e-9, 1.2000033e+2
-0.260, 1.1920429e-8, -3.1533831e-9, 1.2033366e+2
-0.261, 1.1974269e-8, -3.1755101e-9, 1.2066700e+2
-0.262, 1.1946151e-8, -3.1811018e-9, 1.2100034e+2
-0.263, 1.2001588e-8, -3.1874920e-9, 1.2133367e+2
-0.264, 1.2039771e-8, -3.1815808e-9, 1.2166701e+2
-0.265, 1.2085943e-8, -3.1862140e-9, 1.2200034e+2
-0.266, 1.2125963e-8, -3.1973175e-9, 1.2233368e+2
-0.267, 1.2104236e-8, -3.1995542e-9, 1.2266702e+2
-0.268, 1.2303619e-8, -3.2565897e-9, 1.2300035e+2
-0.269, 1.2369920e-8, -3.2480423e-9, 1.2333369e+2
-0.270, 1.2357459e-8, -3.3141836e-9, 1.2366702e+2
-0.271, 1.2413056e-8, -3.2158503e-9, 1.2400036e+2
-0.272, 1.2432148e-8, -3.3011631e-9, 1.2433369e+2
-0.273, 1.2448204e-8, -3.2512375e-9, 1.2466703e+2
-0.274, 1.2468734e-8, -3.2849472e-9, 1.2500037e+2
-0.275, 1.2525769e-8, -3.2921368e-9, 1.2533370e+2
-0.276, 1.2516582e-8, -3.3335150e-9, 1.2566704e+2
-0.277, 1.2589914e-8, -3.3047580e-9, 1.2600037e+2
-0.278, 1.2540707e-8, -3.3522074e-9, 1.2633371e+2
-0.279, 1.2594627e-8, -3.2930951e-9, 1.2666705e+2
-0.280, 1.2792174e-8, -3.3337548e-9, 1.2700038e+2
-0.281, 1.2667718e-8, -3.3289620e-9, 1.2733372e+2
-0.282, 1.2796407e-8, -3.3703402e-9, 1.2766705e+2
-0.283, 1.2808148e-8, -3.4083638e-9, 1.2800038e+2
-0.284, 1.2863267e-8, -3.3906304e-9, 1.2833371e+2
-0.285, 1.2896578e-8, -3.3825622e-9, 1.2866704e+2
-0.286, 1.2909278e-8, -3.4234613e-9, 1.2900037e+2
-0.287, 1.2955371e-8, -3.4089231e-9, 1.2933369e+2
-0.288, 1.2943309e-8, -3.3935856e-9, 1.2966702e+2
-0.289, 1.2961840e-8, -3.3911094e-9, 1.3000035e+2
-0.290, 1.3043718e-8, -3.3784084e-9, 1.3033368e+2
-0.291, 1.3089012e-8, -3.4121181e-9, 1.3066701e+2
-0.292, 1.3079665e-8, -3.4226626e-9, 1.3100034e+2
-0.293, 1.3306688e-8, -3.4069259e-9, 1.3133366e+2
-0.294, 1.3169451e-8, -3.4165915e-9, 1.3166699e+2
-0.295, 1.3251250e-8, -3.4377601e-9, 1.3200032e+2
-0.296, 1.3364202e-8, -3.4375207e-9, 1.3233365e+2
-0.297, 1.3360128e-8, -3.4102809e-9, 1.3266698e+2
-0.298, 1.3363325e-8, -3.4205858e-9, 1.3300031e+2
-0.299, 1.3403984e-8, -3.4361625e-9, 1.3333363e+2
-0.300, 1.3430903e-8, -3.3915888e-9, 1.3366696e+2
-0.301, 1.3420758e-8, -3.4533372e-9, 1.3400029e+2
-0.302, 1.3398391e-8, -3.4470264e-9, 1.3433362e+2
-0.303, 1.3457424e-8, -3.4405561e-9, 1.3466695e+2
-0.304, 1.3426749e-8, -3.4473460e-9, 1.3500027e+2
-0.305, 1.3519651e-8, -3.4332071e-9, 1.3533360e+2
-0.306, 1.3553521e-8, -3.4587688e-9, 1.3566693e+2
-0.307, 1.3509267e-8, -3.4473460e-9, 1.3600026e+2
-0.308, 1.3578604e-8, -3.4497423e-9, 1.3633359e+2
-0.309, 1.3755301e-8, -3.4522984e-9, 1.3666692e+2
-0.310, 1.3647941e-8, -3.4355234e-9, 1.3700024e+2
-0.311, 1.3813055e-8, -3.4377601e-9, 1.3733357e+2
-0.312, 1.3789250e-8, -3.4659584e-9, 1.3766690e+2
-0.313, 1.3732694e-8, -3.4251388e-9, 1.3800023e+2
-0.314, 1.3871129e-8, -3.3927072e-9, 1.3833356e+2
-0.315, 1.3855632e-8, -3.4455885e-9, 1.3866689e+2
-0.316, 1.3883190e-8, -3.4280945e-9, 1.3900021e+2
-0.317, 1.3881514e-8, -3.4751446e-9, 1.3933354e+2
-0.318, 1.3889181e-8, -3.4661181e-9, 1.3966687e+2
-0.319, 1.3973136e-8, -3.4221832e-9, 1.4000020e+2
-0.320, 1.3871208e-8, -3.4747452e-9, 1.4033353e+2
-0.321, 1.3910590e-8, -3.4689140e-9, 1.4066685e+2
-0.322, 1.3973297e-8, -3.4693930e-9, 1.4100018e+2
-0.323, 1.3941744e-8, -3.4376004e-9, 1.4133351e+2
-0.324, 1.3973297e-8, -3.4485441e-9, 1.4166684e+2
-0.325, 1.4019069e-8, -3.4618042e-9, 1.4200017e+2
-0.326, 1.4000856e-8, -3.4430321e-9, 1.4233350e+2
-0.327, 1.3993347e-8, -3.4655590e-9, 1.4266682e+2
-0.328, 1.4207029e-8, -3.4359229e-9, 1.4300015e+2
-0.329, 1.4099589e-8, -3.4545351e-9, 1.4333348e+2
-0.330, 1.4215336e-8, -3.4663576e-9, 1.4366681e+2
-0.331, 1.4156625e-8, -3.4449497e-9, 1.4400014e+2
-0.332, 1.4233550e-8, -3.4530971e-9, 1.4433347e+2
-0.333, 1.4329887e-8, -3.4398371e-9, 1.4466679e+2
-0.334, 1.4193689e-8, -3.4713101e-9, 1.4500012e+2
-0.335, 1.4346342e-8, -3.4778607e-9, 1.4533345e+2
-0.336, 1.4370306e-8, -3.4534968e-9, 1.4566678e+2
-0.337, 1.4329887e-8, -3.4627627e-9, 1.4600011e+2
-0.338, 1.4391475e-8, -3.4773016e-9, 1.4633344e+2
-0.339, 1.4367670e-8, -3.4708310e-9, 1.4666676e+2
-0.340, 1.4370866e-8, -3.4568519e-9, 1.4700009e+2
-0.341, 1.4408490e-8, -3.4731473e-9, 1.4733342e+2
-0.342, 1.4394431e-8, -3.4522187e-9, 1.4766675e+2
-0.343, 1.4394272e-8, -3.4598076e-9, 1.4800008e+2
-0.344, 1.4427981e-8, -3.4780205e-9, 1.4833340e+2
-0.345, 1.4391954e-8, -3.4761831e-9, 1.4866673e+2
-0.346, 1.4415678e-8, -3.4641210e-9, 1.4900006e+2
-0.347, 1.4442439e-8, -3.4564525e-9, 1.4933339e+2
-0.348, 1.4458655e-8, -3.4603667e-9, 1.4966672e+2
-0.349, 1.4444277e-8, -3.4880854e-9, 1.5000005e+2
-0.350, 1.4472634e-8, -3.4475054e-9, 1.5033337e+2
-0.351, 1.4484456e-8, -3.4749050e-9, 1.5066670e+2
-0.352, 1.4497317e-8, -3.4773813e-9, 1.5100003e+2
-0.353, 1.4484856e-8, -3.4764227e-9, 1.5133336e+2
-0.354, 1.4530468e-8, -3.4717098e-9, 1.5166669e+2
-0.355, 1.4494122e-8, -3.4661181e-9, 1.5200002e+2
-0.356, 1.4504586e-8, -3.4904017e-9, 1.5233334e+2
-0.357, 1.4541811e-8, -3.4618042e-9, 1.5266667e+2
-0.358, 1.4541811e-8, -3.4931977e-9, 1.5300000e+2
-0.359, 1.4575362e-8, -3.4779404e-9, 1.5333333e+2
-0.360, 1.4631838e-8, -3.4914405e-9, 1.5366666e+2
-0.361, 1.4516169e-8, -3.4924788e-9, 1.5399998e+2
-0.362, 1.4631119e-8, -3.4959935e-9, 1.5433331e+2
-0.363, 1.4660116e-8, -3.4820145e-9, 1.5466664e+2
-0.364, 1.4676652e-8, -3.4954344e-9, 1.5499997e+2
-0.365, 1.4732887e-8, -3.4923990e-9, 1.5533330e+2
-0.366, 1.4721385e-8, -3.4955145e-9, 1.5566663e+2
-0.367, 1.4797591e-8, -3.4890439e-9, 1.5599995e+2
-0.368, 1.4791760e-8, -3.5008663e-9, 1.5633328e+2
-0.369, 1.4740237e-8, -3.4930379e-9, 1.5666661e+2
-0.370, 1.4845999e-8, -3.4976710e-9, 1.5699994e+2
-0.371, 1.4814925e-8, -3.4971919e-9, 1.5733327e+2
-0.372, 1.4834416e-8, -3.4969521e-9, 1.5766660e+2
-0.373, 1.4904312e-8, -3.5009462e-9, 1.5799992e+2
-0.374, 1.4850472e-8, -3.5132479e-9, 1.5833325e+2
-0.375, 1.4875636e-8, -3.4999077e-9, 1.5866658e+2
-0.376, 1.4906469e-8, -3.5128487e-9, 1.5899991e+2
-0.377, 1.4874277e-8, -3.5216354e-9, 1.5933324e+2
-0.378, 1.4919490e-8, -3.5195586e-9, 1.5966656e+2
-0.379, 1.4948647e-8, -3.5182803e-9, 1.5999989e+2
-0.380, 1.4920289e-8, -3.5288248e-9, 1.6033322e+2
-0.381, 1.4941138e-8, -3.5179608e-9, 1.6066655e+2
-0.382, 1.4954479e-8, -3.5221945e-9, 1.6099988e+2
-0.383, 1.5038353e-8, -3.5333778e-9, 1.6133321e+2
-0.384, 1.4993939e-8, -3.5314609e-9, 1.6166653e+2
-0.385, 1.5045943e-8, -3.5358545e-9, 1.6199986e+2
-0.386, 1.5169997e-8, -3.5419252e-9, 1.6233319e+2
-0.387, 1.5126702e-8, -3.5357743e-9, 1.6266652e+2
-0.388, 1.5116637e-8, -3.5447210e-9, 1.6299985e+2
-0.389, 1.5289659e-8, -3.5429639e-9, 1.6333318e+2
-0.390, 1.5203707e-8, -3.5424843e-9, 1.6366650e+2
-0.391, 1.5250839e-8, -3.5666086e-9, 1.6399983e+2
-0.392, 1.5327924e-8, -3.5526295e-9, 1.6433316e+2
-0.393, 1.5290858e-8, -3.5606973e-9, 1.6466649e+2
-0.394, 1.5323689e-8, -3.5694843e-9, 1.6499982e+2
-0.395, 1.5363151e-8, -3.5651706e-9, 1.6533315e+2
-0.396, 1.5377049e-8, -3.5495937e-9, 1.6566647e+2
-0.397, 1.5358278e-8, -3.5785108e-9, 1.6599980e+2
-0.398, 1.5376571e-8, -3.5682064e-9, 1.6633313e+2
-0.399, 1.5421145e-8, -3.5715615e-9, 1.6666646e+2
-0.400, 1.5400055e-8, -3.5765138e-9, 1.6699979e+2
-0.401, 1.5391988e-8, -3.5821055e-9, 1.6733311e+2
-0.402, 1.5507975e-8, -3.6011172e-9, 1.6766644e+2
-0.403, 1.5450061e-8, -3.6001586e-9, 1.6799977e+2
-0.404, 1.5532180e-8, -3.5957652e-9, 1.6833310e+2
-0.405, 1.5647927e-8, -3.5960845e-9, 1.6866643e+2
-0.406, 1.5557342e-8, -3.6049514e-9, 1.6899976e+2
-0.407, 1.5612381e-8, -3.6115018e-9, 1.6933308e+2
-0.408, 1.5676045e-8, -3.6139782e-9, 1.6966641e+2
-0.409, 1.5734440e-8, -3.6149368e-9, 1.6999974e+2
-0.410, 1.5851864e-8, -3.6181320e-9, 1.7033307e+2
-0.411, 1.5787160e-8, -3.6166143e-9, 1.7066640e+2
-0.412, 1.5854500e-8, -3.6245225e-9, 1.7099973e+2
-0.413, 1.5862248e-8, -3.6252414e-9, 1.7133305e+2
-0.414, 1.5857136e-8, -3.6281174e-9, 1.7166638e+2
-0.415, 1.5901630e-8, -3.6348273e-9, 1.7199971e+2
-0.416, 1.5926155e-8, -3.6330696e-9, 1.7233304e+2
-0.417, 1.5900671e-8, -3.6365047e-9, 1.7266637e+2
-0.418, 1.6037827e-8, -3.6695758e-9, 1.7299969e+2
-0.419, 1.5979435e-8, -3.6589511e-9, 1.7333302e+2
-0.420, 1.6047174e-8, -3.6603094e-9, 1.7366635e+2
-0.421, 1.6269164e-8, -3.6618271e-9, 1.7399968e+2
-0.422, 1.6243600e-8, -3.6941790e-9, 1.7433301e+2
-0.423, 1.6279069e-8, -3.7107941e-9, 1.7466634e+2
-0.424, 1.6314695e-8, -3.7223771e-9, 1.7499966e+2
-0.425, 1.6346648e-8, -3.7279690e-9, 1.7533299e+2
-0.426, 1.6349524e-8, -3.7662318e-9, 1.7566632e+2
-0.427, 1.6380039e-8, -3.7813295e-9, 1.7599965e+2
-0.428, 1.6423176e-8, -3.7921932e-9, 1.7633298e+2
-0.429, 1.6474219e-8, -3.8302965e-9, 1.7666631e+2
-0.430, 1.6494509e-8, -3.8461927e-9, 1.7699963e+2
-0.431, 1.6610976e-8, -3.8799826e-9, 1.7733296e+2
-0.432, 1.6663858e-8, -3.8791037e-9, 1.7766629e+2
-0.433, 1.6713145e-8, -3.8940420e-9, 1.7799962e+2
-0.434, 1.6819625e-8, -3.9105772e-9, 1.7833295e+2
-0.435, 1.6826094e-8, -3.9204022e-9, 1.7866628e+2
-0.436, 1.6826334e-8, -3.9696895e-9, 1.7899960e+2
-0.437, 1.6934415e-8, -3.9679318e-9, 1.7933293e+2
-0.438, 1.6902542e-8, -3.9705679e-9, 1.7966626e+2
-0.439, 1.6972518e-8, -3.9942929e-9, 1.7999959e+2
-0.440, 1.7145062e-8, -3.9819912e-9, 1.8033292e+2
-0.441, 1.7150413e-8, -4.0220116e-9, 1.8066624e+2
-0.442, 1.7273909e-8, -4.0306385e-9, 1.8099957e+2
-0.443, 1.7278863e-8, -4.0383075e-9, 1.8133290e+2
-0.444, 1.7336616e-8, -4.0434993e-9, 1.8166623e+2
-0.445, 1.7354830e-8, -4.0574788e-9, 1.8199956e+2
-0.446, 1.7369766e-8, -4.0750527e-9, 1.8233289e+2
-0.447, 1.7496140e-8, -4.0783279e-9, 1.8266621e+2
-0.448, 1.7514033e-8, -4.0940642e-9, 1.8299954e+2
-0.449, 1.7630899e-8, -4.0978989e-9, 1.8333287e+2
-0.450, 1.7800726e-8, -4.1063659e-9, 1.8366620e+2
-0.451, 1.7808715e-8, -4.1290522e-9, 1.8399953e+2
-0.452, 1.7828604e-8, -4.1339252e-9, 1.8433286e+2
-0.453, 1.7934049e-8, -4.1529371e-9, 1.8466618e+2
-0.454, 1.7918392e-8, -4.1486232e-9, 1.8499951e+2
-0.455, 1.8060980e-8, -4.1968713e-9, 1.8533284e+2
-0.456, 1.8211715e-8, -4.2074957e-9, 1.8566617e+2
-0.457, 1.8289919e-8, -4.2969628e-9, 1.8599950e+2
-0.458, 1.8326745e-8, -4.3301931e-9, 1.8633282e+2
-0.459, 1.8345197e-8, -4.3464090e-9, 1.8666615e+2
-0.460, 1.8450960e-8, -4.4105537e-9, 1.8699948e+2
-0.461, 1.8489143e-8, -4.4317225e-9, 1.8733281e+2
-0.462, 1.8602414e-8, -4.4660715e-9, 1.8766614e+2
-0.463, 1.8781588e-8, -4.4625565e-9, 1.8799947e+2
-0.464, 1.8793251e-8, -4.5057722e-9, 1.8833279e+2
-0.465, 1.8822327e-8, -4.5096065e-9, 1.8866612e+2
-0.466, 1.9005016e-8, -4.5402011e-9, 1.8899945e+2
-0.467, 1.9049191e-8, -4.5731121e-9, 1.8933278e+2
-0.468, 1.9232917e-8, -4.5787836e-9, 1.8966611e+2
-0.469, 1.9298819e-8, -4.5864521e-9, 1.8999944e+2
-0.470, 1.9303373e-8, -4.5964375e-9, 1.9033276e+2
-0.471, 1.9347226e-8, -4.6064228e-9, 1.9066609e+2
-0.472, 1.9526080e-8, -4.6422093e-9, 1.9099942e+2
-0.473, 1.9653411e-8, -4.6863842e-9, 1.9133275e+2
-0.474, 1.9761412e-8, -4.7141824e-9, 1.9166608e+2
-0.475, 1.9810459e-8, -4.7284812e-9, 1.9199940e+2
-0.476, 1.9883071e-8, -4.8357616e-9, 1.9233273e+2
-0.477, 1.9992269e-8, -4.8971107e-9, 1.9266606e+2
-0.478, 2.0184702e-8, -4.9533466e-9, 1.9299939e+2
-0.479, 2.0275367e-8, -4.9670863e-9, 1.9333272e+2
-0.480, 2.0344945e-8, -4.9940065e-9, 1.9366605e+2
-0.481, 2.0360041e-8, -5.0333879e-9, 1.9399937e+2
-0.482, 2.0668065e-8, -5.0655000e-9, 1.9433270e+2
-0.483, 2.0743073e-8, -5.0841122e-9, 1.9466603e+2
-0.484, 2.0788525e-8, -5.0964939e-9, 1.9499936e+2
-0.485, 2.1018103e-8, -5.1249320e-9, 1.9533269e+2
-0.486, 2.1083286e-8, -5.1944284e-9, 1.9566602e+2
-0.487, 2.1237938e-8, -5.2676796e-9, 1.9599934e+2
-0.488, 2.1283709e-8, -5.3682498e-9, 1.9633267e+2
-0.489, 2.1374614e-8, -5.4150604e-9, 1.9666600e+2
-0.490, 2.1639819e-8, -5.4689004e-9, 1.9699933e+2
-0.491, 2.1707878e-8, -5.5068443e-9, 1.9733266e+2
-0.492, 2.1798703e-8, -5.5414326e-9, 1.9766599e+2
-0.493, 2.1932104e-8, -5.5735447e-9, 1.9799931e+2
-0.494, 2.2183251e-8, -5.5817728e-9, 1.9833264e+2
-0.495, 2.2276073e-8, -5.6327369e-9, 1.9866597e+2
-0.496, 2.2357073e-8, -5.7130976e-9, 1.9899930e+2
-0.497, 2.2492150e-8, -5.7988898e-9, 1.9933263e+2
-0.498, 2.2716778e-8, -5.9330101e-9, 1.9966595e+2
-0.499, 2.2786994e-8, -5.9634453e-9, 1.9999928e+2
