Dec. 20, 2005   23:30:31
Cyclic Voltammetry
File: d:\ida_biofilms\12_10_18_dphzstar\a_760b\10um_pyo\a_10um_pyo_gc_final.txt
Data Source:  Experiment
Instrument Model:  CHI760E
Header: 
Note: 

Init E (V) = 0.1
High E (V) = 0.1
Low E (V) = -0.5
Init P/N = N
Scan Rate (V/s) = 0.003
Segment = 2
Sample Interval (V) = 0.001
Quiet Time (sec) = 2
Sensitivity (A/V) = 1e-7
2nd E (V) = 0.1
Sens 2 (A/V) = 1e-7

Potential/V, i1/A, i2/A, Time/s

0.100, -1.0863490e-7, -6.1091484e-8, 3.3333334e-1
0.099, -8.8099029e-8, -5.3792739e-8, 6.6666669e-1
0.098, -7.5046117e-8, -4.8140741e-8, 1.0000000e+0
0.097, -6.5358279e-8, -4.3477911e-8, 1.3333334e+0
0.096, -5.8004971e-8, -3.9680916e-8, 1.6666667e+0
0.095, -5.1895977e-8, -3.6436461e-8, 2.0000000e+0
0.094, -4.6723983e-8, -3.3718823e-8, 2.3333333e+0
0.093, -4.2488601e-8, -3.1304090e-8, 2.6666665e+0
0.092, -3.8813106e-8, -2.9274627e-8, 2.9999998e+0
0.091, -3.5431174e-8, -2.7285745e-8, 3.3333330e+0
0.090, -3.2500811e-8, -2.5664475e-8, 3.6666663e+0
0.089, -2.9923918e-8, -2.4218703e-8, 3.9999995e+0
0.088, -2.7572376e-8, -2.2951710e-8, 4.3333330e+0
0.087, -2.5502175e-8, -2.1769146e-8, 4.6666665e+0
0.086, -2.3629358e-8, -2.0725818e-8, 5.0000000e+0
0.085, -2.1872930e-8, -1.9761650e-8, 5.3333335e+0
0.084, -2.0209244e-8, -1.8909398e-8, 5.6666670e+0
0.083, -1.8769944e-8, -1.8133433e-8, 6.0000005e+0
0.082, -1.7535857e-8, -1.7372564e-8, 6.3333340e+0
0.081, -1.6207592e-8, -1.6748531e-8, 6.6666675e+0
0.080, -1.5053947e-8, -1.6149102e-8, 7.0000010e+0
0.079, -1.4047684e-8, -1.5563334e-8, 7.3333344e+0
0.078, -1.2866161e-8, -1.5008238e-8, 7.6666679e+0
0.077, -1.2061917e-8, -1.4518087e-8, 8.0000010e+0
0.076, -1.1136013e-8, -1.4081696e-8, 8.3333340e+0
0.075, -1.0311719e-8, -1.3688600e-8, 8.6666670e+0
0.074, -9.6041299e-9, -1.3315635e-8, 9.0000000e+0
0.073, -8.8042800e-9, -1.2885794e-8, 9.3333330e+0
0.072, -8.1830427e-9, -1.2490621e-8, 9.6666660e+0
0.071, -7.6017468e-9, -1.2223498e-8, 9.9999990e+0
0.070, -6.9535910e-9, -1.1896464e-8, 1.0333332e+1
0.069, -6.3216499e-9, -1.1514313e-8, 1.0666665e+1
0.068, -5.7254170e-9, -1.1327950e-8, 1.0999998e+1
0.067, -5.3710636e-9, -1.0979268e-8, 1.1333331e+1
0.066, -4.8539124e-9, -1.0820544e-8, 1.1666664e+1
0.065, -4.2841197e-9, -1.0510765e-8, 1.1999997e+1
0.064, -3.9601216e-9, -1.0329434e-8, 1.2333330e+1
0.063, -3.6155134e-9, -1.0034752e-8, 1.2666663e+1
0.062, -3.1331107e-9, -9.8754693e-9, 1.2999996e+1
0.061, -2.7559917e-9, -9.5922097e-9, 1.3333329e+1
0.060, -2.3623368e-9, -9.4500212e-9, 1.3666662e+1
0.059, -1.9961610e-9, -9.2891410e-9, 1.3999995e+1
0.058, -1.7516447e-9, -9.0273700e-9, 1.4333328e+1
0.057, -1.3186884e-9, -8.9380627e-9, 1.4666661e+1
0.056, -1.0119444e-9, -8.7735872e-9, 1.4999994e+1
0.055, -8.5689494e-10, -8.5650180e-9, 1.5333327e+1
0.054, -4.9615123e-10, -8.4556602e-9, 1.5666660e+1
0.053, -2.9517006e-10, -8.3332017e-9, 1.5999993e+1
0.052, -5.5606211e-11, -8.1774330e-9, 1.6333326e+1
0.051, 1.7628903e-10, -8.0063280e-9, 1.6666660e+1
0.050, 4.2583803e-10, -7.9353937e-9, 1.6999994e+1
0.049, 7.0182771e-10, -7.7821811e-9, 1.7333328e+1
0.048, 8.6774099e-10, -7.5705762e-9, 1.7666662e+1
0.047, 1.0216722e-9, -7.4888575e-9, 1.7999996e+1
0.046, 1.3406379e-9, -7.4350970e-9, 1.8333330e+1
0.045, 1.5057525e-9, -7.3519408e-9, 1.8666664e+1
0.044, 1.6598434e-9, -7.1830719e-9, 1.8999998e+1
0.043, 1.9085937e-9, -7.0519866e-9, 1.9333332e+1
0.042, 2.1064595e-9, -6.9790551e-9, 1.9666666e+1
0.041, 2.1563853e-9, -6.9205024e-9, 2.0000000e+1
0.040, 2.3734226e-9, -6.7668906e-9, 2.0333334e+1
0.039, 2.4860549e-9, -6.6950778e-9, 2.0666668e+1
0.038, 2.6238502e-9, -6.6014567e-9, 2.1000002e+1
0.037, 2.6876754e-9, -6.5390693e-9, 2.1333336e+1
0.036, 3.0444249e-9, -6.4705312e-9, 2.1666670e+1
0.035, 2.9817979e-9, -6.4227628e-9, 2.2000004e+1
0.034, 3.1498681e-9, -6.3020615e-9, 2.2333338e+1
0.033, 3.2792760e-9, -6.1576362e-9, 2.2666672e+1
0.032, 3.4824938e-9, -6.0955689e-9, 2.3000006e+1
0.031, 3.5690051e-9, -6.0583440e-9, 2.3333340e+1
0.030, 3.7727821e-9, -5.9927618e-9, 2.3666674e+1
0.029, 3.7199808e-9, -5.9458714e-9, 2.4000008e+1
0.028, 3.8680006e-9, -5.8897949e-9, 2.4333342e+1
0.027, 4.0885526e-9, -5.7402572e-9, 2.4666676e+1
0.026, 4.0995762e-9, -5.6604557e-9, 2.5000010e+1
0.025, 4.1300110e-9, -5.5903202e-9, 2.5333344e+1
0.024, 4.3539981e-9, -5.5679532e-9, 2.5666677e+1
0.023, 4.4486570e-9, -5.5407936e-9, 2.6000011e+1
0.022, 4.5589732e-9, -5.4917462e-9, 2.6333345e+1
0.021, 4.6036268e-9, -5.4583560e-9, 2.6666679e+1
0.020, 4.6301474e-9, -5.4101075e-9, 2.7000013e+1
0.019, 4.7632298e-9, -5.3321436e-9, 2.7333347e+1
0.018, 4.8312883e-9, -5.2340496e-9, 2.7666681e+1
0.017, 5.0146958e-9, -5.1310827e-9, 2.8000015e+1
0.016, 5.0323496e-9, -5.1057603e-9, 2.8333349e+1
0.015, 5.0719704e-9, -5.0651008e-9, 2.8666683e+1
0.014, 5.2139195e-9, -5.0510418e-9, 2.9000017e+1
0.013, 5.1881979e-9, -5.0239621e-9, 2.9333351e+1
0.012, 5.3207208e-9, -4.9824238e-9, 2.9666685e+1
0.011, 5.5292904e-9, -4.9348943e-9, 3.0000019e+1
0.010, 5.5286518e-9, -4.9086935e-9, 3.0333353e+1
0.009, 5.5713882e-9, -4.8194657e-9, 3.0666687e+1
0.008, 5.6301004e-9, -4.7677826e-9, 3.1000021e+1
0.007, 5.6046185e-9, -4.7125845e-9, 3.1333355e+1
0.006, 5.7690142e-9, -4.6397335e-9, 3.1666689e+1
0.005, 5.8905139e-9, -4.6090589e-9, 3.2000023e+1
0.004, 5.9167946e-9, -4.5896473e-9, 3.2333355e+1
0.003, 6.0242349e-9, -4.5743103e-9, 3.2666687e+1
0.002, 6.0283885e-9, -4.5498667e-9, 3.3000019e+1
0.001, 6.1065122e-9, -4.5322133e-9, 3.3333351e+1
-0.000, 6.0680097e-9, -4.5120827e-9, 3.3666683e+1
-0.001, 6.1898286e-9, -4.4856421e-9, 3.4000015e+1
-0.002, 6.4005556e-9, -4.4318025e-9, 3.4333347e+1
-0.003, 6.3085319e-9, -4.3814770e-9, 3.4666679e+1
-0.004, 6.4099015e-9, -4.3770036e-9, 3.5000011e+1
-0.005, 6.5769332e-9, -4.3104627e-9, 3.5333344e+1
-0.006, 6.5388299e-9, -4.2474362e-9, 3.5666676e+1
-0.007, 6.5837229e-9, -4.1637209e-9, 3.6000008e+1
-0.008, 6.6735892e-9, -4.1248986e-9, 3.6333340e+1
-0.009, 6.6446724e-9, -4.1411141e-9, 3.6666672e+1
-0.010, 6.7324617e-9, -4.1133159e-9, 3.7000004e+1
-0.011, 6.7837456e-9, -4.0928660e-9, 3.7333336e+1
-0.012, 6.8632278e-9, -4.0645882e-9, 3.7666668e+1
-0.013, 6.8515646e-9, -4.0432599e-9, 3.8000000e+1
-0.014, 6.9296084e-9, -4.0187365e-9, 3.8333332e+1
-0.015, 7.0340933e-9, -4.0201744e-9, 3.8666664e+1
-0.016, 7.0308985e-9, -3.9890202e-9, 3.8999996e+1
-0.017, 7.0416020e-9, -3.9824704e-9, 3.9333328e+1
-0.018, 7.1337052e-9, -3.9280712e-9, 3.9666660e+1
-0.019, 7.0776283e-9, -3.9042667e-9, 3.9999992e+1
-0.020, 7.1820336e-9, -3.8881307e-9, 4.0333324e+1
-0.021, 7.3257396e-9, -3.8503467e-9, 4.0666656e+1
-0.022, 7.2929085e-9, -3.7621577e-9, 4.0999989e+1
-0.023, 7.3258999e-9, -3.7469006e-9, 4.1333321e+1
-0.024, 7.4360558e-9, -3.7116730e-9, 4.1666653e+1
-0.025, 7.4196800e-9, -3.6679779e-9, 4.1999985e+1
-0.026, 7.5136208e-9, -3.6579129e-9, 4.2333317e+1
-0.027, 7.5045143e-9, -3.6297148e-9, 4.2666649e+1
-0.028, 7.5310345e-9, -3.6277976e-9, 4.2999981e+1
-0.029, 7.5269604e-9, -3.6153363e-9, 4.3333313e+1
-0.030, 7.5449345e-9, -3.6116616e-9, 4.3666645e+1
-0.031, 7.5588336e-9, -3.5887358e-9, 4.3999977e+1
-0.032, 7.5847151e-9, -3.5770729e-9, 4.4333309e+1
-0.033, 7.6022086e-9, -3.5745968e-9, 4.4666641e+1
-0.034, 7.7420008e-9, -3.5507921e-9, 4.4999973e+1
-0.035, 7.6441466e-9, -3.5384906e-9, 4.5333305e+1
-0.036, 7.6751405e-9, -3.5307419e-9, 4.5666637e+1
-0.037, 7.9092723e-9, -3.5213958e-9, 4.5999969e+1
-0.038, 7.7180360e-9, -3.5083751e-9, 4.6333302e+1
-0.039, 7.7921669e-9, -3.4739465e-9, 4.6666634e+1
-0.040, 7.8897813e-9, -3.4753840e-9, 4.6999966e+1
-0.041, 7.9271656e-9, -3.4669170e-9, 4.7333298e+1
-0.042, 7.9540854e-9, -3.4104408e-9, 4.7666630e+1
-0.043, 7.9780493e-9, -3.4256182e-9, 4.7999962e+1
-0.044, 7.9501712e-9, -3.3750533e-9, 4.8333294e+1
-0.045, 8.0143963e-9, -3.3526066e-9, 4.8666626e+1
-0.046, 7.9919493e-9, -3.3389471e-9, 4.8999958e+1
-0.047, 8.0316500e-9, -3.3023615e-9, 4.9333290e+1
-0.048, 8.0382803e-9, -3.2744829e-9, 4.9666622e+1
-0.049, 8.0236626e-9, -3.2324654e-9, 4.9999954e+1
-0.050, 8.0528189e-9, -3.2128145e-9, 5.0333286e+1
-0.051, 8.0502627e-9, -3.1717557e-9, 5.0666618e+1
-0.052, 8.0596090e-9, -3.1564185e-9, 5.0999950e+1
-0.053, 8.1940490e-9, -3.1626493e-9, 5.1333282e+1
-0.054, 8.0747062e-9, -3.1191139e-9, 5.1666615e+1
-0.055, 8.2015577e-9, -3.1517853e-9, 5.1999947e+1
-0.056, 8.1457205e-9, -3.1346110e-9, 5.2333279e+1
-0.057, 8.0683957e-9, -3.1260636e-9, 5.2666611e+1
-0.058, 8.1190397e-9, -3.1105667e-9, 5.2999943e+1
-0.059, 8.1345375e-9, -3.1112057e-9, 5.3333275e+1
-0.060, 8.2066700e-9, -3.1038565e-9, 5.3666607e+1
-0.061, 8.2169747e-9, -3.0870018e-9, 5.3999939e+1
-0.062, 8.1932505e-9, -3.0843654e-9, 5.4333271e+1
-0.063, 8.3672314e-9, -3.0707856e-9, 5.4666603e+1
-0.064, 8.1612974e-9, -3.0605609e-9, 5.4999935e+1
-0.065, 8.2510834e-9, -3.0427474e-9, 5.5333267e+1
-0.066, 8.3846459e-9, -3.0333214e-9, 5.5666599e+1
-0.067, 8.2717735e-9, -3.0425078e-9, 5.5999931e+1
-0.068, 8.3422291e-9, -3.0260523e-9, 5.6333263e+1
-0.069, 8.3980662e-9, -3.0059222e-9, 5.6666595e+1
-0.070, 8.2859923e-9, -2.9842744e-9, 5.6999928e+1
-0.071, 8.3456637e-9, -2.9885081e-9, 5.7333260e+1
-0.072, 8.4433580e-9, -2.9955376e-9, 5.7666592e+1
-0.073, 8.4257046e-9, -3.0097564e-9, 5.7999924e+1
-0.074, 8.2793621e-9, -2.9338694e-9, 5.8333256e+1
-0.075, 8.3551690e-9, -2.9794016e-9, 5.8666588e+1
-0.076, 8.3447844e-9, -2.9652625e-9, 5.8999920e+1
-0.077, 8.4113259e-9, -2.9282776e-9, 5.9333252e+1
-0.078, 8.3979854e-9, -2.9154965e-9, 5.9666584e+1
-0.079, 8.4136431e-9, -2.8904139e-9, 5.9999916e+1
-0.080, 8.4341725e-9, -2.8493550e-9, 6.0333248e+1
-0.081, 8.4039771e-9, -2.8618166e-9, 6.0666580e+1
-0.082, 8.4439975e-9, -2.8224350e-9, 6.0999912e+1
-0.083, 8.4312166e-9, -2.7658791e-9, 6.1333244e+1
-0.084, 8.3997431e-9, -2.8313816e-9, 6.1666576e+1
-0.085, 8.4598941e-9, -2.7761038e-9, 6.1999908e+1
-0.086, 8.4356895e-9, -2.7578111e-9, 6.2333241e+1
-0.087, 8.4160385e-9, -2.7530980e-9, 6.2666573e+1
-0.088, 8.4817016e-9, -2.7231426e-9, 6.2999905e+1
-0.089, 8.4427993e-9, -2.7078852e-9, 6.3333237e+1
-0.090, 8.4624503e-9, -2.7248999e-9, 6.3666569e+1
-0.091, 8.4539025e-9, -2.7114000e-9, 6.3999901e+1
-0.092, 8.4308169e-9, -2.6853588e-9, 6.4333237e+1
-0.093, 8.4533429e-9, -2.6818439e-9, 6.4666573e+1
-0.094, 8.4597342e-9, -2.6691427e-9, 6.4999908e+1
-0.095, 8.4983958e-9, -2.6609150e-9, 6.5333244e+1
-0.096, 8.4540623e-9, -2.6601161e-9, 6.5666580e+1
-0.097, 8.4465537e-9, -2.6622731e-9, 6.5999916e+1
-0.098, 8.5002334e-9, -2.6592375e-9, 6.6333252e+1
-0.099, 8.4561398e-9, -2.6522080e-9, 6.6666588e+1
-0.100, 8.4714760e-9, -2.6399063e-9, 6.6999924e+1
-0.101, 8.5161300e-9, -2.6382287e-9, 6.7333260e+1
-0.102, 8.4649256e-9, -2.6359921e-9, 6.7666595e+1
-0.103, 8.5357810e-9, -2.6181786e-9, 6.7999931e+1
-0.104, 8.4945624e-9, -2.6300808e-9, 6.8333267e+1
-0.105, 8.4523855e-9, -2.6292022e-9, 6.8666603e+1
-0.106, 8.4915266e-9, -2.6188176e-9, 6.8999939e+1
-0.107, 8.5120559e-9, -2.6240099e-9, 6.9333275e+1
-0.108, 8.4924050e-9, -2.5986078e-9, 6.9666611e+1
-0.109, 8.5207637e-9, -2.6224922e-9, 6.9999947e+1
-0.110, 8.4854559e-9, -2.5865456e-9, 7.0333282e+1
-0.111, 8.5017513e-9, -2.6011640e-9, 7.0666618e+1
-0.112, 8.5079819e-9, -2.5794362e-9, 7.0999954e+1
-0.113, 8.4979970e-9, -2.5827114e-9, 7.1333290e+1
-0.114, 8.5353014e-9, -2.5799156e-9, 7.1666626e+1
-0.115, 8.5055065e-9, -2.5824716e-9, 7.1999962e+1
-0.116, 8.4990353e-9, -2.5692914e-9, 7.2333298e+1
-0.117, 8.5218010e-9, -2.5585871e-9, 7.2666634e+1
-0.118, 8.5292307e-9, -2.5652973e-9, 7.2999969e+1
-0.119, 8.5182075e-9, -2.5495606e-9, 7.3333305e+1
-0.120, 8.5407335e-9, -2.5654570e-9, 7.3666641e+1
-0.121, 8.5122958e-9, -2.5231999e-9, 7.3999977e+1
-0.122, 8.5531955e-9, -2.5668150e-9, 7.4333313e+1
-0.123, 8.5245979e-9, -2.5467648e-9, 7.4666649e+1
-0.124, 8.4944825e-9, -2.5195253e-9, 7.4999985e+1
-0.125, 8.5368193e-9, -2.5201643e-9, 7.5333321e+1
-0.126, 8.5044674e-9, -2.5322264e-9, 7.5666656e+1
-0.127, 8.5589464e-9, -2.5128153e-9, 7.5999992e+1
-0.128, 8.5237986e-9, -2.5004336e-9, 7.6333328e+1
-0.129, 8.5222815e-9, -2.5124958e-9, 7.6666664e+1
-0.130, 8.6018428e-9, -2.4938835e-9, 7.7000000e+1
-0.131, 8.5560714e-9, -2.5073035e-9, 7.7333336e+1
-0.132, 8.5510381e-9, -2.4914870e-9, 7.7666672e+1
-0.133, 8.6113481e-9, -2.4804634e-9, 7.8000008e+1
-0.134, 8.5523961e-9, -2.4626499e-9, 7.8333344e+1
-0.135, 8.5459257e-9, -2.4553806e-9, 7.8666679e+1
-0.136, 8.6437799e-9, -2.4525848e-9, 7.9000015e+1
-0.137, 8.5373779e-9, -2.4545019e-9, 7.9333351e+1
-0.138, 8.5658165e-9, -2.4319755e-9, 7.9666687e+1
-0.139, 8.5901801e-9, -2.4372475e-9, 8.0000023e+1
-0.140, 8.6025622e-9, -2.4195141e-9, 8.0333359e+1
-0.141, 8.5518366e-9, -2.3749402e-9, 8.0666695e+1
-0.142, 8.5714875e-9, -2.4656055e-9, 8.1000031e+1
-0.143, 8.6017629e-9, -2.4215909e-9, 8.1333366e+1
-0.144, 8.6318774e-9, -2.3904372e-9, 8.1666702e+1
-0.145, 8.5484819e-9, -2.3750202e-9, 8.2000038e+1
-0.146, 8.6383487e-9, -2.3651947e-9, 8.2333374e+1
-0.147, 8.6576799e-9, -2.3911562e-9, 8.2666710e+1
-0.148, 8.6052774e-9, -2.3517748e-9, 8.3000046e+1
-0.149, 8.7334069e-9, -2.3715852e-9, 8.3333382e+1
-0.150, 8.6607148e-9, -2.3475411e-9, 8.3666718e+1
-0.151, 8.6063956e-9, -2.3123135e-9, 8.4000053e+1
-0.152, 8.8469987e-9, -2.3083992e-9, 8.4333389e+1
-0.153, 8.7190291e-9, -2.3330824e-9, 8.4666725e+1
-0.154, 8.7415550e-9, -2.2770859e-9, 8.5000061e+1
-0.155, 8.8190397e-9, -2.2628670e-9, 8.5333397e+1
-0.156, 8.8688052e-9, -2.2654230e-9, 8.5666733e+1
-0.157, 8.8598586e-9, -2.1958464e-9, 8.6000069e+1
-0.158, 8.5745233e-9, -2.3430675e-9, 8.6333405e+1
-0.159, 8.8246317e-9, -2.3179050e-9, 8.6666740e+1
-0.160, 8.8793506e-9, -2.2378641e-9, 8.7000076e+1
-0.161, 8.8544274e-9, -2.2503255e-9, 8.7333412e+1
-0.162, 8.9434149e-9, -2.2357074e-9, 8.7666748e+1
-0.163, 8.8986818e-9, -2.2464113e-9, 8.8000084e+1
-0.164, 8.9587520e-9, -2.2389024e-9, 8.8333420e+1
-0.165, 8.9589918e-9, -2.2476097e-9, 8.8666756e+1
-0.166, 8.9594705e-9, -2.2170150e-9, 8.9000092e+1
-0.167, 8.9851131e-9, -2.2308344e-9, 8.9333427e+1
-0.168, 8.9978931e-9, -2.2126216e-9, 8.9666763e+1
-0.169, 9.0133110e-9, -2.2202902e-9, 9.0000099e+1
-0.170, 9.0154675e-9, -2.1865803e-9, 9.0333435e+1
-0.171, 9.0346388e-9, -2.1727609e-9, 9.0666771e+1
-0.172, 9.1314556e-9, -2.2062312e-9, 9.1000107e+1
-0.173, 9.0494172e-9, -2.1928908e-9, 9.1333443e+1
-0.174, 9.0555687e-9, -2.1903348e-9, 9.1666779e+1
-0.175, 9.0896775e-9, -2.1844235e-9, 9.2000114e+1
-0.176, 9.1102068e-9, -2.1996009e-9, 9.2333450e+1
-0.177, 9.0426271e-9, -2.1750775e-9, 9.2666786e+1
-0.178, 9.2403329e-9, -2.1640538e-9, 9.3000122e+1
-0.179, 9.1149994e-9, -2.1626958e-9, 9.3333458e+1
-0.180, 9.2638190e-9, -2.1757165e-9, 9.3666794e+1
-0.181, 9.4017727e-9, -2.1584621e-9, 9.4000130e+1
-0.182, 9.2620613e-9, -2.1591811e-9, 9.4333466e+1
-0.183, 9.3288417e-9, -2.1610982e-9, 9.4666801e+1
-0.184, 9.4624832e-9, -2.1459208e-9, 9.5000137e+1
-0.185, 9.3685424e-9, -2.1516722e-9, 9.5333473e+1
-0.186, 9.4344443e-9, -2.1578230e-9, 9.5666809e+1
-0.187, 9.4599271e-9, -2.1474384e-9, 9.6000145e+1
-0.188, 9.4626431e-9, -2.1464799e-9, 9.6333481e+1
-0.189, 9.4708703e-9, -2.1555864e-9, 9.6666817e+1
-0.190, 9.4883648e-9, -2.1412876e-9, 9.7000153e+1
-0.191, 9.5051398e-9, -2.1404090e-9, 9.7333488e+1
-0.192, 9.5263886e-9, -2.1507136e-9, 9.7666824e+1
-0.193, 9.5172812e-9, -2.1396100e-9, 9.8000160e+1
-0.194, 9.5897343e-9, -2.1428852e-9, 9.8333496e+1
-0.195, 9.5758343e-9, -2.1439237e-9, 9.8666832e+1
-0.196, 9.5815063e-9, -2.1358557e-9, 9.9000168e+1
-0.197, 9.6588311e-9, -2.1369742e-9, 9.9333504e+1
-0.198, 9.6429353e-9, -2.1308233e-9, 9.9666840e+1
-0.199, 9.6582715e-9, -2.1387314e-9, 1.0000018e+2
-0.200, 9.7590824e-9, -2.1330600e-9, 1.0033351e+2
-0.201, 9.7161061e-9, -2.1336990e-9, 1.0066685e+2
-0.202, 9.7270494e-9, -2.1265096e-9, 1.0100018e+2
-0.203, 9.7995816e-9, -2.1322610e-9, 1.0133352e+2
-0.204, 9.9359392e-9, -2.1301043e-9, 1.0166685e+2
-0.205, 9.6217665e-9, -2.1274682e-9, 1.0200019e+2
-0.206, 9.8710755e-9, -2.1210778e-9, 1.0233353e+2
-0.207, 9.9471231e-9, -2.1253113e-9, 1.0266686e+2
-0.208, 9.9555102e-9, -2.1119713e-9, 1.0300020e+2
-0.209, 9.9628590e-9, -2.1274682e-9, 1.0333353e+2
-0.210, 1.0038027e-8, -2.0991104e-9, 1.0366687e+2
-0.211, 9.9920960e-9, -2.1257109e-9, 1.0400021e+2
-0.212, 1.0006154e-8, -2.1084563e-9, 1.0433354e+2
-0.213, 1.0093545e-8, -2.1024653e-9, 1.0466688e+2
-0.214, 1.0022690e-8, -2.1072581e-9, 1.0500021e+2
-0.215, 1.0066465e-8, -2.1055806e-9, 1.0533355e+2
-0.216, 1.0203141e-8, -2.1047020e-9, 1.0566689e+2
-0.217, 1.0115752e-8, -2.1119713e-9, 1.0600022e+2
-0.218, 1.0217680e-8, -2.1003086e-9, 1.0633356e+2
-0.219, 1.0353878e-8, -2.1130095e-9, 1.0666689e+2
-0.220, 1.0044099e-8, -2.0939181e-9, 1.0700023e+2
-0.221, 1.0302115e-8, -2.0928796e-9, 1.0733356e+2
-0.222, 1.0188763e-8, -2.1011073e-9, 1.0766690e+2
-0.223, 1.0409235e-8, -2.1080571e-9, 1.0800024e+2
-0.224, 1.0416825e-8, -2.1094948e-9, 1.0833357e+2
-0.225, 1.0411711e-8, -2.1140480e-9, 1.0866691e+2
-0.226, 1.0502457e-8, -2.1073381e-9, 1.0900024e+2
-0.227, 1.0440309e-8, -2.0906430e-9, 1.0933358e+2
-0.228, 1.0467948e-8, -2.1156459e-9, 1.0966692e+2
-0.229, 1.0568519e-8, -2.0891251e-9, 1.1000025e+2
-0.230, 1.0507489e-8, -2.0848916e-9, 1.1033359e+2
-0.231, 1.0523865e-8, -2.0803383e-9, 1.1066692e+2
-0.232, 1.0647761e-8, -2.0791400e-9, 1.1100026e+2
-0.233, 1.0536406e-8, -2.1039830e-9, 1.1133360e+2
-0.234, 1.0695210e-8, -2.0822553e-9, 1.1166693e+2
-0.235, 1.0603666e-8, -2.0928796e-9, 1.1200027e+2
-0.236, 1.0730118e-8, -2.0900039e-9, 1.1233360e+2
-0.237, 1.0595518e-8, -2.0955955e-9, 1.1266694e+2
-0.238, 1.0718217e-8, -2.0805779e-9, 1.1300027e+2
-0.239, 1.0842112e-8, -2.0990305e-9, 1.1333361e+2
-0.240, 1.0834923e-8, -2.1005482e-9, 1.1366695e+2
-0.241, 1.0827174e-8, -2.1020659e-9, 1.1400028e+2
-0.242, 1.0932857e-8, -2.1074980e-9, 1.1433362e+2
-0.243, 1.0927105e-8, -2.0841726e-9, 1.1466695e+2
-0.244, 1.0937890e-8, -2.1034239e-9, 1.1500029e+2
-0.245, 1.0966008e-8, -2.1086162e-9, 1.1533363e+2
-0.246, 1.0967207e-8, -2.1099742e-9, 1.1566696e+2
-0.247, 1.0977910e-8, -2.0874475e-9, 1.1600030e+2
-0.248, 1.1057871e-8, -2.0830542e-9, 1.1633363e+2
-0.249, 1.1021925e-8, -2.0828146e-9, 1.1666697e+2
-0.250, 1.1260690e-8, -2.1084563e-9, 1.1700031e+2
-0.251, 1.1004511e-8, -2.1181221e-9, 1.1733364e+2
-0.252, 1.1153968e-8, -2.0893649e-9, 1.1766698e+2
-0.253, 1.1172581e-8, -2.1088560e-9, 1.1800031e+2
-0.254, 1.1119939e-8, -2.1129298e-9, 1.1833365e+2
-0.255, 1.1315728e-8, -2.1172435e-9, 1.1866698e+2
-0.256, 1.1303107e-8, -2.0759450e-9, 1.1900032e+2
-0.257, 1.1264284e-8, -2.1003086e-9, 1.1933366e+2
-0.258, 1.1449449e-8, -2.1122109e-9, 1.1966699e+2
-0.259, 1.1427402e-8, -2.0969535e-9, 1.2000033e+2
-0.260, 1.1306621e-8, -2.1166044e-9, 1.2033366e+2
-0.261, 1.1443777e-8, -2.1167641e-9, 1.2066700e+2
-0.262, 1.1442419e-8, -2.1134889e-9, 1.2100034e+2
-0.263, 1.1458156e-8, -2.1131694e-9, 1.2133367e+2
-0.264, 1.1470378e-8, -2.1319415e-9, 1.2166701e+2
-0.265, 1.1487392e-8, -2.1246724e-9, 1.2200034e+2
-0.266, 1.1488591e-8, -2.1270687e-9, 1.2233368e+2
-0.267, 1.1504327e-8, -2.1312225e-9, 1.2266702e+2
-0.268, 1.1607614e-8, -2.1309032e-9, 1.2300035e+2
-0.269, 1.1627983e-8, -2.1282669e-9, 1.2333369e+2
-0.270, 1.1574943e-8, -2.1336191e-9, 1.2366702e+2
-0.271, 1.1798370e-8, -2.1192403e-9, 1.2400036e+2
-0.272, 1.1707145e-8, -2.1339386e-9, 1.2433369e+2
-0.273, 1.1838391e-8, -2.1322610e-9, 1.2466703e+2
-0.274, 1.1902296e-8, -2.1410480e-9, 1.2500037e+2
-0.275, 1.1866589e-8, -2.1366544e-9, 1.2533370e+2
-0.276, 1.1918671e-8, -2.1309829e-9, 1.2566704e+2
-0.277, 1.1950783e-8, -2.1319415e-9, 1.2600037e+2
-0.278, 1.1928177e-8, -2.1388913e-9, 1.2633371e+2
-0.279, 1.1944873e-8, -2.1411279e-9, 1.2666705e+2
-0.280, 1.1983855e-8, -2.1427256e-9, 1.2700038e+2
-0.281, 1.1956056e-8, -2.1340982e-9, 1.2733372e+2
-0.282, 1.2068369e-8, -2.1308233e-9, 1.2766705e+2
-0.283, 1.2048957e-8, -2.1463999e-9, 1.2800038e+2
-0.284, 1.2068449e-8, -2.1313025e-9, 1.2833371e+2
-0.285, 1.2064056e-8, -2.1417668e-9, 1.2866704e+2
-0.286, 1.2200892e-8, -2.1352167e-9, 1.2900037e+2
-0.287, 1.2287403e-8, -2.1388114e-9, 1.2933369e+2
-0.288, 1.2252256e-8, -2.1257907e-9, 1.2966702e+2
-0.289, 1.2240354e-8, -2.1409681e-9, 1.3000035e+2
-0.290, 1.2415852e-8, -2.1477580e-9, 1.3033368e+2
-0.291, 1.2355142e-8, -2.1329800e-9, 1.3066701e+2
-0.292, 1.2408823e-8, -2.1443232e-9, 1.3100034e+2
-0.293, 1.2438698e-8, -2.1348971e-9, 1.3133366e+2
-0.294, 1.2413535e-8, -2.1524711e-9, 1.3166699e+2
-0.295, 1.2443492e-8, -2.1325806e-9, 1.3200032e+2
-0.296, 1.2482474e-8, -2.1463999e-9, 1.3233365e+2
-0.297, 1.2464500e-8, -2.1352966e-9, 1.3266698e+2
-0.298, 1.2469532e-8, -2.1410480e-9, 1.3300031e+2
-0.299, 1.2492858e-8, -2.1427256e-9, 1.3333363e+2
-0.300, 1.2521136e-8, -2.1503141e-9, 1.3366696e+2
-0.301, 1.2580088e-8, -2.1455213e-9, 1.3400029e+2
-0.302, 1.2512748e-8, -2.1490363e-9, 1.3433362e+2
-0.303, 1.2661247e-8, -2.1420066e-9, 1.3466695e+2
-0.304, 1.2573618e-8, -2.1424857e-9, 1.3500027e+2
-0.305, 1.2632570e-8, -2.1401692e-9, 1.3533360e+2
-0.306, 1.2810865e-8, -2.1573439e-9, 1.3566693e+2
-0.307, 1.2793850e-8, -2.1535096e-9, 1.3600026e+2
-0.308, 1.2823327e-8, -2.1490363e-9, 1.3633359e+2
-0.309, 1.2856877e-8, -2.1531898e-9, 1.3666692e+2
-0.310, 1.2826122e-8, -2.1456013e-9, 1.3700024e+2
-0.311, 1.2870297e-8, -2.1420066e-9, 1.3733357e+2
-0.312, 1.2892823e-8, -2.1474384e-9, 1.3766690e+2
-0.313, 1.2904247e-8, -2.1503141e-9, 1.3800023e+2
-0.314, 1.2917985e-8, -2.1533497e-9, 1.3833356e+2
-0.315, 1.2934041e-8, -2.1475983e-9, 1.3866689e+2
-0.316, 1.2944426e-8, -2.1617372e-9, 1.3900021e+2
-0.317, 1.2935878e-8, -2.1559059e-9, 1.3933354e+2
-0.318, 1.2934602e-8, -2.1541486e-9, 1.3966687e+2
-0.319, 1.2977737e-8, -2.1479178e-9, 1.4000020e+2
-0.320, 1.3018237e-8, -2.1444830e-9, 1.4033353e+2
-0.321, 1.2969349e-8, -2.1545479e-9, 1.4066685e+2
-0.322, 1.3085817e-8, -2.1615776e-9, 1.4100018e+2
-0.323, 1.3038767e-8, -2.1482374e-9, 1.4133351e+2
-0.324, 1.3074154e-8, -2.1494355e-9, 1.4166684e+2
-0.325, 1.3141572e-8, -2.1534297e-9, 1.4200017e+2
-0.326, 1.3006255e-8, -2.1588615e-9, 1.4233350e+2
-0.327, 1.3138059e-8, -2.1529503e-9, 1.4266682e+2
-0.328, 1.3209951e-8, -2.1580628e-9, 1.4300015e+2
-0.329, 1.3172167e-8, -2.1436042e-9, 1.4333348e+2
-0.330, 1.3148683e-8, -2.1581426e-9, 1.4366681e+2
-0.331, 1.3208993e-8, -2.1491957e-9, 1.4400014e+2
-0.332, 1.3292709e-8, -2.1551072e-9, 1.4433347e+2
-0.333, 1.3351742e-8, -2.1604591e-9, 1.4466679e+2
-0.334, 1.3214505e-8, -2.1581426e-9, 1.4500012e+2
-0.335, 1.3364123e-8, -2.1618172e-9, 1.4533345e+2
-0.336, 1.3317790e-8, -2.1471989e-9, 1.4566678e+2
-0.337, 1.3249812e-8, -2.1549473e-9, 1.4600011e+2
-0.338, 1.3395196e-8, -2.1540687e-9, 1.4633344e+2
-0.339, 1.3321945e-8, -2.1590212e-9, 1.4666676e+2
-0.340, 1.3353418e-8, -2.1641338e-9, 1.4700009e+2
-0.341, 1.3389365e-8, -2.1714028e-9, 1.4733342e+2
-0.342, 1.3347587e-8, -2.1580628e-9, 1.4766675e+2
-0.343, 1.3373628e-8, -2.1642135e-9, 1.4800008e+2
-0.344, 1.3385530e-8, -2.1545479e-9, 1.4833340e+2
-0.345, 1.3384332e-8, -2.1597402e-9, 1.4866673e+2
-0.346, 1.3385770e-8, -2.1564652e-9, 1.4900006e+2
-0.347, 1.3383932e-8, -2.1676485e-9, 1.4933339e+2
-0.348, 1.3393518e-8, -2.1644531e-9, 1.4966672e+2
-0.349, 1.3411013e-8, -2.1501545e-9, 1.5000005e+2
-0.350, 1.3392080e-8, -2.1589412e-9, 1.5033337e+2
-0.351, 1.3414527e-8, -2.1670095e-9, 1.5066670e+2
-0.352, 1.3440649e-8, -2.1595006e-9, 1.5100003e+2
-0.353, 1.3404143e-8, -2.1612578e-9, 1.5133336e+2
-0.354, 1.3432022e-8, -2.1601396e-9, 1.5166669e+2
-0.355, 1.3417563e-8, -2.1770743e-9, 1.5200002e+2
-0.356, 1.3410694e-8, -2.1626161e-9, 1.5233334e+2
-0.357, 1.3439450e-8, -2.1680477e-9, 1.5266667e+2
-0.358, 1.3418682e-8, -2.1790716e-9, 1.5300000e+2
-0.359, 1.3434577e-8, -2.1709237e-9, 1.5333333e+2
-0.360, 1.3462377e-8, -2.1792312e-9, 1.5366666e+2
-0.361, 1.3433460e-8, -2.1905744e-9, 1.5399998e+2
-0.362, 1.3448957e-8, -2.1870596e-9, 1.5433331e+2
-0.363, 1.3481148e-8, -2.1686071e-9, 1.5466664e+2
-0.364, 1.3438891e-8, -2.1991216e-9, 1.5499997e+2
-0.365, 1.3489217e-8, -2.1694857e-9, 1.5533330e+2
-0.366, 1.3459261e-8, -2.1868198e-9, 1.5566663e+2
-0.367, 1.3508148e-8, -2.1912934e-9, 1.5599995e+2
-0.368, 1.3474039e-8, -2.1683675e-9, 1.5633328e+2
-0.369, 1.3459580e-8, -2.1826660e-9, 1.5666661e+2
-0.370, 1.3561588e-8, -2.1841040e-9, 1.5699994e+2
-0.371, 1.3510784e-8, -2.1810684e-9, 1.5733327e+2
-0.372, 1.3487698e-8, -2.1956867e-9, 1.5766660e+2
-0.373, 1.3627331e-8, -2.1885773e-9, 1.5799992e+2
-0.374, 1.3590905e-8, -2.1845832e-9, 1.5833325e+2
-0.375, 1.3577245e-8, -2.2201303e-9, 1.5866658e+2
-0.376, 1.3628609e-8, -2.2010389e-9, 1.5899991e+2
-0.377, 1.3590905e-8, -2.2143789e-9, 1.5933324e+2
-0.378, 1.3602008e-8, -2.2084679e-9, 1.5966656e+2
-0.379, 1.3698585e-8, -2.2351481e-9, 1.5999989e+2
-0.380, 1.3744517e-8, -2.2170150e-9, 1.6033322e+2
-0.381, 1.3708011e-8, -2.2266009e-9, 1.6066655e+2
-0.382, 1.3719035e-8, -2.2345890e-9, 1.6099988e+2
-0.383, 1.3785815e-8, -2.2310742e-9, 1.6133321e+2
-0.384, 1.3791727e-8, -2.2198110e-9, 1.6166653e+2
-0.385, 1.3699304e-8, -2.2089470e-9, 1.6199986e+2
-0.386, 1.3825597e-8, -2.2198110e-9, 1.6233319e+2
-0.387, 1.3846766e-8, -2.2266009e-9, 1.6266652e+2
-0.388, 1.3822481e-8, -2.2630267e-9, 1.6299985e+2
-0.389, 1.3893096e-8, -2.2571953e-9, 1.6333318e+2
-0.390, 1.3859466e-8, -2.2549587e-9, 1.6366650e+2
-0.391, 1.3882952e-8, -2.2641451e-9, 1.6399983e+2
-0.392, 1.3880794e-8, -2.3142304e-9, 1.6433316e+2
-0.393, 1.3883031e-8, -2.2752484e-9, 1.6466649e+2
-0.394, 1.3899326e-8, -2.3109554e-9, 1.6499982e+2
-0.395, 1.3903321e-8, -2.2907454e-9, 1.6533315e+2
-0.396, 1.3908993e-8, -2.3302067e-9, 1.6566647e+2
-0.397, 1.3921293e-8, -2.2782840e-9, 1.6599980e+2
-0.398, 1.3908832e-8, -2.3294080e-9, 1.6633313e+2
-0.399, 1.3941984e-8, -2.3222186e-9, 1.6666646e+2
-0.400, 1.3946457e-8, -2.3222986e-9, 1.6699979e+2
-0.401, 1.3924010e-8, -2.3441062e-9, 1.6733311e+2
-0.402, 1.4025699e-8, -2.3733426e-9, 1.6766644e+2
-0.403, 1.4031770e-8, -2.3818101e-9, 1.6799977e+2
-0.404, 1.3962752e-8, -2.3741416e-9, 1.6833310e+2
-0.405, 1.4190253e-8, -2.3781355e-9, 1.6866643e+2
-0.406, 1.4049584e-8, -2.3892390e-9, 1.6899976e+2
-0.407, 1.4124672e-8, -2.3966680e-9, 1.6933308e+2
-0.408, 1.4178431e-8, -2.4168778e-9, 1.6966641e+2
-0.409, 1.4118041e-8, -2.4372475e-9, 1.6999974e+2
-0.410, 1.4278123e-8, -2.4376472e-9, 1.7033307e+2
-0.411, 1.4231074e-8, -2.4243867e-9, 1.7066640e+2
-0.412, 1.4294100e-8, -2.4559397e-9, 1.7099973e+2
-0.413, 1.4345543e-8, -2.4688007e-9, 1.7133305e+2
-0.414, 1.4348818e-8, -2.4761497e-9, 1.7166638e+2
-0.415, 1.4381570e-8, -2.4978775e-9, 1.7199971e+2
-0.416, 1.4386761e-8, -2.4638480e-9, 1.7233304e+2
-0.417, 1.4391795e-8, -2.4928448e-9, 1.7266637e+2
-0.418, 1.4437008e-8, -2.5040283e-9, 1.7299969e+2
-0.419, 1.4416318e-8, -2.5000344e-9, 1.7333302e+2
-0.420, 1.4458336e-8, -2.5069840e-9, 1.7366635e+2
-0.421, 1.4620414e-8, -2.4822207e-9, 1.7399968e+2
-0.422, 1.4399463e-8, -2.5267943e-9, 1.7433301e+2
-0.423, 1.4467362e-8, -2.5417322e-9, 1.7466634e+2
-0.424, 1.4579995e-8, -2.5466051e-9, 1.7499966e+2
-0.425, 1.4530548e-8, -2.5422915e-9, 1.7533299e+2
-0.426, 1.4662512e-8, -2.5371791e-9, 1.7566632e+2
-0.427, 1.4544927e-8, -2.5364599e-9, 1.7599965e+2
-0.428, 1.4717711e-8, -2.5515576e-9, 1.7633298e+2
-0.429, 1.4802784e-8, -2.5479630e-9, 1.7666631e+2
-0.430, 1.4805260e-8, -2.5705693e-9, 1.7699963e+2
-0.431, 1.4839289e-8, -2.5672944e-9, 1.7733296e+2
-0.432, 1.4833458e-8, -2.5869449e-9, 1.7766629e+2
-0.433, 1.4866449e-8, -2.5948532e-9, 1.7799962e+2
-0.434, 1.4917813e-8, -2.5958917e-9, 1.7833295e+2
-0.435, 1.4909265e-8, -2.5907794e-9, 1.7866628e+2
-0.436, 1.4950086e-8, -2.6085130e-9, 1.7899960e+2
-0.437, 1.5100580e-8, -2.6190574e-9, 1.7933293e+2
-0.438, 1.5013670e-8, -2.6194567e-9, 1.7966626e+2
-0.439, 1.5102417e-8, -2.6256874e-9, 1.7999959e+2
-0.440, 1.5215290e-8, -2.6275249e-9, 1.8033292e+2
-0.441, 1.5261621e-8, -2.6371105e-9, 1.8066624e+2
-0.442, 1.5318816e-8, -2.6368707e-9, 1.8099957e+2
-0.443, 1.5360275e-8, -2.6503708e-9, 1.8133290e+2
-0.444, 1.5333274e-8, -2.6673856e-9, 1.8166623e+2
-0.445, 1.5344778e-8, -2.6577995e-9, 1.8199956e+2
-0.446, 1.5382083e-8, -2.6725777e-9, 1.8233289e+2
-0.447, 1.5388073e-8, -2.6812847e-9, 1.8266621e+2
-0.448, 1.5433127e-8, -2.6760125e-9, 1.8299954e+2
-0.449, 1.5484890e-8, -2.7252993e-9, 1.8333287e+2
-0.450, 1.5652640e-8, -2.6998972e-9, 1.8366620e+2
-0.451, 1.5579230e-8, -2.7479059e-9, 1.8399953e+2
-0.452, 1.5782767e-8, -2.7324887e-9, 1.8433286e+2
-0.453, 1.5818154e-8, -2.8029441e-9, 1.8466618e+2
-0.454, 1.5840120e-8, -2.7785003e-9, 1.8499951e+2
-0.455, 1.5864645e-8, -2.8166036e-9, 1.8533284e+2
-0.456, 1.5942369e-8, -2.8599791e-9, 1.8566617e+2
-0.457, 1.5909459e-8, -2.8686862e-9, 1.8599950e+2
-0.458, 1.6016660e-8, -2.8542277e-9, 1.8633282e+2
-0.459, 1.6060035e-8, -2.9355469e-9, 1.8666615e+2
-0.460, 1.6223792e-8, -2.9522420e-9, 1.8699948e+2
-0.461, 1.6309025e-8, -2.9708542e-9, 1.8733281e+2
-0.462, 1.6308785e-8, -2.9715732e-9, 1.8766614e+2
-0.463, 1.6351441e-8, -2.9921827e-9, 1.8799947e+2
-0.464, 1.6387148e-8, -3.0206204e-9, 1.8833279e+2
-0.465, 1.6400488e-8, -3.0254930e-9, 1.8866612e+2
-0.466, 1.6594440e-8, -3.0390728e-9, 1.8899945e+2
-0.467, 1.6589727e-8, -3.0576852e-9, 1.8933278e+2
-0.468, 1.6701721e-8, -3.0639957e-9, 1.8966611e+2
-0.469, 1.6822021e-8, -3.0790135e-9, 1.8999944e+2
-0.470, 1.6842952e-8, -3.0981850e-9, 1.9033276e+2
-0.471, 1.6879616e-8, -3.1067324e-9, 1.9066609e+2
-0.472, 1.6989052e-8, -3.1195133e-9, 1.9099942e+2
-0.473, 1.7036424e-8, -3.1390843e-9, 1.9133275e+2
-0.474, 1.7195786e-8, -3.1316552e-9, 1.9166608e+2
-0.475, 1.7274388e-8, -3.1585754e-9, 1.9199940e+2
-0.476, 1.7316966e-8, -3.1816609e-9, 1.9233273e+2
-0.477, 1.7361780e-8, -3.2216017e-9, 1.9266606e+2
-0.478, 1.7394610e-8, -3.2241576e-9, 1.9299939e+2
-0.479, 1.7610210e-8, -3.2873437e-9, 1.9333272e+2
-0.480, 1.7683700e-8, -3.3219323e-9, 1.9366605e+2
-0.481, 1.7635452e-8, -3.4102012e-9, 1.9399937e+2
-0.482, 1.7827807e-8, -3.4420737e-9, 1.9433270e+2
-0.483, 1.7844421e-8, -3.4638812e-9, 1.9466603e+2
-0.484, 1.7894028e-8, -3.4913603e-9, 1.9499936e+2
-0.485, 1.8186793e-8, -3.5132479e-9, 1.9533269e+2
-0.486, 1.8187352e-8, -3.5436829e-9, 1.9566602e+2
-0.487, 1.8305176e-8, -3.5531085e-9, 1.9599934e+2
-0.488, 1.8365327e-8, -3.5955254e-9, 1.9633267e+2
-0.489, 1.8398957e-8, -3.5990402e-9, 1.9666600e+2
-0.490, 1.8575815e-8, -3.6178123e-9, 1.9699933e+2
-0.491, 1.8708976e-8, -3.6255610e-9, 1.9733266e+2
-0.492, 1.8795088e-8, -3.6509633e-9, 1.9766599e+2
-0.493, 1.8840302e-8, -3.6792414e-9, 1.9799931e+2
-0.494, 1.8946222e-8, -3.7596020e-9, 1.9833264e+2
-0.495, 1.9213106e-8, -3.8576959e-9, 1.9866597e+2
-0.496, 1.9269663e-8, -3.9220800e-9, 1.9899930e+2
-0.497, 1.9284361e-8, -3.9335033e-9, 1.9933263e+2
-0.498, 1.9417284e-8, -3.9898196e-9, 1.9966595e+2
-0.499, 1.9553960e-8, -4.0251269e-9, 1.9999928e+2
-0.500, 1.9287716e-8, -4.0435797e-9, 2.0033261e+2
-0.499, 1.3336323e-8, -4.0355115e-9, 2.0066594e+2
-0.498, 1.1799250e-8, -3.9903787e-9, 2.0099927e+2
-0.497, 1.0726044e-8, -3.9169676e-9, 2.0133260e+2
-0.496, 1.0048652e-8, -3.7989034e-9, 2.0166592e+2
-0.495, 9.2616617e-9, -3.7800514e-9, 2.0199925e+2
-0.494, 8.5432896e-9, -3.6538390e-9, 2.0233258e+2
-0.493, 8.0776621e-9, -3.6349870e-9, 2.0266591e+2
-0.492, 7.5410993e-9, -3.6039134e-9, 2.0299924e+2
-0.491, 7.0369692e-9, -3.5670877e-9, 2.0333257e+2
-0.490, 6.6713528e-9, -3.5432830e-9, 2.0366589e+2
-0.489, 6.2694698e-9, -3.5130880e-9, 2.0399922e+2
-0.488, 5.8876379e-9, -3.4761831e-9, 2.0433255e+2
-0.487, 5.5110774e-9, -3.4153935e-9, 2.0466588e+2
-0.486, 5.0901834e-9, -3.3836804e-9, 2.0499921e+2
-0.485, 4.7482915e-9, -3.2698497e-9, 2.0533253e+2
-0.484, 4.5187929e-9, -3.2398944e-9, 2.0566586e+2
-0.483, 4.1126764e-9, -3.1782259e-9, 2.0599919e+2
-0.482, 3.9275121e-9, -3.1627290e-9, 2.0633252e+2
-0.481, 3.5788306e-9, -3.1314158e-9, 2.0666585e+2
-0.480, 3.3703402e-9, -3.1040164e-9, 2.0699918e+2
-0.479, 3.1194334e-9, -3.0874809e-9, 2.0733250e+2
-0.478, 2.8056599e-9, -3.0692680e-9, 2.0766583e+2
-0.477, 2.6789682e-9, -3.0425877e-9, 2.0799916e+2
-0.476, 2.4725550e-9, -3.0273304e-9, 2.0833249e+2
-0.475, 2.1652520e-9, -2.9935405e-9, 2.0866582e+2
-0.474, 2.1230746e-9, -2.9773246e-9, 2.0899915e+2
-0.473, 1.7949225e-9, -2.9563958e-9, 2.0933247e+2
-0.472, 1.6621600e-9, -2.9080676e-9, 2.0966580e+2
-0.471, 1.5525629e-9, -2.9242038e-9, 2.0999913e+2
-0.470, 1.2694638e-9, -2.8702039e-9, 2.1033246e+2
-0.469, 1.1674555e-9, -2.8005476e-9, 2.1066579e+2
-0.468, 1.0160006e-9, -2.7825742e-9, 2.1099911e+2
-0.467, 8.1198392e-10, -2.7313705e-9, 2.1133244e+2
-0.466, 6.9639577e-10, -2.6853588e-9, 2.1166577e+2
-0.465, 5.7976918e-10, -2.6813647e-9, 2.1199910e+2
-0.464, 5.4126642e-10, -2.6633116e-9, 2.1233243e+2
-0.463, 1.8803158e-10, -2.6610749e-9, 2.1266576e+2
-0.462, 1.0982783e-10, -2.6458176e-9, 2.1299908e+2
-0.461, 1.0870950e-10, -2.6371105e-9, 2.1333241e+2
-0.460, -2.1576810e-10, -2.6221727e-9, 2.1366574e+2
-0.459, -2.6425601e-10, -2.6125868e-9, 2.1399907e+2
-0.458, -3.1034750e-10, -2.6115485e-9, 2.1433240e+2
-0.457, -4.2186171e-10, -2.5875042e-9, 2.1466573e+2
-0.456, -5.5094979e-10, -2.5883031e-9, 2.1499905e+2
-0.455, -6.6342259e-10, -2.5799156e-9, 2.1533238e+2
-0.454, -7.7270007e-10, -2.5489215e-9, 2.1566571e+2
-0.453, -8.2885659e-10, -2.5414129e-9, 2.1599904e+2
-0.452, -9.0993607e-10, -2.5233597e-9, 2.1633237e+2
-0.451, -9.8614272e-10, -2.5216822e-9, 2.1666570e+2
-0.450, -1.0669826e-9, -2.4930047e-9, 2.1699902e+2
-0.449, -1.2656471e-9, -2.4904485e-9, 2.1733235e+2
-0.448, -1.2648483e-9, -2.4349309e-9, 2.1766568e+2
-0.447, -1.3818744e-9, -2.4815816e-9, 2.1799901e+2
-0.446, -1.4532083e-9, -2.3645559e-9, 2.1833234e+2
-0.445, -1.5704740e-9, -2.4521054e-9, 2.1866566e+2
-0.444, -1.7641062e-9, -2.3804521e-9, 2.1899899e+2
-0.443, -1.7764877e-9, -2.3584048e-9, 2.1933232e+2
-0.442, -1.7704168e-9, -2.3282898e-9, 2.1966565e+2
-0.441, -1.8928747e-9, -2.3212601e-9, 2.1999898e+2
-0.440, -1.9122062e-9, -2.3316447e-9, 2.2033231e+2
-0.439, -1.9839392e-9, -2.2871507e-9, 2.2066563e+2
-0.438, -2.1054387e-9, -2.2833964e-9, 2.2099896e+2
-0.437, -2.1865181e-9, -2.2890680e-9, 2.2133229e+2
-0.436, -2.2635236e-9, -2.2384232e-9, 2.2166562e+2
-0.435, -2.2731892e-9, -2.2369855e-9, 2.2199895e+2
-0.434, -2.2790207e-9, -2.2203701e-9, 2.2233228e+2
-0.433, -2.3586622e-9, -2.2207693e-9, 2.2266560e+2
-0.432, -2.3891769e-9, -2.1966453e-9, 2.2299893e+2
-0.431, -2.5624394e-9, -2.1966453e-9, 2.2333226e+2
-0.430, -2.6934446e-9, -2.1698052e-9, 2.2366559e+2
-0.429, -2.6971989e-9, -2.1703643e-9, 2.2399892e+2
-0.428, -2.7082225e-9, -2.1522313e-9, 2.2433224e+2
-0.427, -2.7540743e-9, -2.1584621e-9, 2.2466557e+2
-0.426, -2.7714884e-9, -2.1460804e-9, 2.2499890e+2
-0.425, -2.8195768e-9, -2.1578230e-9, 2.2533223e+2
-0.424, -2.8793281e-9, -2.1404889e-9, 2.2566556e+2
-0.423, -2.8723783e-9, -2.1453614e-9, 2.2599889e+2
-0.422, -2.8986593e-9, -2.1367343e-9, 2.2633221e+2
-0.421, -3.0517118e-9, -2.1295450e-9, 2.2666554e+2
-0.420, -3.1128209e-9, -2.1317819e-9, 2.2699887e+2
-0.419, -3.1896665e-9, -2.1148470e-9, 2.2733220e+2
-0.418, -3.2344800e-9, -2.1246724e-9, 2.2766553e+2
-0.417, -3.2789742e-9, -2.1106132e-9, 2.2799886e+2
-0.416, -3.2832075e-9, -2.1146871e-9, 2.2833218e+2
-0.415, -3.2729031e-9, -2.1141280e-9, 2.2866551e+2
-0.414, -3.3614911e-9, -2.1155659e-9, 2.2899884e+2
-0.413, -3.3516661e-9, -2.0912818e-9, 2.2933217e+2
-0.412, -3.3682812e-9, -2.1019861e-9, 2.2966550e+2
-0.411, -3.4087011e-9, -2.0893649e-9, 2.2999883e+2
-0.410, -3.4264349e-9, -2.0687554e-9, 2.3033215e+2
-0.409, -3.6254191e-9, -2.0812969e-9, 2.3066548e+2
-0.408, -3.6243006e-9, -2.0814566e-9, 2.3099881e+2
-0.407, -3.6501020e-9, -2.0676372e-9, 2.3133214e+2
-0.406, -3.6470666e-9, -2.0544566e-9, 2.3166547e+2
-0.405, -3.6846906e-9, -2.0590099e-9, 2.3199879e+2
-0.404, -3.7567438e-9, -2.0735484e-9, 2.3233212e+2
-0.403, -3.7461194e-9, -2.0581312e-9, 2.3266545e+2
-0.402, -3.7369330e-9, -2.0468680e-9, 2.3299878e+2
-0.401, -3.8148174e-9, -2.0391195e-9, 2.3333211e+2
-0.400, -3.7685659e-9, -2.0566135e-9, 2.3366544e+2
-0.399, -3.8232049e-9, -2.0458297e-9, 2.3399876e+2
-0.398, -3.8890269e-9, -2.0173119e-9, 2.3433209e+2
-0.397, -3.9033257e-9, -2.0308917e-9, 2.3466542e+2
-0.396, -3.9494967e-9, -2.0298534e-9, 2.3499875e+2
-0.395, -4.1039074e-9, -2.0225042e-9, 2.3533208e+2
-0.394, -4.0097272e-9, -2.0118003e-9, 2.3566541e+2
-0.393, -4.0657242e-9, -2.0207469e-9, 2.3599873e+2
-0.392, -4.2061559e-9, -2.0247410e-9, 2.3633206e+2
-0.391, -4.1689305e-9, -2.0148356e-9, 2.3666539e+2
-0.390, -4.2068744e-9, -2.0204272e-9, 2.3699872e+2
-0.389, -4.2273238e-9, -2.0070072e-9, 2.3733205e+2
-0.388, -4.2347530e-9, -1.9962232e-9, 2.3766537e+2
-0.387, -4.2401851e-9, -2.0010962e-9, 2.3799870e+2
-0.386, -4.2803654e-9, -2.0022144e-9, 2.3833203e+2
-0.385, -4.3732671e-9, -1.9722588e-9, 2.3866536e+2
-0.384, -4.2976995e-9, -1.9771318e-9, 2.3899869e+2
-0.383, -4.3319686e-9, -1.9840016e-9, 2.3933202e+2
-0.382, -4.5540380e-9, -1.9840016e-9, 2.3966534e+2
-0.381, -4.3974708e-9, -1.9944659e-9, 2.3999867e+2
-0.380, -4.4350954e-9, -1.9632322e-9, 2.4033200e+2
-0.379, -4.5645030e-9, -1.9509308e-9, 2.4066533e+2
-0.378, -4.5252011e-9, -1.9191380e-9, 2.4099866e+2
-0.377, -4.5911830e-9, -1.9558832e-9, 2.4133199e+2
-0.376, -4.3957935e-9, -1.8946942e-9, 2.4166531e+2
-0.375, -4.7298570e-9, -1.9397473e-9, 2.4199864e+2
-0.374, -4.7069313e-9, -1.9621940e-9, 2.4233197e+2
-0.373, -4.6842450e-9, -1.9373509e-9, 2.4266530e+2
-0.372, -4.6930317e-9, -1.9161823e-9, 2.4299863e+2
-0.371, -4.6860817e-9, -1.9007651e-9, 2.4333195e+2
-0.370, -4.6976649e-9, -1.9317592e-9, 2.4366528e+2
-0.369, -4.7880104e-9, -1.9157829e-9, 2.4399861e+2
-0.368, -4.7321733e-9, -1.8796766e-9, 2.4433194e+2
-0.367, -4.7280992e-9, -1.8420525e-9, 2.4466527e+2
-0.366, -4.8274718e-9, -1.8638602e-9, 2.4499860e+2
-0.365, -4.7753894e-9, -1.8791975e-9, 2.4533192e+2
-0.364, -4.7993538e-9, -1.7964402e-9, 2.4566525e+2
-0.363, -4.9270836e-9, -1.8955730e-9, 2.4599858e+2
-0.362, -4.8068625e-9, -1.8203248e-9, 2.4633191e+2
-0.361, -4.8674127e-9, -1.8176888e-9, 2.4666524e+2
-0.360, -4.9491309e-9, -1.8220822e-9, 2.4699857e+2
-0.359, -4.8939328e-9, -1.8417331e-9, 2.4733189e+2
-0.358, -4.9706190e-9, -1.8166503e-9, 2.4766522e+2
-0.357, -4.8089395e-9, -1.8056266e-9, 2.4799855e+2
-0.356, -5.1984403e-9, -1.8597862e-9, 2.4833188e+2
-0.355, -5.1084941e-9, -1.8227212e-9, 2.4866521e+2
-0.354, -5.0528968e-9, -1.8205645e-9, 2.4899854e+2
-0.353, -5.1910911e-9, -1.8276738e-9, 2.4933186e+2
-0.352, -5.1266271e-9, -1.8028308e-9, 2.4966519e+2
-0.351, -5.1945261e-9, -1.7470736e-9, 2.4999852e+2
-0.350, -5.2486056e-9, -1.7861357e-9, 2.5033185e+2
-0.349, -5.2023545e-9, -1.8012332e-9, 2.5066518e+2
-0.348, -5.2633840e-9, -1.7489908e-9, 2.5099850e+2
-0.347, -5.2606675e-9, -1.7835794e-9, 2.5133183e+2
-0.346, -5.2606675e-9, -1.7784670e-9, 2.5166516e+2
-0.345, -5.2781615e-9, -1.7316567e-9, 2.5199849e+2
-0.344, -5.2926201e-9, -1.7472335e-9, 2.5233182e+2
-0.343, -5.2976525e-9, -1.7625706e-9, 2.5266515e+2
-0.342, -5.3045226e-9, -1.7427602e-9, 2.5299847e+2
-0.341, -5.3138685e-9, -1.7448369e-9, 2.5333180e+2
-0.340, -5.3425460e-9, -1.7387660e-9, 2.5366513e+2
-0.339, -5.3924718e-9, -1.7523458e-9, 2.5399846e+2
-0.338, -5.3652323e-9, -1.7148016e-9, 2.5433179e+2
-0.337, -5.4380838e-9, -1.7442778e-9, 2.5466512e+2
-0.336, -5.4720335e-9, -1.7017012e-9, 2.5499844e+2
-0.335, -5.3956670e-9, -1.7373283e-9, 2.5533177e+2
-0.334, -5.5553495e-9, -1.6952308e-9, 2.5566510e+2
-0.333, -5.5182849e-9, -1.7219112e-9, 2.5599843e+2
-0.332, -5.5382552e-9, -1.7264644e-9, 2.5633176e+2
-0.331, -5.6400236e-9, -1.7117663e-9, 2.5666510e+2
-0.330, -5.5951306e-9, -1.6936332e-9, 2.5699844e+2
-0.329, -5.5885803e-9, -1.7001035e-9, 2.5733179e+2
-0.328, -5.6476925e-9, -1.7000236e-9, 2.5766513e+2
-0.327, -5.6684613e-9, -1.6917959e-9, 2.5799847e+2
-0.326, -5.6761302e-9, -1.7027397e-9, 2.5833182e+2
-0.325, -5.6747722e-9, -1.6887604e-9, 2.5866516e+2
-0.324, -5.7055267e-9, -1.6745415e-9, 2.5899850e+2
-0.323, -5.6814820e-9, -1.6953906e-9, 2.5933185e+2
-0.322, -5.6965797e-9, -1.6947516e-9, 2.5966519e+2
-0.321, -5.7537748e-9, -1.6778168e-9, 2.5999854e+2
-0.320, -5.7278129e-9, -1.6703079e-9, 2.6033188e+2
-0.319, -5.7187868e-9, -1.6764587e-9, 2.6066522e+2
-0.318, -5.7869252e-9, -1.6770179e-9, 2.6099857e+2
-0.317, -5.7402745e-9, -1.6785355e-9, 2.6133191e+2
-0.316, -5.7882836e-9, -1.6822901e-9, 2.6166525e+2
-0.315, -5.8057776e-9, -1.6819705e-9, 2.6199860e+2
-0.314, -5.8414842e-9, -1.6663138e-9, 2.6233194e+2
-0.313, -5.8511498e-9, -1.6665533e-9, 2.6266528e+2
-0.312, -5.8418035e-9, -1.6706273e-9, 2.6299863e+2
-0.311, -5.8465170e-9, -1.6576067e-9, 2.6333197e+2
-0.310, -5.8814247e-9, -1.6654350e-9, 2.6366531e+2
-0.309, -5.9583503e-9, -1.6810119e-9, 2.6399866e+2
-0.308, -5.9756049e-9, -1.6681511e-9, 2.6433200e+2
-0.307, -6.0844827e-9, -1.6683906e-9, 2.6466534e+2
-0.306, -6.0306431e-9, -1.6632783e-9, 2.6499869e+2
-0.305, -6.1273790e-9, -1.6599232e-9, 2.6533203e+2
-0.304, -6.0804091e-9, -1.6604824e-9, 2.6566537e+2
-0.303, -6.0743379e-9, -1.6552102e-9, 2.6599872e+2
-0.302, -6.1603704e-9, -1.6548908e-9, 2.6633206e+2
-0.301, -6.1489471e-9, -1.6616807e-9, 2.6666541e+2
-0.300, -6.1524621e-9, -1.6494589e-9, 2.6699875e+2
-0.299, -6.1856125e-9, -1.6580859e-9, 2.6733209e+2
-0.298, -6.1588521e-9, -1.6498583e-9, 2.6766544e+2
-0.297, -6.1812990e-9, -1.6506572e-9, 2.6799878e+2
-0.296, -6.1784236e-9, -1.6480209e-9, 2.6833212e+2
-0.295, -6.1983139e-9, -1.6481808e-9, 2.6866547e+2
-0.294, -6.1960774e-9, -1.6401127e-9, 2.6899881e+2
-0.293, -6.1989529e-9, -1.6320447e-9, 2.6933215e+2
-0.292, -6.2587038e-9, -1.6433878e-9, 2.6966550e+2
-0.291, -6.2400116e-9, -1.6374767e-9, 2.6999884e+2
-0.290, -6.2244347e-9, -1.6376364e-9, 2.7033218e+2
-0.289, -6.3006418e-9, -1.6375566e-9, 2.7066553e+2
-0.288, -6.2923342e-9, -1.6250152e-9, 2.7099887e+2
-0.287, -6.2941714e-9, -1.6270122e-9, 2.7133221e+2
-0.286, -6.3865140e-9, -1.6320447e-9, 2.7166556e+2
-0.285, -6.3364283e-9, -1.6303672e-9, 2.7199890e+2
-0.284, -6.3643069e-9, -1.6271720e-9, 2.7233224e+2
-0.283, -6.4369186e-9, -1.6238170e-9, 2.7266559e+2
-0.282, -6.4282122e-9, -1.6326038e-9, 2.7299893e+2
-0.281, -6.5318981e-9, -1.6037668e-9, 2.7333228e+2
-0.280, -6.5094508e-9, -1.6164680e-9, 2.7366562e+2
-0.279, -6.5193566e-9, -1.6155891e-9, 2.7399896e+2
-0.278, -6.5607346e-9, -1.6063231e-9, 2.7433231e+2
-0.277, -6.5926873e-9, -1.6078407e-9, 2.7466565e+2
-0.276, -6.6303918e-9, -1.6028882e-9, 2.7499899e+2
-0.275, -6.6699326e-9, -1.5928231e-9, 2.7533234e+2
-0.274, -6.6279950e-9, -1.6051248e-9, 2.7566568e+2
-0.273, -6.6934973e-9, -1.5901870e-9, 2.7599902e+2
-0.272, -6.6664980e-9, -1.5985744e-9, 2.7633237e+2
-0.271, -6.6665775e-9, -1.5778053e-9, 2.7666571e+2
-0.270, -6.7288051e-9, -1.5865125e-9, 2.7699905e+2
-0.269, -6.6827930e-9, -1.5703764e-9, 2.7733240e+2
-0.268, -6.7179413e-9, -1.5756486e-9, 2.7766574e+2
-0.267, -6.7818462e-9, -1.5629474e-9, 2.7799908e+2
-0.266, -6.7453407e-9, -1.5631871e-9, 2.7833243e+2
-0.265, -6.7650712e-9, -1.5628675e-9, 2.7866577e+2
-0.264, -6.8420767e-9, -1.5690983e-9, 2.7899911e+2
-0.263, -6.8290564e-9, -1.5365068e-9, 2.7933246e+2
-0.262, -6.8399997e-9, -1.5595126e-9, 2.7966580e+2
-0.261, -6.8538188e-9, -1.5415393e-9, 2.7999915e+2
-0.260, -6.9596617e-9, -1.5427375e-9, 2.8033249e+2
-0.259, -6.9757977e-9, -1.5295570e-9, 2.8066583e+2
-0.258, -6.9297061e-9, -1.5394623e-9, 2.8099918e+2
-0.257, -7.0842767e-9, -1.5285186e-9, 2.8133252e+2
-0.256, -7.0883508e-9, -1.5031164e-9, 2.8166586e+2
-0.255, -7.1373178e-9, -1.5508854e-9, 2.8199921e+2
-0.254, -7.2452373e-9, -1.5428173e-9, 2.8233255e+2
-0.253, -7.2014625e-9, -1.5276400e-9, 2.8266589e+2
-0.252, -7.2101689e-9, -1.5169359e-9, 2.8299924e+2
-0.251, -7.2412432e-9, -1.5258825e-9, 2.8333258e+2
-0.250, -7.2211130e-9, -1.5207702e-9, 2.8366592e+2
-0.249, -7.2066548e-9, -1.5029566e-9, 2.8399927e+2
-0.248, -7.2755122e-9, -1.5088678e-9, 2.8433261e+2
-0.247, -7.2737545e-9, -1.4839450e-9, 2.8466595e+2
-0.246, -7.2926865e-9, -1.4777941e-9, 2.8499930e+2
-0.245, -7.2753528e-9, -1.4730013e-9, 2.8533264e+2
-0.244, -7.4099527e-9, -1.4833857e-9, 2.8566599e+2
-0.243, -7.3453283e-9, -1.4568652e-9, 2.8599933e+2
-0.242, -7.4603577e-9, -1.4820278e-9, 2.8633267e+2
-0.241, -7.5375226e-9, -1.4396108e-9, 2.8666602e+2
-0.240, -7.5426350e-9, -1.4406493e-9, 2.8699936e+2
-0.239, -7.5584516e-9, -1.4405694e-9, 2.8733270e+2
-0.238, -7.6289064e-9, -1.4212381e-9, 2.8766605e+2
-0.237, -7.6256317e-9, -1.4277884e-9, 2.8799939e+2
-0.236, -7.6335400e-9, -1.3937590e-9, 2.8833273e+2
-0.235, -7.6756370e-9, -1.3701940e-9, 2.8866608e+2
-0.234, -7.6537496e-9, -1.4493563e-9, 2.8899942e+2
-0.233, -7.6697262e-9, -1.3967945e-9, 2.8933276e+2
-0.232, -7.7154976e-9, -1.3976732e-9, 2.8966611e+2
-0.231, -7.7210895e-9, -1.3836940e-9, 2.8999945e+2
-0.230, -7.7752498e-9, -1.3572533e-9, 2.9033279e+2
-0.229, -7.7152587e-9, -1.3558155e-9, 2.9066614e+2
-0.228, -7.8201428e-9, -1.3965549e-9, 2.9099948e+2
-0.227, -7.8099971e-9, -1.3730698e-9, 2.9133282e+2
-0.226, -7.8310860e-9, -1.3459102e-9, 2.9166617e+2
-0.225, -7.9644886e-9, -1.3337682e-9, 2.9199951e+2
-0.224, -7.9767899e-9, -1.3308126e-9, 2.9233286e+2
-0.223, -7.9886124e-9, -1.3602888e-9, 2.9266620e+2
-0.222, -8.1117895e-9, -1.3343274e-9, 2.9299954e+2
-0.221, -8.0375795e-9, -1.3203482e-9, 2.9333289e+2
-0.220, -8.1073157e-9, -1.3308925e-9, 2.9366623e+2
-0.219, -8.1425426e-9, -1.3060494e-9, 2.9399957e+2
-0.218, -8.1187386e-9, -1.3189901e-9, 2.9433292e+2
-0.217, -8.1561229e-9, -1.2947862e-9, 2.9466626e+2
-0.216, -8.1968619e-9, -1.2844016e-9, 2.9499960e+2
-0.215, -8.1541263e-9, -1.2856797e-9, 2.9533295e+2
-0.214, -8.1813658e-9, -1.2682656e-9, 2.9566629e+2
-0.213, -8.2117202e-9, -1.3009369e-9, 2.9599963e+2
-0.212, -8.2844922e-9, -1.2868779e-9, 2.9633298e+2
-0.211, -8.3199589e-9, -1.2693839e-9, 2.9666632e+2
-0.210, -8.2405576e-9, -1.2574017e-9, 2.9699966e+2
-0.209, -8.3427256e-9, -1.2574817e-9, 2.9733301e+2
-0.208, -8.3606189e-9, -1.2609963e-9, 2.9766635e+2
-0.207, -8.3204386e-9, -1.2397480e-9, 2.9799969e+2
-0.206, -8.4381835e-9, -1.2836028e-9, 2.9833304e+2
-0.205, -8.5016092e-9, -1.2180202e-9, 2.9866638e+2
-0.204, -8.5488994e-9, -1.2656295e-9, 2.9899973e+2
-0.203, -8.5261327e-9, -1.2633129e-9, 2.9933307e+2
-0.202, -8.6261442e-9, -1.2753750e-9, 2.9966641e+2
-0.201, -8.6160794e-9, -1.2430231e-9, 2.9999976e+2
-0.200, -8.5504164e-9, -1.2502923e-9, 3.0033310e+2
-0.199, -8.6206322e-9, -1.2487745e-9, 3.0066644e+2
-0.198, -8.6342924e-9, -1.2638721e-9, 3.0099979e+2
-0.197, -8.6259044e-9, -1.2482153e-9, 3.0133313e+2
-0.196, -8.6399634e-9, -1.2370320e-9, 3.0166647e+2
-0.195, -8.6315763e-9, -1.2480557e-9, 3.0199982e+2
-0.194, -8.6389251e-9, -1.2137866e-9, 3.0233316e+2
-0.193, -8.7573895e-9, -1.2396681e-9, 3.0266650e+2
-0.192, -8.6377270e-9, -1.2193783e-9, 3.0299985e+2
-0.191, -8.6850171e-9, -1.2273664e-9, 3.0333319e+2
-0.190, -8.7367003e-9, -1.2251297e-9, 3.0366653e+2
-0.189, -8.7297503e-9, -1.2416652e-9, 3.0399988e+2
-0.188, -8.7401348e-9, -1.2499728e-9, 3.0433322e+2
-0.187, -8.8462171e-9, -1.2231327e-9, 3.0466656e+2
-0.186, -8.7255962e-9, -1.2373516e-9, 3.0499991e+2
-0.185, -8.7855865e-9, -1.1984493e-9, 3.0533325e+2
-0.184, -8.8206553e-9, -1.2276060e-9, 3.0566660e+2
-0.183, -8.8256078e-9, -1.2044404e-9, 3.0599994e+2
-0.182, -8.8969418e-9, -1.2302421e-9, 3.0633328e+2
-0.181, -8.8812051e-9, -1.2177807e-9, 3.0666663e+2
-0.180, -8.9664383e-9, -1.2224137e-9, 3.0699997e+2
-0.179, -8.9606074e-9, -1.2097925e-9, 3.0733331e+2
-0.178, -8.8919085e-9, -1.1995677e-9, 3.0766666e+2
-0.177, -9.0632541e-9, -1.2057185e-9, 3.0800000e+2
-0.176, -8.9800976e-9, -1.2048398e-9, 3.0833334e+2
-0.175, -8.9846512e-9, -1.1955736e-9, 3.0866669e+2
-0.174, -9.1040739e-9, -1.2021240e-9, 3.0900003e+2
-0.173, -9.0441628e-9, -1.1838310e-9, 3.0933337e+2
-0.172, -9.1071088e-9, -1.1891033e-9, 3.0966672e+2
-0.171, -9.1234851e-9, -1.1792779e-9, 3.1000006e+2
-0.170, -9.0624557e-9, -1.1965322e-9, 3.1033340e+2
-0.169, -9.0896952e-9, -1.1840707e-9, 3.1066675e+2
-0.168, -9.1079873e-9, -1.2016447e-9, 3.1100009e+2
-0.167, -9.1317922e-9, -1.1792779e-9, 3.1133344e+2
-0.166, -9.1041539e-9, -1.1779998e-9, 3.1166678e+2
-0.165, -9.1301153e-9, -1.1929375e-9, 3.1200012e+2
-0.164, -9.1698960e-9, -1.1935766e-9, 3.1233347e+2
-0.163, -9.1193311e-9, -1.1894228e-9, 3.1266681e+2
-0.162, -9.1591117e-9, -1.1760827e-9, 3.1300015e+2
-0.161, -9.1942596e-9, -1.1696921e-9, 3.1333350e+2
-0.160, -9.1619876e-9, -1.1719288e-9, 3.1366684e+2
-0.159, -9.1762864e-9, -1.1703312e-9, 3.1400018e+2
-0.158, -9.2362766e-9, -1.1676152e-9, 3.1433353e+2
-0.157, -9.1744488e-9, -1.1783992e-9, 3.1466687e+2
-0.156, -9.2017682e-9, -1.1925382e-9, 3.1500021e+2
-0.155, -9.2151087e-9, -1.1633017e-9, 3.1533356e+2
-0.154, -9.1758077e-9, -1.1647395e-9, 3.1566690e+2
-0.153, -9.2524131e-9, -1.1668164e-9, 3.1600024e+2
-0.152, -9.2232559e-9, -1.1760827e-9, 3.1633359e+2
-0.151, -9.2508152e-9, -1.1596271e-9, 3.1666693e+2
-0.150, -9.2212593e-9, -1.1705708e-9, 3.1700027e+2
-0.149, -9.2299661e-9, -1.1597868e-9, 3.1733362e+2
-0.148, -9.2736618e-9, -1.1641004e-9, 3.1766696e+2
-0.147, -9.2503365e-9, -1.1610649e-9, 3.1800031e+2
-0.146, -9.2527319e-9, -1.1562721e-9, 3.1833365e+2
-0.145, -9.3961994e-9, -1.1536360e-9, 3.1866699e+2
-0.144, -9.2631973e-9, -1.1721685e-9, 3.1900034e+2
-0.143, -9.2760581e-9, -1.1613046e-9, 3.1933368e+2
-0.142, -9.4481223e-9, -1.1513194e-9, 3.1966702e+2
-0.141, -9.3191934e-9, -1.1619437e-9, 3.2000037e+2
-0.140, -9.3881320e-9, -1.1456478e-9, 3.2033371e+2
-0.139, -9.4724859e-9, -1.1553934e-9, 3.2066705e+2
-0.138, -9.3488302e-9, -1.1520384e-9, 3.2100040e+2
-0.137, -9.4296695e-9, -1.1371005e-9, 3.2133374e+2
-0.136, -9.4632195e-9, -1.1457277e-9, 3.2166708e+2
-0.135, -9.3842969e-9, -1.1380592e-9, 3.2200043e+2
-0.134, -9.3184749e-9, -1.1535561e-9, 3.2233377e+2
-0.133, -9.5814441e-9, -1.1500414e-9, 3.2266711e+2
-0.132, -9.5330357e-9, -1.1435709e-9, 3.2300046e+2
-0.131, -9.5840003e-9, -1.1403757e-9, 3.2333380e+2
-0.130, -9.5412638e-9, -1.1454881e-9, 3.2366714e+2
-0.129, -9.6146753e-9, -1.1451686e-9, 3.2400049e+2
-0.128, -9.5945447e-9, -1.1370207e-9, 3.2433383e+2
-0.127, -9.6063664e-9, -1.1361421e-9, 3.2466718e+2
-0.126, -9.6300914e-9, -1.1462070e-9, 3.2500052e+2
-0.125, -9.5976596e-9, -1.1205652e-9, 3.2533386e+2
-0.124, -9.6066861e-9, -1.1220030e-9, 3.2566721e+2
-0.123, -9.6590886e-9, -1.1348639e-9, 3.2600055e+2
-0.122, -9.6115587e-9, -1.1263166e-9, 3.2633389e+2
-0.121, -9.6909609e-9, -1.1373402e-9, 3.2666724e+2
-0.120, -9.6495825e-9, -1.1307900e-9, 3.2700058e+2
-0.119, -9.6605266e-9, -1.1179291e-9, 3.2733392e+2
-0.118, -9.6733075e-9, -1.1281539e-9, 3.2766727e+2
-0.117, -9.6830526e-9, -1.1212041e-9, 3.2800061e+2
-0.116, -9.7439221e-9, -1.1229616e-9, 3.2833395e+2
-0.115, -9.7573425e-9, -1.1087427e-9, 3.2866730e+2
-0.114, -9.6989492e-9, -1.1224024e-9, 3.2900064e+2
-0.113, -9.8176525e-9, -1.1390178e-9, 3.2933398e+2
-0.112, -9.8689368e-9, -1.0814234e-9, 3.2966733e+2
-0.111, -9.8832356e-9, -1.1191273e-9, 3.3000067e+2
-0.110, -1.0075669e-8, -1.0906895e-9, 3.3033401e+2
-0.109, -9.7547064e-9, -1.0878938e-9, 3.3066736e+2
-0.108, -1.0027581e-8, -1.1265563e-9, 3.3100070e+2
-0.107, -1.0118725e-8, -1.1120179e-9, 3.3133405e+2
-0.106, -9.9778150e-9, -1.1110592e-9, 3.3166739e+2
-0.105, -1.0131187e-8, -1.1088226e-9, 3.3200073e+2
-0.104, -1.0241823e-8, -1.1482839e-9, 3.3233408e+2
-0.103, -1.0173523e-8, -1.1001156e-9, 3.3266742e+2
-0.102, -1.0240624e-8, -1.0989173e-9, 3.3300076e+2
-0.101, -1.0256360e-8, -1.0929262e-9, 3.3333411e+2
-0.100, -1.0176399e-8, -1.0702400e-9, 3.3366745e+2
-0.099, -1.0137018e-8, -1.0977990e-9, 3.3400079e+2
-0.098, -1.0428824e-8, -1.1492425e-9, 3.3433414e+2
-0.097, -1.0268821e-8, -1.0939647e-9, 3.3466748e+2
-0.096, -1.0501277e-8, -1.0914883e-9, 3.3500082e+2
-0.095, -1.0479149e-8, -1.1224024e-9, 3.3533417e+2
-0.094, -1.0553839e-8, -1.0878938e-9, 3.3566751e+2
-0.093, -1.0554158e-8, -1.1061067e-9, 3.3600085e+2
-0.092, -1.0582196e-8, -1.0939647e-9, 3.3633420e+2
-0.091, -1.0599131e-8, -1.0850180e-9, 3.3666754e+2
-0.090, -1.0603045e-8, -1.0880534e-9, 3.3700089e+2
-0.089, -1.0599930e-8, -1.0947635e-9, 3.3733423e+2
-0.088, -1.0670944e-8, -1.1019528e-9, 3.3766757e+2
-0.087, -1.0726621e-8, -1.0771097e-9, 3.3800092e+2
-0.086, -1.0649855e-8, -1.1053078e-9, 3.3833426e+2
-0.085, -1.0796597e-8, -1.0680034e-9, 3.3866760e+2
-0.084, -1.0990549e-8, -1.0939647e-9, 3.3900095e+2
-0.083, -1.1002610e-8, -1.0679234e-9, 3.3933429e+2
-0.082, -1.1019705e-8, -1.0935653e-9, 3.3966763e+2
-0.081, -1.1090481e-8, -1.0933257e-9, 3.4000098e+2
-0.080, -1.1103102e-8, -1.0932458e-9, 3.4033432e+2
-0.079, -1.1141844e-8, -1.0875743e-9, 3.4066766e+2
-0.078, -1.1186578e-8, -1.0757518e-9, 3.4100101e+2
-0.077, -1.1171241e-8, -1.0696808e-9, 3.4133435e+2
-0.076, -1.1296814e-8, -1.0672045e-9, 3.4166769e+2
-0.075, -1.1378452e-8, -1.0860565e-9, 3.4200104e+2
-0.074, -1.1342106e-8, -1.0819825e-9, 3.4233438e+2
-0.073, -1.1486292e-8, -1.0723968e-9, 3.4266772e+2
-0.072, -1.1522798e-8, -1.0761512e-9, 3.4300107e+2
-0.071, -1.1559783e-8, -1.0584176e-9, 3.4333441e+2
-0.070, -1.1605555e-8, -1.0619323e-9, 3.4366776e+2
-0.069, -1.1587422e-8, -1.0720773e-9, 3.4400110e+2
-0.068, -1.1699336e-8, -1.0612933e-9, 3.4433444e+2
-0.067, -1.1706605e-8, -1.0779085e-9, 3.4466779e+2
-0.066, -1.1745986e-8, -1.0625714e-9, 3.4500113e+2
-0.065, -1.2008635e-8, -1.0665654e-9, 3.4533447e+2
-0.064, -1.1956393e-8, -1.0707192e-9, 3.4566782e+2
-0.063, -1.2049216e-8, -1.0677637e-9, 3.4600116e+2
-0.062, -1.2087717e-8, -1.0754323e-9, 3.4633450e+2
-0.061, -1.2078052e-8, -1.0575388e-9, 3.4666785e+2
-0.060, -1.2139322e-8, -1.0692015e-9, 3.4700119e+2
-0.059, -1.2281190e-8, -1.0565803e-9, 3.4733453e+2
-0.058, -1.2274480e-8, -1.0595359e-9, 3.4766788e+2
-0.057, -1.2374332e-8, -1.0566602e-9, 3.4800122e+2
-0.056, -1.2461323e-8, -1.0512282e-9, 3.4833456e+2
-0.055, -1.2524109e-8, -1.0629708e-9, 3.4866791e+2
-0.054, -1.2538408e-8, -1.0553022e-9, 3.4900125e+2
-0.053, -1.2561174e-8, -1.0592963e-9, 3.4933459e+2
-0.052, -1.2594246e-8, -1.0553022e-9, 3.4966794e+2
-0.051, -1.2627715e-8, -1.0503495e-9, 3.5000128e+2
-0.050, -1.2663982e-8, -1.0561809e-9, 3.5033463e+2
-0.049, -1.2964414e-8, -1.0539443e-9, 3.5066797e+2
-0.048, -1.2908258e-8, -1.0493111e-9, 3.5100131e+2
-0.047, -1.2952113e-8, -1.0497105e-9, 3.5133466e+2
-0.046, -1.3059713e-8, -1.0586572e-9, 3.5166800e+2
-0.045, -1.3084557e-8, -1.0569797e-9, 3.5200134e+2
-0.044, -1.3117547e-8, -1.0467549e-9, 3.5233469e+2
-0.043, -1.3163479e-8, -1.0445982e-9, 3.5266803e+2
-0.042, -1.3166994e-8, -1.0377283e-9, 3.5300137e+2
-0.041, -1.3245037e-8, -1.0445982e-9, 3.5333472e+2
-0.040, -1.3268761e-8, -1.0437993e-9, 3.5366806e+2
-0.039, -1.3397131e-8, -1.0495508e-9, 3.5400140e+2
-0.038, -1.3411270e-8, -1.0485123e-9, 3.5433475e+2
-0.037, -1.3500578e-8, -1.0500300e-9, 3.5466809e+2
-0.036, -1.3553140e-8, -1.0457165e-9, 3.5500143e+2
-0.035, -1.3546349e-8, -1.0372490e-9, 3.5533478e+2
-0.034, -1.3545550e-8, -1.0431602e-9, 3.5566812e+2
-0.033, -1.3666730e-8, -1.0418821e-9, 3.5600146e+2
-0.032, -1.3697405e-8, -1.0433200e-9, 3.5633481e+2
-0.031, -1.3693970e-8, -1.0449975e-9, 3.5666815e+2
-0.030, -1.3931616e-8, -1.0405241e-9, 3.5700150e+2
-0.029, -1.3802129e-8, -1.0552222e-9, 3.5733484e+2
-0.028, -1.3985137e-8, -1.0435596e-9, 3.5766818e+2
-0.027, -1.4034744e-8, -1.0289414e-9, 3.5800153e+2
-0.026, -1.4017808e-8, -1.0335744e-9, 3.5833487e+2
-0.025, -1.4082272e-8, -1.0382076e-9, 3.5866821e+2
-0.024, -1.4070849e-8, -1.0322964e-9, 3.5900156e+2
-0.023, -1.4120536e-8, -1.0515477e-9, 3.5933490e+2
-0.022, -1.4126766e-8, -1.0340538e-9, 3.5966824e+2
-0.021, -1.4202493e-8, -1.0354118e-9, 3.6000159e+2
-0.020, -1.4295556e-8, -1.0368496e-9, 3.6033493e+2
-0.019, -1.4272550e-8, -1.0355715e-9, 3.6066827e+2
-0.018, -1.4394050e-8, -1.0345330e-9, 3.6100162e+2
-0.017, -1.4477445e-8, -1.0295804e-9, 3.6133496e+2
-0.016, -1.4415856e-8, -1.0321367e-9, 3.6166830e+2
-0.015, -1.4516027e-8, -1.0312580e-9, 3.6200165e+2
-0.014, -1.4509957e-8, -1.0290212e-9, 3.6233499e+2
-0.013, -1.4519062e-8, -1.0228703e-9, 3.6266833e+2
-0.012, -1.4524176e-8, -1.0275035e-9, 3.6300168e+2
-0.011, -1.4572343e-8, -1.0273438e-9, 3.6333502e+2
-0.010, -1.4538953e-8, -1.0384472e-9, 3.6366837e+2
-0.009, -1.4587042e-8, -1.0206337e-9, 3.6400171e+2
-0.008, -1.4636329e-8, -1.0124859e-9, 3.6433505e+2
-0.007, -1.4677787e-8, -1.0359710e-9, 3.6466840e+2
-0.006, -1.4714132e-8, -1.0286219e-9, 3.6500174e+2
-0.005, -1.4659654e-8, -1.0304591e-9, 3.6533508e+2
-0.004, -1.4825727e-8, -1.0010628e-9, 3.6566843e+2
-0.003, -1.4780994e-8, -1.0168792e-9, 3.6600177e+2
-0.002, -1.4815103e-8, -1.0140035e-9, 3.6633511e+2
-0.001, -1.4965361e-8, -1.0128054e-9, 3.6666846e+2
-0.000, -1.4865269e-8, -1.0052166e-9, 3.6700180e+2
0.001, -1.4969993e-8, -9.9371378e-10, 3.6733514e+2
0.002, -1.5007936e-8, -1.0203941e-9, 3.6766849e+2
0.003, -1.4974466e-8, -9.7965469e-10, 3.6800183e+2
0.004, -1.5019040e-8, -1.0241485e-9, 3.6833517e+2
0.005, -1.5070404e-8, -9.7621977e-10, 3.6866852e+2
0.006, -1.5049315e-8, -1.0199148e-9, 3.6900186e+2
0.007, -1.5109865e-8, -1.0120864e-9, 3.6933521e+2
0.008, -1.5121287e-8, -1.0065747e-9, 3.6966855e+2
0.009, -1.5140380e-8, -9.8021391e-10, 3.7000189e+2
0.010, -1.5170814e-8, -1.0104888e-9, 3.7033524e+2
0.011, -1.5222897e-8, -1.0114474e-9, 3.7066858e+2
0.012, -1.5414932e-8, -9.9315456e-10, 3.7100192e+2
0.013, -1.5450318e-8, -9.7773745e-10, 3.7133527e+2
0.014, -1.5394082e-8, -9.8844166e-10, 3.7166861e+2
0.015, -1.5504877e-8, -9.8971964e-10, 3.7200195e+2
0.016, -1.5488263e-8, -9.8692388e-10, 3.7233530e+2
0.017, -1.5540984e-8, -9.7158659e-10, 3.7266864e+2
0.018, -1.5674544e-8, -9.9794750e-10, 3.7300198e+2
0.019, -1.5651061e-8, -9.7805697e-10, 3.7333533e+2
0.020, -1.5765929e-8, -9.7230557e-10, 3.7366867e+2
0.021, -1.5850365e-8, -1.0009829e-9, 3.7400201e+2
0.022, -1.5926810e-8, -9.8324926e-10, 3.7433536e+2
0.023, -1.5997824e-8, -9.8221087e-10, 3.7466870e+2
0.024, -1.6021311e-8, -9.7526121e-10, 3.7500204e+2
0.025, -1.6096639e-8, -1.0006634e-9, 3.7533539e+2
0.026, -1.6266625e-8, -9.6998909e-10, 3.7566873e+2
0.027, -1.6290429e-8, -9.9674924e-10, 3.7600208e+2
0.028, -1.6427904e-8, -9.9267528e-10, 3.7633542e+2
0.029, -1.6471201e-8, -9.9634989e-10, 3.7666876e+2
0.030, -1.6458580e-8, -9.6703345e-10, 3.7700211e+2
0.031, -1.6656525e-8, -9.7725816e-10, 3.7733545e+2
0.032, -1.6703735e-8, -9.9331432e-10, 3.7766879e+2
0.033, -1.6749906e-8, -9.7542097e-10, 3.7800214e+2
0.034, -1.6977967e-8, -9.7773745e-10, 3.7833548e+2
0.035, -1.7034683e-8, -9.7182629e-10, 3.7866882e+2
0.036, -1.7030050e-8, -9.7989428e-10, 3.7900217e+2
0.037, -1.7295815e-8, -9.5281449e-10, 3.7933551e+2
0.038, -1.7343824e-8, -9.0448643e-10, 3.7966885e+2
0.039, -1.7436806e-8, -9.6759256e-10, 3.8000220e+2
0.040, -1.7475708e-8, -9.5137664e-10, 3.8033554e+2
0.041, -1.7670937e-8, -9.5888553e-10, 3.8066888e+2
0.042, -1.7724538e-8, -9.5720809e-10, 3.8100223e+2
0.043, -1.7877829e-8, -9.5712815e-10, 3.8133557e+2
0.044, -1.7978401e-8, -9.5089736e-10, 3.8166891e+2
0.045, -1.8104933e-8, -9.1191543e-10, 3.8200226e+2
0.046, -1.8200069e-8, -9.4003350e-10, 3.8233560e+2
0.047, -1.8431725e-8, -9.5249497e-10, 3.8266895e+2
0.048, -1.8463918e-8, -9.5257491e-10, 3.8300229e+2
0.049, -1.8566405e-8, -9.2701291e-10, 3.8333563e+2
0.050, -1.8871633e-8, -9.2853064e-10, 3.8366898e+2
0.051, -1.8903505e-8, -9.2645375e-10, 3.8400232e+2
0.052, -1.9020291e-8, -8.7996282e-10, 3.8433566e+2
0.053, -1.9264647e-8, -9.3891517e-10, 3.8466901e+2
0.054, -1.9347246e-8, -9.3020819e-10, 3.8500235e+2
0.055, -1.9436152e-8, -9.5585007e-10, 3.8533569e+2
0.056, -1.9537602e-8, -8.9977337e-10, 3.8566904e+2
0.057, -1.9807921e-8, -9.2397745e-10, 3.8600238e+2
0.058, -1.9898824e-8, -9.1670826e-10, 3.8633572e+2
0.059, -2.0056991e-8, -9.5297437e-10, 3.8666907e+2
0.060, -2.0326508e-8, -9.3108687e-10, 3.8700241e+2
0.061, -2.0399440e-8, -8.9106633e-10, 3.8733575e+2
0.062, -2.0485393e-8, -9.1359292e-10, 3.8766910e+2
0.063, -2.0801084e-8, -9.5265484e-10, 3.8800244e+2
0.064, -2.0896543e-8, -9.1646857e-10, 3.8833578e+2
0.065, -2.0989763e-8, -9.1487096e-10, 3.8866913e+2
0.066, -2.1339085e-8, -9.1415209e-10, 3.8900247e+2
0.067, -2.1393882e-8, -8.5703694e-10, 3.8933582e+2
0.068, -2.1492136e-8, -9.2605440e-10, 3.8966916e+2
0.069, -2.1799998e-8, -8.9913438e-10, 3.9000250e+2
0.070, -2.1870694e-8, -8.8691254e-10, 3.9033585e+2
0.071, -2.2097158e-8, -8.8555452e-10, 3.9066919e+2
0.072, -2.2253724e-8, -8.7245405e-10, 3.9100253e+2
0.073, -2.2346706e-8, -8.9785623e-10, 3.9133588e+2
0.074, -2.2555035e-8, -8.7852497e-10, 3.9166922e+2
0.075, -2.2758973e-8, -8.9522012e-10, 3.9200256e+2
0.076, -2.2947413e-8, -8.8946878e-10, 3.9233591e+2
0.077, -2.3094874e-8, -8.5208435e-10, 3.9266925e+2
0.078, -2.3263503e-8, -8.7716701e-10, 3.9300259e+2
0.079, -2.3461848e-8, -8.8315810e-10, 3.9333594e+2
0.080, -2.3537336e-8, -8.5392160e-10, 3.9366928e+2
0.081, -2.3713314e-8, -8.5472035e-10, 3.9400262e+2
0.082, -2.3943612e-8, -8.6750140e-10, 3.9433597e+2
0.083, -2.3990742e-8, -8.7437119e-10, 3.9466931e+2
0.084, -2.4252271e-8, -8.5695706e-10, 3.9500266e+2
0.085, -2.4348211e-8, -8.2835955e-10, 3.9533600e+2
0.086, -2.4436160e-8, -8.6702212e-10, 3.9566934e+2
0.087, -2.4609422e-8, -8.7373209e-10, 3.9600269e+2
0.088, -2.4729482e-8, -8.2676199e-10, 3.9633603e+2
0.089, -2.4892282e-8, -8.2164958e-10, 3.9666937e+2
0.090, -2.4965852e-8, -8.1677681e-10, 3.9700272e+2
0.091, -2.5183448e-8, -8.3411106e-10, 3.9733606e+2
0.092, -2.5301034e-8, -8.5352214e-10, 3.9766940e+2
0.093, -2.5370529e-8, -8.6510499e-10, 3.9800275e+2
0.094, -2.5401286e-8, -8.2748086e-10, 3.9833609e+2
0.095, -2.5730234e-8, -8.4888907e-10, 3.9866943e+2
0.096, -2.5753879e-8, -8.4401630e-10, 3.9900278e+2
0.097, -2.5842947e-8, -8.4377666e-10, 3.9933612e+2
0.098, -2.5968921e-8, -8.3938317e-10, 3.9966946e+2
0.099, -2.6016931e-8, -8.1230345e-10, 4.0000281e+2
