Dec. 21, 2005   09:27:31
Cyclic Voltammetry
File: d:\ida_biofilms\12_10_18_dphzstar\a_760b\200um_pyo\a_200um_pyo_gc_3.txt
Data Source:  Experiment
Instrument Model:  CHI760E
Header: 
Note: 

Init E (V) = 0.1
High E (V) = 0.1
Low E (V) = -0.5
Init P/N = N
Scan Rate (V/s) = 0.003
Segment = 1
Sample Interval (V) = 0.001
Quiet Time (sec) = 2
Sensitivity (A/V) = 1e-7
2nd E (V) = 0.1
Sens 2 (A/V) = 1e-7

Potential/V, i1/A, i2/A, Time/s

0.100, -1.0398286e-7, -9.6227886e-8, 3.3333334e-1
0.099, -8.7033577e-8, -8.7590251e-8, 6.6666669e-1
0.098, -7.6632958e-8, -8.0841559e-8, 1.0000000e+0
0.097, -6.8611364e-8, -7.5197633e-8, 1.3333334e+0
0.096, -6.2429834e-8, -7.0392062e-8, 1.6666667e+0
0.095, -5.7196733e-8, -6.6324425e-8, 2.0000000e+0
0.094, -5.2624888e-8, -6.2639586e-8, 2.3333333e+0
0.093, -4.8815355e-8, -5.9469336e-8, 2.6666665e+0
0.092, -4.5485905e-8, -5.6517568e-8, 2.9999998e+0
0.091, -4.2425334e-8, -5.3898503e-8, 3.3333330e+0
0.090, -3.9909875e-8, -5.1449664e-8, 3.6666663e+0
0.089, -3.7616164e-8, -4.9283919e-8, 3.9999995e+0
0.088, -3.5418232e-8, -4.7202377e-8, 4.3333330e+0
0.087, -3.3461703e-8, -4.5419426e-8, 4.6666665e+0
0.086, -3.1629543e-8, -4.3680970e-8, 5.0000000e+0
0.085, -3.0069547e-8, -4.2166903e-8, 5.3333335e+0
0.084, -2.8584310e-8, -4.0700520e-8, 5.6666670e+0
0.083, -2.7253648e-8, -3.9452296e-8, 6.0000005e+0
0.082, -2.5941203e-8, -3.8246970e-8, 6.3333340e+0
0.081, -2.4744981e-8, -3.7125357e-8, 6.6666675e+0
0.080, -2.3707722e-8, -3.6083623e-8, 7.0000010e+0
0.079, -2.2735486e-8, -3.5135194e-8, 7.3333344e+0
0.078, -2.1580245e-8, -3.4250672e-8, 7.6666679e+0
0.077, -2.0805636e-8, -3.3420065e-8, 8.0000010e+0
0.076, -1.9928700e-8, -3.2600003e-8, 8.3333340e+0
0.075, -1.9047690e-8, -3.1932437e-8, 8.6666670e+0
0.074, -1.8414552e-8, -3.1207676e-8, 9.0000000e+0
0.073, -1.7605675e-8, -3.0576054e-8, 9.3333330e+0
0.072, -1.6979886e-8, -2.9959850e-8, 9.6666660e+0
0.071, -1.6400826e-8, -2.9417455e-8, 9.9999990e+0
0.070, -1.5633088e-8, -2.8822420e-8, 1.0333332e+1
0.069, -1.5079589e-8, -2.8181693e-8, 1.0666665e+1
0.068, -1.4504045e-8, -2.7643773e-8, 1.0999998e+1
0.067, -1.3894711e-8, -2.7137325e-8, 1.1333331e+1
0.066, -1.3479569e-8, -2.6703651e-8, 1.1666664e+1
0.065, -1.2850903e-8, -2.6332682e-8, 1.1999997e+1
0.064, -1.2485606e-8, -2.5946138e-8, 1.2333330e+1
0.063, -1.2042345e-8, -2.5527477e-8, 1.2666663e+1
0.062, -1.1466961e-8, -2.5119844e-8, 1.2999996e+1
0.061, -1.1124031e-8, -2.4752712e-8, 1.3333329e+1
0.060, -1.0615027e-8, -2.4445328e-8, 1.3666662e+1
0.059, -1.0157308e-8, -2.4117814e-8, 1.3999995e+1
0.058, -9.8810782e-9, -2.3697639e-8, 1.4333328e+1
0.057, -9.4730455e-9, -2.3445134e-8, 1.4666661e+1
0.056, -9.1398604e-9, -2.3117861e-8, 1.4999994e+1
0.055, -8.7226404e-9, -2.2838996e-8, 1.5333327e+1
0.054, -8.4425773e-9, -2.2598075e-8, 1.5666660e+1
0.053, -8.1149043e-9, -2.2293328e-8, 1.5999993e+1
0.052, -7.7331519e-9, -2.2089710e-8, 1.6333326e+1
0.051, -7.4552444e-9, -2.1779051e-8, 1.6666660e+1
0.050, -7.1935542e-9, -2.1604752e-8, 1.6999994e+1
0.049, -6.8086066e-9, -2.1311907e-8, 1.7333328e+1
0.048, -6.6219239e-9, -2.1136808e-8, 1.7666662e+1
0.047, -6.2896981e-9, -2.0885341e-8, 1.7999996e+1
0.046, -5.9672973e-9, -2.0690511e-8, 1.8333330e+1
0.045, -5.7416329e-9, -2.0503109e-8, 1.8666664e+1
0.044, -5.5828289e-9, -2.0250285e-8, 1.8999998e+1
0.043, -5.2318305e-9, -2.0124951e-8, 1.9333332e+1
0.042, -5.0367603e-9, -1.9830988e-8, 1.9666666e+1
0.041, -4.7786641e-9, -1.9721870e-8, 2.0000000e+1
0.040, -4.6022866e-9, -1.9544535e-8, 2.0333334e+1
0.039, -4.3865276e-9, -1.9325579e-8, 2.0666668e+1
0.038, -4.1772386e-9, -1.9182353e-8, 2.1000002e+1
0.037, -3.8331902e-9, -1.9031297e-8, 2.1333336e+1
0.036, -3.7426049e-9, -1.8834070e-8, 2.1666670e+1
0.035, -3.4904197e-9, -1.8723675e-8, 2.2000004e+1
0.034, -3.3378464e-9, -1.8580687e-8, 2.2333338e+1
0.033, -3.1565159e-9, -1.8424998e-8, 2.2666672e+1
0.032, -2.9606473e-9, -1.8299824e-8, 2.3000006e+1
0.031, -2.7745239e-9, -1.8196777e-8, 2.3333340e+1
0.030, -2.4872708e-9, -1.8100280e-8, 2.3666674e+1
0.029, -2.3951681e-9, -1.7860158e-8, 2.4000008e+1
0.028, -2.2298137e-9, -1.7785869e-8, 2.4333342e+1
0.027, -1.9325757e-9, -1.7673875e-8, 2.4666676e+1
0.026, -1.8446265e-9, -1.7572665e-8, 2.5000010e+1
0.025, -1.7398224e-9, -1.7346123e-8, 2.5333344e+1
0.024, -1.4957851e-9, -1.7300589e-8, 2.5666677e+1
0.023, -1.4017648e-9, -1.7186201e-8, 2.6000011e+1
0.022, -1.2656471e-9, -1.7019328e-8, 2.6333345e+1
0.021, -1.1543727e-9, -1.6890798e-8, 2.6666679e+1
0.020, -9.5458963e-10, -1.6797019e-8, 2.7000013e+1
0.019, -8.1527679e-10, -1.6753164e-8, 2.7333347e+1
0.018, -7.6367351e-10, -1.6692614e-8, 2.7666681e+1
0.017, -4.5005977e-10, -1.6512642e-8, 2.8000015e+1
0.016, -3.7688855e-10, -1.6398172e-8, 2.8333349e+1
0.015, -3.0451616e-10, -1.6335465e-8, 2.8666683e+1
0.014, -1.5002584e-10, -1.6304551e-8, 2.9000017e+1
0.013, -1.4866776e-11, -1.6256942e-8, 2.9333351e+1
0.012, 8.4106076e-11, -1.6145028e-8, 2.9666685e+1
0.011, 2.0400782e-10, -1.5977676e-8, 3.0000019e+1
0.010, 2.9427363e-10, -1.5943328e-8, 3.0333353e+1
0.009, 5.0939380e-10, -1.5823986e-8, 3.0666687e+1
0.008, 6.1835181e-10, -1.5738832e-8, 3.1000021e+1
0.007, 6.9671530e-10, -1.5701129e-8, 3.1333355e+1
0.006, 8.1126506e-10, -1.5613498e-8, 3.1666689e+1
0.005, 8.6143048e-10, -1.5470430e-8, 3.2000023e+1
0.004, 1.1274349e-9, -1.5421943e-8, 3.2333355e+1
0.003, 1.1657779e-9, -1.5366904e-8, 3.2666687e+1
0.002, 1.1974109e-9, -1.5316818e-8, 3.3000019e+1
0.001, 1.4410486e-9, -1.5238456e-8, 3.3333351e+1
-0.000, 1.4884183e-9, -1.5191247e-8, 3.3666683e+1
-0.001, 1.5516842e-9, -1.5041788e-8, 3.4000015e+1
-0.002, 1.6716657e-9, -1.4957992e-8, 3.4333347e+1
-0.003, 1.7077721e-9, -1.4872520e-8, 3.4666679e+1
-0.004, 1.7776683e-9, -1.4836574e-8, 3.5000011e+1
-0.005, 2.1148470e-9, -1.4799908e-8, 3.5333344e+1
-0.006, 2.1188411e-9, -1.4746147e-8, 3.5666676e+1
-0.007, 2.1743585e-9, -1.4690311e-8, 3.6000008e+1
-0.008, 2.2847544e-9, -1.4578158e-8, 3.6333340e+1
-0.009, 2.2973756e-9, -1.4458975e-8, 3.6666672e+1
-0.010, 2.5728859e-9, -1.4404336e-8, 3.7000004e+1
-0.011, 2.5970102e-9, -1.4392273e-8, 3.7333336e+1
-0.012, 2.6538856e-9, -1.4343627e-8, 3.7666668e+1
-0.013, 2.7109208e-9, -1.4322059e-8, 3.8000000e+1
-0.014, 2.7647606e-9, -1.4245053e-8, 3.8333332e+1
-0.015, 3.0248539e-9, -1.4208546e-8, 3.8666664e+1
-0.016, 3.0610401e-9, -1.4084572e-8, 3.8999996e+1
-0.017, 3.0891585e-9, -1.4071711e-8, 3.9333328e+1
-0.018, 3.2381371e-9, -1.3953645e-8, 3.9666660e+1
-0.019, 3.2835894e-9, -1.3912347e-8, 3.9999992e+1
-0.020, 3.3732959e-9, -1.3880554e-8, 4.0333324e+1
-0.021, 3.5698038e-9, -1.3865696e-8, 4.0666656e+1
-0.022, 3.5223544e-9, -1.3815931e-8, 4.0999989e+1
-0.023, 3.6166941e-9, -1.3780384e-8, 4.1333321e+1
-0.024, 3.6436938e-9, -1.3724147e-8, 4.1666653e+1
-0.025, 3.6442529e-9, -1.3676778e-8, 4.1999985e+1
-0.026, 3.8528229e-9, -1.3606082e-8, 4.2333317e+1
-0.027, 3.9624202e-9, -1.3516297e-8, 4.2666649e+1
-0.028, 4.0796859e-9, -1.3438251e-8, 4.2999981e+1
-0.029, 4.0998960e-9, -1.3406539e-8, 4.3333313e+1
-0.030, 4.1251380e-9, -1.3378261e-8, 4.3666645e+1
-0.031, 4.1984691e-9, -1.3360128e-8, 4.3999977e+1
-0.032, 4.3399391e-9, -1.3345351e-8, 4.4333309e+1
-0.033, 4.3848321e-9, -1.3310602e-8, 4.4666641e+1
-0.034, 4.5233461e-9, -1.3256923e-8, 4.4999973e+1
-0.035, 4.5346091e-9, -1.3243023e-8, 4.5333305e+1
-0.036, 4.5518638e-9, -1.3159227e-8, 4.5666637e+1
-0.037, 4.6537920e-9, -1.3071837e-8, 4.5999969e+1
-0.038, 4.6216799e-9, -1.3045875e-8, 4.6333302e+1
-0.039, 4.6802326e-9, -1.2953134e-8, 4.6666634e+1
-0.040, 4.8471844e-9, -1.2971427e-8, 4.6999966e+1
-0.041, 4.8264157e-9, -1.2917027e-8, 4.7333298e+1
-0.042, 4.9592583e-9, -1.2891385e-8, 4.7666630e+1
-0.043, 4.9646101e-9, -1.2854800e-8, 4.7999962e+1
-0.044, 5.0764437e-9, -1.2831953e-8, 4.8333294e+1
-0.045, 5.1156657e-9, -1.2806951e-8, 4.8666626e+1
-0.046, 5.1141478e-9, -1.2769966e-8, 4.8999958e+1
-0.047, 5.1562452e-9, -1.2767729e-8, 4.9333290e+1
-0.048, 5.2615285e-9, -1.2669475e-8, 4.9666622e+1
-0.049, 5.2191118e-9, -1.2625382e-8, 4.9999954e+1
-0.050, 5.4682614e-9, -1.2588476e-8, 5.0333286e+1
-0.051, 5.5112372e-9, -1.2632011e-8, 5.0666618e+1
-0.052, 5.5419118e-9, -1.2507157e-8, 5.0999950e+1
-0.053, 5.5901603e-9, -1.2479997e-8, 5.1333282e+1
-0.054, 5.5688321e-9, -1.2455314e-8, 5.1666615e+1
-0.055, 5.5884826e-9, -1.2439497e-8, 5.1999947e+1
-0.056, 5.7136567e-9, -1.2414414e-8, 5.2333279e+1
-0.057, 5.5917577e-9, -1.2398598e-8, 5.2666611e+1
-0.058, 5.7194081e-9, -1.2372476e-8, 5.2999943e+1
-0.059, 5.8377920e-9, -1.2372556e-8, 5.3333275e+1
-0.060, 5.9128005e-9, -1.2329901e-8, 5.3666607e+1
-0.061, 5.8962653e-9, -1.2330858e-8, 5.3999939e+1
-0.062, 5.9940399e-9, -1.2301222e-8, 5.4333271e+1
-0.063, 6.0462821e-9, -1.2261042e-8, 5.4666603e+1
-0.064, 6.0531518e-9, -1.2260164e-8, 5.4999935e+1
-0.065, 6.0697674e-9, -1.2200812e-8, 5.5333267e+1
-0.066, 6.0984444e-9, -1.2174930e-8, 5.5666599e+1
-0.067, 6.0848646e-9, -1.2120371e-8, 5.5999931e+1
-0.068, 6.1351098e-9, -1.2089457e-8, 5.6333263e+1
-0.069, 6.2755414e-9, -1.2069648e-8, 5.6666595e+1
-0.070, 6.3122862e-9, -1.2012372e-8, 5.6999928e+1
-0.071, 6.4104602e-9, -1.2032342e-8, 5.7333260e+1
-0.072, 6.4513594e-9, -1.1973071e-8, 5.7666592e+1
-0.073, 6.4706906e-9, -1.1946789e-8, 5.7999924e+1
-0.074, 6.5286847e-9, -1.1921228e-8, 5.8333256e+1
-0.075, 6.5299632e-9, -1.1915156e-8, 5.8666588e+1
-0.076, 6.5671077e-9, -1.1897743e-8, 5.8999920e+1
-0.077, 6.6317312e-9, -1.1866349e-8, 5.9333252e+1
-0.078, 6.5635928e-9, -1.1855326e-8, 5.9666584e+1
-0.079, 6.5999388e-9, -1.1820098e-8, 5.9999916e+1
-0.080, 6.6413968e-9, -1.1808835e-8, 6.0333248e+1
-0.081, 6.6562551e-9, -1.1803563e-8, 6.0666580e+1
-0.082, 6.7210393e-9, -1.1778639e-8, 6.0999912e+1
-0.083, 6.7267107e-9, -1.1781355e-8, 6.1333244e+1
-0.084, 6.7643344e-9, -1.1728794e-8, 6.1666576e+1
-0.085, 6.9633983e-9, -1.1702033e-8, 6.1999908e+1
-0.086, 6.8951005e-9, -1.1659297e-8, 6.2333241e+1
-0.087, 6.9079609e-9, -1.1675833e-8, 6.2666573e+1
-0.088, 7.0289814e-9, -1.1592516e-8, 6.2999905e+1
-0.089, 6.9675519e-9, -1.1527653e-8, 6.3333237e+1
-0.090, 7.0325754e-9, -1.1516629e-8, 6.3666569e+1
-0.091, 7.0346529e-9, -1.1511276e-8, 6.3999901e+1
-0.092, 7.0741142e-9, -1.1472854e-8, 6.4333237e+1
-0.093, 7.0582176e-9, -1.1477647e-8, 6.4666573e+1
-0.094, 7.0582176e-9, -1.1472614e-8, 6.4999908e+1
-0.095, 7.2853199e-9, -1.1446973e-8, 6.5333244e+1
-0.096, 7.2186186e-9, -1.1424446e-8, 6.5666580e+1
-0.097, 7.1432114e-9, -1.1408071e-8, 6.5999916e+1
-0.098, 7.3678375e-9, -1.1421012e-8, 6.6333252e+1
-0.099, 7.4054616e-9, -1.1436827e-8, 6.6666588e+1
-0.100, 7.4438042e-9, -1.1389218e-8, 6.6999924e+1
-0.101, 7.4877393e-9, -1.1373083e-8, 6.7333260e+1
-0.102, 7.4406894e-9, -1.1368529e-8, 6.7666595e+1
-0.103, 7.5213684e-9, -1.1348240e-8, 6.7999931e+1
-0.104, 7.5283983e-9, -1.1338893e-8, 6.8333267e+1
-0.105, 7.5081887e-9, -1.1316766e-8, 6.8666603e+1
-0.106, 7.5140205e-9, -1.1298873e-8, 6.8999939e+1
-0.107, 7.5300761e-9, -1.1281539e-8, 6.9333275e+1
-0.108, 7.5422184e-9, -1.1294079e-8, 6.9666611e+1
-0.109, 7.6096383e-9, -1.1263805e-8, 6.9999947e+1
-0.110, 7.6056432e-9, -1.1170424e-8, 7.0333282e+1
-0.111, 7.6923943e-9, -1.1159480e-8, 7.0666618e+1
-0.112, 7.6812112e-9, -1.1157803e-8, 7.0999954e+1
-0.113, 7.6958298e-9, -1.1125451e-8, 7.1333290e+1
-0.114, 7.9072748e-9, -1.1120737e-8, 7.1666626e+1
-0.115, 7.8411331e-9, -1.1086309e-8, 7.1999962e+1
-0.116, 7.8839495e-9, -1.1057312e-8, 7.2333298e+1
-0.117, 8.0016154e-9, -1.1094058e-8, 7.2666634e+1
-0.118, 8.0024138e-9, -1.1073209e-8, 7.2999969e+1
-0.119, 7.9592777e-9, -1.0989493e-8, 7.3333305e+1
-0.120, 8.0175111e-9, -1.1010262e-8, 7.3666641e+1
-0.121, 8.0231031e-9, -1.1007146e-8, 7.3999977e+1
-0.122, 8.0356442e-9, -1.0963611e-8, 7.4333313e+1
-0.123, 8.0447506e-9, -1.0930781e-8, 7.4666649e+1
-0.124, 8.0401970e-9, -1.0910012e-8, 7.4999985e+1
-0.125, 8.0451503e-9, -1.0915124e-8, 7.5333321e+1
-0.126, 8.0470679e-9, -1.0908014e-8, 7.5666656e+1
-0.127, 8.1259106e-9, -1.0905937e-8, 7.5999992e+1
-0.128, 8.2323917e-9, -1.0880934e-8, 7.6333328e+1
-0.129, 8.1701641e-9, -1.0897550e-8, 7.6666664e+1
-0.130, 8.3361575e-9, -1.0870151e-8, 7.7000000e+1
-0.131, 8.3362375e-9, -1.0856650e-8, 7.7333336e+1
-0.132, 8.3595628e-9, -1.0878297e-8, 7.7666672e+1
-0.133, 8.5288310e-9, -1.0893635e-8, 7.8000008e+1
-0.134, 8.4340117e-9, -1.0849221e-8, 7.8333344e+1
-0.135, 8.4884118e-9, -1.0854813e-8, 7.8666679e+1
-0.136, 8.5248377e-9, -1.0829490e-8, 7.9000015e+1
-0.137, 8.4943226e-9, -1.0844110e-8, 7.9333351e+1
-0.138, 8.5482421e-9, -1.0838038e-8, 7.9666687e+1
-0.139, 8.5889820e-9, -1.0853855e-8, 8.0000023e+1
-0.140, 8.6253280e-9, -1.0842672e-8, 8.0333359e+1
-0.141, 8.6057570e-9, -1.0831248e-8, 8.0666695e+1
-0.142, 8.6927479e-9, -1.0825417e-8, 8.1000031e+1
-0.143, 8.7238217e-9, -1.0799535e-8, 8.1333366e+1
-0.144, 8.8089749e-9, -1.0808162e-8, 8.1666702e+1
-0.145, 8.8336582e-9, -1.0779565e-8, 8.2000038e+1
-0.146, 8.9519618e-9, -1.0781083e-8, 8.2333374e+1
-0.147, 8.9847134e-9, -1.0816710e-8, 8.2666710e+1
-0.148, 8.9899057e-9, -1.0799216e-8, 8.3000046e+1
-0.149, 9.0460626e-9, -1.0816071e-8, 8.3333382e+1
-0.150, 9.0278496e-9, -1.0799376e-8, 8.3666718e+1
-0.151, 9.0789740e-9, -1.0744976e-8, 8.4000053e+1
-0.152, 9.0890389e-9, -1.0786035e-8, 8.4333389e+1
-0.153, 9.1531831e-9, -1.0745616e-8, 8.4666725e+1
-0.154, 9.2043866e-9, -1.0733872e-8, 8.5000061e+1
-0.155, 9.2501589e-9, -1.0765906e-8, 8.5333397e+1
-0.156, 9.3847587e-9, -1.0671406e-8, 8.5666733e+1
-0.157, 9.3024006e-9, -1.0641530e-8, 8.6000069e+1
-0.158, 9.3730961e-9, -1.0562847e-8, 8.6333405e+1
-0.159, 9.4867669e-9, -1.0603906e-8, 8.6666740e+1
-0.160, 9.4832524e-9, -1.0547351e-8, 8.7000076e+1
-0.161, 9.4973913e-9, -1.0582577e-8, 8.7333412e+1
-0.162, 9.5987600e-9, -1.0608300e-8, 8.7666748e+1
-0.163, 9.5619352e-9, -1.0607661e-8, 8.8000084e+1
-0.164, 9.6377422e-9, -1.0556697e-8, 8.8333420e+1
-0.165, 9.8585344e-9, -1.0514599e-8, 8.8666756e+1
-0.166, 9.7248929e-9, -1.0536167e-8, 8.9000092e+1
-0.167, 9.8324131e-9, -1.0544714e-8, 8.9333427e+1
-0.168, 9.9666932e-9, -1.0574590e-8, 8.9666763e+1
-0.169, 9.9870627e-9, -1.0490155e-8, 9.0000099e+1
-0.170, 9.9786757e-9, -1.0473539e-8, 9.0333435e+1
-0.171, 9.9823501e-9, -1.0541519e-8, 9.0666771e+1
-0.172, 1.0101773e-8, -1.0487919e-8, 9.1000107e+1
-0.173, 1.0124858e-8, -1.0489756e-8, 9.1333443e+1
-0.174, 1.0158488e-8, -1.0480649e-8, 9.1666779e+1
-0.175, 1.0412990e-8, -1.0466430e-8, 9.2000114e+1
-0.176, 1.0340457e-8, -1.0457005e-8, 9.2333450e+1
-0.177, 1.0390464e-8, -1.0466510e-8, 9.2666786e+1
-0.178, 1.0518593e-8, -1.0446460e-8, 9.3000122e+1
-0.179, 1.0460838e-8, -1.0421218e-8, 9.3333458e+1
-0.180, 1.0535128e-8, -1.0489117e-8, 9.3666794e+1
-0.181, 1.0733634e-8, -1.0454369e-8, 9.4000130e+1
-0.182, 1.0698406e-8, -1.0490155e-8, 9.4333466e+1
-0.183, 1.0866236e-8, -1.0471303e-8, 9.4666801e+1
-0.184, 1.0871668e-8, -1.0471942e-8, 9.5000137e+1
-0.185, 1.0906895e-8, -1.0445901e-8, 9.5333473e+1
-0.186, 1.0956741e-8, -1.0494628e-8, 9.5666809e+1
-0.187, 1.1057711e-8, -1.0508049e-8, 9.6000145e+1
-0.188, 1.1152052e-8, -1.0446700e-8, 9.6333481e+1
-0.189, 1.1211882e-8, -1.0502776e-8, 9.6666817e+1
-0.190, 1.1290406e-8, -1.0502217e-8, 9.7000153e+1
-0.191, 1.1420851e-8, -1.0515079e-8, 9.7333488e+1
-0.192, 1.1438585e-8, -1.0472501e-8, 9.7666824e+1
-0.193, 1.1454162e-8, -1.0508368e-8, 9.8000160e+1
-0.194, 1.1695564e-8, -1.0580661e-8, 9.8333496e+1
-0.195, 1.1761545e-8, -1.0514519e-8, 9.8666832e+1
-0.196, 1.1910444e-8, -1.0600711e-8, 9.9000168e+1
-0.197, 1.2017005e-8, -1.0526740e-8, 9.9333504e+1
-0.198, 1.1951743e-8, -1.0555098e-8, 9.9666840e+1
-0.199, 1.2010535e-8, -1.0638335e-8, 1.0000018e+2
-0.200, 1.2296590e-8, -1.0553821e-8, 1.0033351e+2
-0.201, 1.2418488e-8, -1.0660383e-8, 1.0066685e+2
-0.202, 1.2435742e-8, -1.0651116e-8, 1.0100018e+2
-0.203, 1.2531041e-8, -1.0769660e-8, 1.0133352e+2
-0.204, 1.2726272e-8, -1.0676279e-8, 1.0166685e+2
-0.205, 1.2498769e-8, -1.0810399e-8, 1.0200019e+2
-0.206, 1.2931086e-8, -1.0780763e-8, 1.0233353e+2
-0.207, 1.2981412e-8, -1.0814952e-8, 1.0266686e+2
-0.208, 1.3181036e-8, -1.0833006e-8, 1.0300020e+2
-0.209, 1.3071278e-8, -1.0856890e-8, 1.0333353e+2
-0.210, 1.3419641e-8, -1.0871588e-8, 1.0366687e+2
-0.211, 1.3572133e-8, -1.0892837e-8, 1.0400021e+2
-0.212, 1.3805386e-8, -1.0914644e-8, 1.0433354e+2
-0.213, 1.3899247e-8, -1.0984301e-8, 1.0466688e+2
-0.214, 1.3926326e-8, -1.1046208e-8, 1.0500021e+2
-0.215, 1.4315109e-8, -1.1009623e-8, 1.0533355e+2
-0.216, 1.4422229e-8, -1.1271075e-8, 1.0566689e+2
-0.217, 1.4479025e-8, -1.1162595e-8, 1.0600022e+2
-0.218, 1.4798310e-8, -1.1284494e-8, 1.0633356e+2
-0.219, 1.4918932e-8, -1.1328669e-8, 1.0666689e+2
-0.220, 1.5217127e-8, -1.1365015e-8, 1.0700023e+2
-0.221, 1.5345258e-8, -1.1416698e-8, 1.0733356e+2
-0.222, 1.5472507e-8, -1.1469419e-8, 1.0766690e+2
-0.223, 1.5827819e-8, -1.1723921e-8, 1.0800024e+2
-0.224, 1.6005156e-8, -1.1768894e-8, 1.0833357e+2
-0.225, 1.6263572e-8, -1.1826808e-8, 1.0866691e+2
-0.226, 1.6472461e-8, -1.1881686e-8, 1.0900024e+2
-0.227, 1.6793663e-8, -1.2014449e-8, 1.0933358e+2
-0.228, 1.6905577e-8, -1.2080591e-8, 1.0966692e+2
-0.229, 1.7363456e-8, -1.2274942e-8, 1.1000025e+2
-0.230, 1.7409068e-8, -1.2397479e-8, 1.1033359e+2
-0.231, 1.7816543e-8, -1.2483431e-8, 1.1066692e+2
-0.232, 1.8263558e-8, -1.2620348e-8, 1.1100026e+2
-0.233, 1.8430670e-8, -1.2793930e-8, 1.1133360e+2
-0.234, 1.8721597e-8, -1.2950976e-8, 1.1166693e+2
-0.235, 1.9022989e-8, -1.3095401e-8, 1.1200027e+2
-0.236, 1.9336204e-8, -1.3263471e-8, 1.1233360e+2
-0.237, 1.9697426e-8, -1.3392879e-8, 1.1266694e+2
-0.238, 2.0073188e-8, -1.3536667e-8, 1.1300027e+2
-0.239, 2.0395829e-8, -1.3770718e-8, 1.1333361e+2
-0.240, 2.0758090e-8, -1.3962433e-8, 1.1366695e+2
-0.241, 2.1110205e-8, -1.4107417e-8, 1.1400028e+2
-0.242, 2.1466796e-8, -1.4353931e-8, 1.1433362e+2
-0.243, 2.1799821e-8, -1.4466084e-8, 1.1466695e+2
-0.244, 2.2172626e-8, -1.4770351e-8, 1.1500029e+2
-0.245, 2.2647042e-8, -1.4891851e-8, 1.1533363e+2
-0.246, 2.2982702e-8, -1.5279914e-8, 1.1566696e+2
-0.247, 2.3256614e-8, -1.5380804e-8, 1.1600030e+2
-0.248, 2.3721284e-8, -1.5711914e-8, 1.1633363e+2
-0.249, 2.4130756e-8, -1.5848908e-8, 1.1666697e+2
-0.250, 2.4402832e-8, -1.6170750e-8, 1.1700031e+2
-0.251, 2.4783784e-8, -1.6362623e-8, 1.1733364e+2
-0.252, 2.5170250e-8, -1.6680552e-8, 1.1766698e+2
-0.253, 2.5578363e-8, -1.6894473e-8, 1.1800031e+2
-0.254, 2.6015393e-8, -1.7209526e-8, 1.1833365e+2
-0.255, 2.6361677e-8, -1.7388620e-8, 1.1866698e+2
-0.256, 2.6703569e-8, -1.7701755e-8, 1.1900032e+2
-0.257, 2.7051694e-8, -1.7925181e-8, 1.1933366e+2
-0.258, 2.7528184e-8, -1.8255649e-8, 1.1966699e+2
-0.259, 2.7728767e-8, -1.8399914e-8, 1.2000033e+2
-0.260, 2.8162122e-8, -1.8750594e-8, 1.2033366e+2
-0.261, 2.8634778e-8, -1.8915230e-8, 1.2066700e+2
-0.262, 2.8842949e-8, -1.9236033e-8, 1.2100034e+2
-0.263, 2.9123971e-8, -1.9318311e-8, 1.2133367e+2
-0.264, 2.9474490e-8, -1.9654212e-8, 1.2166701e+2
-0.265, 2.9600542e-8, -1.9750388e-8, 1.2200034e+2
-0.266, 2.9915114e-8, -1.9971340e-8, 1.2233368e+2
-0.267, 3.0195661e-8, -2.0238462e-8, 1.2266702e+2
-0.268, 3.0379148e-8, -2.0389278e-8, 1.2300035e+2
-0.269, 3.0716805e-8, -2.0697939e-8, 1.2333369e+2
-0.270, 3.0995270e-8, -2.0779499e-8, 1.2366702e+2
-0.271, 3.1078667e-8, -2.1131136e-8, 1.2400036e+2
-0.272, 3.1278532e-8, -2.1196158e-8, 1.2433369e+2
-0.273, 3.1495809e-8, -2.1294014e-8, 1.2466703e+2
-0.274, 3.1554439e-8, -2.1562894e-8, 1.2500037e+2
-0.275, 3.1637676e-8, -2.1699410e-8, 1.2533370e+2
-0.276, 3.1906797e-8, -2.1987143e-8, 1.2566704e+2
-0.277, 3.2270332e-8, -2.1956229e-8, 1.2600037e+2
-0.278, 3.2054174e-8, -2.2200984e-8, 1.2633371e+2
-0.279, 3.2423067e-8, -2.2238769e-8, 1.2666705e+2
-0.280, 3.2502150e-8, -2.2525622e-8, 1.2700038e+2
-0.281, 3.2521161e-8, -2.2578984e-8, 1.2733372e+2
-0.282, 3.2744669e-8, -2.2698165e-8, 1.2766705e+2
-0.283, 3.2826787e-8, -2.2835641e-8, 1.2800038e+2
-0.284, 3.2891329e-8, -2.2869591e-8, 1.2833371e+2
-0.285, 3.2987110e-8, -2.3042453e-8, 1.2866704e+2
-0.286, 3.2923364e-8, -2.3160357e-8, 1.2900037e+2
-0.287, 3.3016427e-8, -2.3210363e-8, 1.2933369e+2
-0.288, 3.3096068e-8, -2.3344166e-8, 1.2966702e+2
-0.289, 3.3053492e-8, -2.3514792e-8, 1.3000035e+2
-0.290, 3.3264854e-8, -2.3533564e-8, 1.3033368e+2
-0.291, 3.3282511e-8, -2.3650191e-8, 1.3066701e+2
-0.292, 3.3286902e-8, -2.3688854e-8, 1.3100034e+2
-0.293, 3.3462321e-8, -2.3750042e-8, 1.3133366e+2
-0.294, 3.3378047e-8, -2.3795256e-8, 1.3166699e+2
-0.295, 3.3429732e-8, -2.4084345e-8, 1.3200032e+2
-0.296, 3.3589814e-8, -2.4114220e-8, 1.3233365e+2
-0.297, 3.3480376e-8, -2.4094330e-8, 1.3266698e+2
-0.298, 3.3510251e-8, -2.4133792e-8, 1.3300031e+2
-0.299, 3.3577031e-8, -2.4207361e-8, 1.3333363e+2
-0.300, 3.3559697e-8, -2.4256169e-8, 1.3366696e+2
-0.301, 3.3555146e-8, -2.4242588e-8, 1.3400029e+2
-0.302, 3.3525748e-8, -2.4220862e-8, 1.3433362e+2
-0.303, 3.3715626e-8, -2.4373595e-8, 1.3466695e+2
-0.304, 3.3639740e-8, -2.4485828e-8, 1.3500027e+2
-0.305, 3.3767869e-8, -2.4544940e-8, 1.3533360e+2
-0.306, 3.3914930e-8, -2.4622025e-8, 1.3566693e+2
-0.307, 3.3949917e-8, -2.4614435e-8, 1.3600026e+2
-0.308, 3.3951913e-8, -2.4705420e-8, 1.3633359e+2
-0.309, 3.3985945e-8, -2.4659570e-8, 1.3666692e+2
-0.310, 3.3929869e-8, -2.4683533e-8, 1.3700024e+2
-0.311, 3.3990496e-8, -2.4771484e-8, 1.3733357e+2
-0.312, 3.4000802e-8, -2.4698632e-8, 1.3766690e+2
-0.313, 3.3985064e-8, -2.4914311e-8, 1.3800023e+2
-0.314, 3.4056317e-8, -2.4840979e-8, 1.3833356e+2
-0.315, 3.4005915e-8, -2.4891705e-8, 1.3866689e+2
-0.316, 3.4107682e-8, -2.4887072e-8, 1.3900021e+2
-0.317, 3.4024126e-8, -2.5016078e-8, 1.3933354e+2
-0.318, 3.4197708e-8, -2.5121123e-8, 1.3966687e+2
-0.319, 3.4390862e-8, -2.5061533e-8, 1.4000020e+2
-0.320, 3.4394777e-8, -2.5105388e-8, 1.4033353e+2
-0.321, 3.4332789e-8, -2.5133264e-8, 1.4066685e+2
-0.322, 3.4507490e-8, -2.5371472e-8, 1.4100018e+2
-0.323, 3.4443822e-8, -2.5146365e-8, 1.4133351e+2
-0.324, 3.4429686e-8, -2.5141013e-8, 1.4166684e+2
-0.325, 3.4474656e-8, -2.5195092e-8, 1.4200017e+2
-0.326, 3.4489997e-8, -2.5216902e-8, 1.4233350e+2
-0.327, 3.4481527e-8, -2.5241503e-8, 1.4266682e+2
-0.328, 3.4489275e-8, -2.5322583e-8, 1.4300015e+2
-0.329, 3.4550943e-8, -2.5283123e-8, 1.4333348e+2
-0.330, 3.4642490e-8, -2.5422114e-8, 1.4366681e+2
-0.331, 3.4676280e-8, -2.5444480e-8, 1.4400014e+2
-0.332, 3.4864396e-8, -2.5470763e-8, 1.4433347e+2
-0.333, 3.4866954e-8, -2.5555677e-8, 1.4466679e+2
-0.334, 3.4867593e-8, -2.5533229e-8, 1.4500012e+2
-0.335, 3.4968085e-8, -2.5599373e-8, 1.4533345e+2
-0.336, 3.4954343e-8, -2.5594819e-8, 1.4566678e+2
-0.337, 3.4976310e-8, -2.5691554e-8, 1.4600011e+2
-0.338, 3.5127208e-8, -2.5658723e-8, 1.4633344e+2
-0.339, 3.5008902e-8, -2.5645305e-8, 1.4666676e+2
-0.340, 3.5083751e-8, -2.5639952e-8, 1.4700009e+2
-0.341, 3.5104200e-8, -2.5648339e-8, 1.4733342e+2
-0.342, 3.5185042e-8, -2.5638515e-8, 1.4766675e+2
-0.343, 3.5079918e-8, -2.5683647e-8, 1.4800008e+2
-0.344, 3.5285133e-8, -2.5669030e-8, 1.4833340e+2
-0.345, 3.5302548e-8, -2.5843010e-8, 1.4866673e+2
-0.346, 3.5338172e-8, -2.6018510e-8, 1.4900006e+2
-0.347, 3.5453443e-8, -2.5955403e-8, 1.4933339e+2
-0.348, 3.5410388e-8, -2.5914344e-8, 1.4966672e+2
-0.349, 3.5435711e-8, -2.5959634e-8, 1.5000005e+2
-0.350, 3.5432592e-8, -2.5815609e-8, 1.5033337e+2
-0.351, 3.5452963e-8, -2.5924727e-8, 1.5066670e+2
-0.352, 3.5444334e-8, -2.5784377e-8, 1.5100003e+2
-0.353, 3.5426361e-8, -2.5859865e-8, 1.5133336e+2
-0.354, 3.5508638e-8, -2.5972417e-8, 1.5166669e+2
-0.355, 3.5584129e-8, -2.6032808e-8, 1.5200002e+2
-0.356, 3.5604337e-8, -2.6031289e-8, 1.5233334e+2
-0.357, 3.5860594e-8, -2.6039837e-8, 1.5266667e+2
-0.358, 3.5600664e-8, -2.6005010e-8, 1.5300000e+2
-0.359, 3.5720806e-8, -2.6013875e-8, 1.5333333e+2
-0.360, 3.5831601e-8, -2.6000055e-8, 1.5366666e+2
-0.361, 3.5856363e-8, -2.6047585e-8, 1.5399998e+2
-0.362, 3.5906528e-8, -2.6008923e-8, 1.5433331e+2
-0.363, 3.5891670e-8, -2.6000375e-8, 1.5466664e+2
-0.364, 3.5825607e-8, -2.6006607e-8, 1.5499997e+2
-0.365, 3.5899657e-8, -2.6005170e-8, 1.5533330e+2
-0.366, 3.5932811e-8, -2.6011318e-8, 1.5566663e+2
-0.367, 3.5932093e-8, -2.6008845e-8, 1.5599995e+2
-0.368, 3.5930334e-8, -2.6019865e-8, 1.5633328e+2
-0.369, 3.5942318e-8, -2.6048465e-8, 1.5666661e+2
-0.370, 3.6038173e-8, -2.6092318e-8, 1.5699994e+2
-0.371, 3.6035459e-8, -2.6143283e-8, 1.5733327e+2
-0.372, 3.6195299e-8, -2.6165891e-8, 1.5766660e+2
-0.373, 3.6392205e-8, -2.6194646e-8, 1.5799992e+2
-0.374, 3.6376392e-8, -2.6262384e-8, 1.5833325e+2
-0.375, 3.6411858e-8, -2.6232749e-8, 1.5866658e+2
-0.376, 3.6434383e-8, -2.6356405e-8, 1.5899991e+2
-0.377, 3.6446846e-8, -2.6242018e-8, 1.5933324e+2
-0.378, 3.6464098e-8, -2.6249925e-8, 1.5966656e+2
-0.379, 3.6457070e-8, -2.6398823e-8, 1.5999989e+2
-0.380, 3.6590791e-8, -2.6372144e-8, 1.6033322e+2
-0.381, 3.6489023e-8, -2.6303846e-8, 1.6066655e+2
-0.382, 3.6564668e-8, -2.6395229e-8, 1.6099988e+2
-0.383, 3.6722515e-8, -2.6364315e-8, 1.6133321e+2
-0.384, 3.6640557e-8, -2.6365274e-8, 1.6166653e+2
-0.385, 3.6711572e-8, -2.6292822e-8, 1.6199986e+2
-0.386, 3.6828517e-8, -2.6370785e-8, 1.6233319e+2
-0.387, 3.6808466e-8, -2.6369587e-8, 1.6266652e+2
-0.388, 3.6774917e-8, -2.6277725e-8, 1.6299985e+2
-0.389, 3.6882199e-8, -2.6333801e-8, 1.6333318e+2
-0.390, 3.6903366e-8, -2.6430536e-8, 1.6366650e+2
-0.391, 3.6903845e-8, -2.6496361e-8, 1.6399983e+2
-0.392, 3.6978296e-8, -2.6517288e-8, 1.6433316e+2
-0.393, 3.7003140e-8, -2.6507703e-8, 1.6466649e+2
-0.394, 3.6988041e-8, -2.6498913e-8, 1.6499982e+2
-0.395, 3.7012086e-8, -2.6530547e-8, 1.6533315e+2
-0.396, 3.7330093e-8, -2.6551557e-8, 1.6566647e+2
-0.397, 3.7344073e-8, -2.6574483e-8, 1.6599980e+2
-0.398, 3.7267064e-8, -2.6614103e-8, 1.6633313e+2
-0.399, 3.7364678e-8, -2.6570248e-8, 1.6666646e+2
-0.400, 3.7345028e-8, -2.6526553e-8, 1.6699979e+2
-0.401, 3.7344073e-8, -2.6582631e-8, 1.6733311e+2
-0.402, 3.7408935e-8, -2.6580555e-8, 1.6766644e+2
-0.403, 3.7418840e-8, -2.6624010e-8, 1.6799977e+2
-0.404, 3.7607759e-8, -2.6811010e-8, 1.6833310e+2
-0.405, 3.7862740e-8, -2.6671138e-8, 1.6866643e+2
-0.406, 3.7694431e-8, -2.6734883e-8, 1.6899976e+2
-0.407, 3.7696989e-8, -2.6622413e-8, 1.6933308e+2
-0.408, 3.7752663e-8, -2.6643900e-8, 1.6966641e+2
-0.409, 3.7842767e-8, -2.6648692e-8, 1.6999974e+2
-0.410, 3.7917378e-8, -2.6680723e-8, 1.7033307e+2
-0.411, 3.7893173e-8, -2.6640464e-8, 1.7066640e+2
-0.412, 3.7904279e-8, -2.6690149e-8, 1.7099973e+2
-0.413, 3.7921772e-8, -2.6664830e-8, 1.7133305e+2
-0.414, 3.7920575e-8, -2.6677851e-8, 1.7166638e+2
-0.415, 3.7969144e-8, -2.6707724e-8, 1.7199971e+2
-0.416, 3.8009720e-8, -2.6690230e-8, 1.7233304e+2
-0.417, 3.8027217e-8, -2.6696862e-8, 1.7266637e+2
-0.418, 3.8200955e-8, -2.6740397e-8, 1.7299969e+2
-0.419, 3.8195285e-8, -2.6964623e-8, 1.7333302e+2
-0.420, 3.8297934e-8, -2.6904473e-8, 1.7366635e+2
-0.421, 3.8359918e-8, -2.6863733e-8, 1.7399968e+2
-0.422, 3.8295777e-8, -2.6876753e-8, 1.7433301e+2
-0.423, 3.8412324e-8, -2.6991064e-8, 1.7466634e+2
-0.424, 3.8413759e-8, -2.6993380e-8, 1.7499966e+2
-0.425, 3.8407372e-8, -2.6919329e-8, 1.7533299e+2
-0.426, 3.8397545e-8, -2.6904631e-8, 1.7566632e+2
-0.427, 3.8421028e-8, -2.6959908e-8, 1.7599965e+2
-0.428, 3.8496118e-8, -2.6950962e-8, 1.7633298e+2
-0.429, 3.8667302e-8, -2.6960150e-8, 1.7666631e+2
-0.430, 3.8635829e-8, -2.6983953e-8, 1.7699963e+2
-0.431, 3.8757729e-8, -2.7010156e-8, 1.7733296e+2
-0.432, 3.8846398e-8, -2.7114957e-8, 1.7766629e+2
-0.433, 3.8824510e-8, -2.7056405e-8, 1.7799962e+2
-0.434, 3.9063035e-8, -2.7156098e-8, 1.7833295e+2
-0.435, 3.9024133e-8, -2.7120471e-8, 1.7866628e+2
-0.436, 3.8868205e-8, -2.7032682e-8, 1.7899960e+2
-0.437, 3.9028127e-8, -2.7048019e-8, 1.7933293e+2
-0.438, 3.8884021e-8, -2.7055526e-8, 1.7966626e+2
-0.439, 3.9042668e-8, -2.7103775e-8, 1.7999959e+2
-0.440, 3.9101618e-8, -2.7065195e-8, 1.8033292e+2
-0.441, 3.9134449e-8, -2.7038832e-8, 1.8066624e+2
-0.442, 3.9144837e-8, -2.7229747e-8, 1.8099957e+2
-0.443, 3.9373692e-8, -2.7119274e-8, 1.8133290e+2
-0.444, 3.9288619e-8, -2.7103615e-8, 1.8166623e+2
-0.445, 3.9324725e-8, -2.7104175e-8, 1.8199956e+2
-0.446, 3.9357477e-8, -2.7143557e-8, 1.8233289e+2
-0.447, 3.9369059e-8, -2.7121029e-8, 1.8266621e+2
-0.448, 3.9368260e-8, -2.7151385e-8, 1.8299954e+2
-0.449, 3.9464837e-8, -2.7288779e-8, 1.8333287e+2
-0.450, 3.9634745e-8, -2.7286223e-8, 1.8366620e+2
-0.451, 3.9544638e-8, -2.7205544e-8, 1.8399953e+2
-0.452, 3.9643215e-8, -2.7307713e-8, 1.8433286e+2
-0.453, 3.9801296e-8, -2.7357638e-8, 1.8466618e+2
-0.454, 3.9822226e-8, -2.7330479e-8, 1.8499951e+2
-0.455, 3.9854420e-8, -2.7360114e-8, 1.8533284e+2
-0.456, 3.9871434e-8, -2.7496231e-8, 1.8566617e+2
-0.457, 4.0169873e-8, -2.7555025e-8, 1.8599950e+2
-0.458, 4.0206455e-8, -2.7565969e-8, 1.8633282e+2
-0.459, 4.0245276e-8, -2.7566207e-8, 1.8666615e+2
-0.460, 4.0223391e-8, -2.7458210e-8, 1.8699948e+2
-0.461, 4.0146784e-8, -2.7530183e-8, 1.8733281e+2
-0.462, 4.0358870e-8, -2.7558700e-8, 1.8766614e+2
-0.463, 4.0333944e-8, -2.7555505e-8, 1.8799947e+2
-0.464, 4.0327556e-8, -2.7476183e-8, 1.8833279e+2
-0.465, 4.0327393e-8, -2.7528504e-8, 1.8866612e+2
-0.466, 4.0479566e-8, -2.7550152e-8, 1.8899945e+2
-0.467, 4.0605702e-8, -2.7595922e-8, 1.8933278e+2
-0.468, 4.0702677e-8, -2.7566767e-8, 1.8966611e+2
-0.469, 4.0769777e-8, -2.7637702e-8, 1.8999944e+2
-0.470, 4.0817469e-8, -2.7826061e-8, 1.9033276e+2
-0.471, 4.0874266e-8, -2.7661505e-8, 1.9066609e+2
-0.472, 4.0777287e-8, -2.7522914e-8, 1.9099942e+2
-0.473, 4.0800053e-8, -2.7583225e-8, 1.9133275e+2
-0.474, 4.0833363e-8, -2.7562773e-8, 1.9166608e+2
-0.475, 4.0906933e-8, -2.7664861e-8, 1.9199940e+2
-0.476, 4.1257373e-8, -2.7928150e-8, 1.9233273e+2
-0.477, 4.1292282e-8, -2.7983669e-8, 1.9266606e+2
-0.478, 4.1326949e-8, -2.8078807e-8, 1.9299939e+2
-0.479, 4.1347082e-8, -2.8023530e-8, 1.9333272e+2
-0.480, 4.1461789e-8, -2.7947479e-8, 1.9366605e+2
-0.481, 4.1371763e-8, -2.8004516e-8, 1.9399937e+2
-0.482, 4.1535841e-8, -2.7985665e-8, 1.9433270e+2
-0.483, 4.1773887e-8, -2.8228262e-8, 1.9466603e+2
-0.484, 4.1913598e-8, -2.8119224e-8, 1.9499936e+2
-0.485, 4.1890992e-8, -2.8144228e-8, 1.9533269e+2
-0.486, 4.1969034e-8, -2.8134084e-8, 1.9566602e+2
-0.487, 4.2046921e-8, -2.8211490e-8, 1.9599934e+2
-0.488, 4.2256769e-8, -2.8211648e-8, 1.9633267e+2
-0.489, 4.2141099e-8, -2.8126973e-8, 1.9666600e+2
-0.490, 4.2285524e-8, -2.8291769e-8, 1.9699933e+2
-0.491, 4.2332893e-8, -2.8241445e-8, 1.9733266e+2
-0.492, 4.2419327e-8, -2.8253504e-8, 1.9766599e+2
-0.493, 4.2451198e-8, -2.8137597e-8, 1.9799931e+2
-0.494, 4.2336332e-8, -2.8071776e-8, 1.9833264e+2
-0.495, 4.2316760e-8, -2.8056599e-8, 1.9866597e+2
-0.496, 4.2388571e-8, -2.8112435e-8, 1.9899930e+2
-0.497, 4.2404309e-8, -2.8087035e-8, 1.9933263e+2
-0.498, 4.2567184e-8, -2.8132645e-8, 1.9966595e+2
-0.499, 4.2774079e-8, -2.8148383e-8, 1.9999928e+2
