Dec. 21, 2005   10:09:37
Cyclic Voltammetry
File: d:\ida_biofilms\12_10_18_dphzstar\a_760b\200um_pyo\a_200um_pyo_gc_final.txt
Data Source:  Experiment
Instrument Model:  CHI760E
Header: 
Note: 

Init E (V) = 0.1
High E (V) = 0.1
Low E (V) = -0.5
Init P/N = N
Scan Rate (V/s) = 0.003
Segment = 2
Sample Interval (V) = 0.001
Quiet Time (sec) = 2
Sensitivity (A/V) = 1e-7
2nd E (V) = 0.1
Sens 2 (A/V) = 1e-7

Potential/V, i1/A, i2/A, Time/s

0.100, -9.5270927e-8, -8.5095479e-8, 3.3333334e-1
0.099, -7.8876980e-8, -7.7169020e-8, 6.6666669e-1
0.098, -6.8818736e-8, -7.0852174e-8, 1.0000000e+0
0.097, -6.1281540e-8, -6.5626665e-8, 1.3333334e+0
0.096, -5.5393333e-8, -6.1275770e-8, 1.6666667e+0
0.095, -5.0405312e-8, -5.7483014e-8, 2.0000000e+0
0.094, -4.6062489e-8, -5.4238392e-8, 2.3333333e+0
0.093, -4.2499622e-8, -5.1201070e-8, 2.6666665e+0
0.092, -3.9262517e-8, -4.8529202e-8, 2.9999998e+0
0.091, -3.6314102e-8, -4.6073733e-8, 3.3333330e+0
0.090, -3.3887467e-8, -4.3854310e-8, 3.6666663e+0
0.089, -3.1604063e-8, -4.1759268e-8, 3.9999995e+0
0.088, -2.9552790e-8, -3.9890924e-8, 4.3333330e+0
0.087, -2.7752110e-8, -3.8158301e-8, 4.6666665e+0
0.086, -2.6117901e-8, -3.6554763e-8, 5.0000000e+0
0.085, -2.4540165e-8, -3.5082476e-8, 5.3333335e+0
0.084, -2.3151509e-8, -3.3745899e-8, 5.6666670e+0
0.083, -2.1808066e-8, -3.2511974e-8, 6.0000005e+0
0.082, -2.0695721e-8, -3.1372469e-8, 6.3333340e+0
0.081, -1.9480886e-8, -3.0341841e-8, 6.6666675e+0
0.080, -1.8506094e-8, -2.9327429e-8, 7.0000010e+0
0.079, -1.7589219e-8, -2.8365818e-8, 7.3333344e+0
0.078, -1.6540938e-8, -2.7448383e-8, 7.6666679e+0
0.077, -1.5809066e-8, -2.6621134e-8, 8.0000010e+0
0.076, -1.5036214e-8, -2.5924727e-8, 8.3333340e+0
0.075, -1.4162393e-8, -2.5189182e-8, 8.6666670e+0
0.074, -1.3533728e-8, -2.4596464e-8, 9.0000000e+0
0.073, -1.2806010e-8, -2.3971872e-8, 9.3333330e+0
0.072, -1.2113679e-8, -2.3357265e-8, 9.6666660e+0
0.071, -1.1566253e-8, -2.2858329e-8, 9.9999990e+0
0.070, -1.0914023e-8, -2.2343253e-8, 1.0333332e+1
0.069, -1.0392798e-8, -2.1842558e-8, 1.0666665e+1
0.068, -9.7665289e-9, -2.1378288e-8, 1.0999998e+1
0.067, -9.2804511e-9, -2.0895564e-8, 1.1333331e+1
0.066, -8.8286427e-9, -2.0561423e-8, 1.1666664e+1
0.065, -8.2216260e-9, -2.0133099e-8, 1.1999997e+1
0.064, -7.8830888e-9, -1.9743199e-8, 1.2333330e+1
0.063, -7.5118809e-9, -1.9350024e-8, 1.2666663e+1
0.062, -6.8730706e-9, -1.9030338e-8, 1.2999996e+1
0.061, -6.6894232e-9, -1.8705142e-8, 1.3333329e+1
0.060, -6.2787540e-9, -1.8334093e-8, 1.3666662e+1
0.059, -5.7490617e-9, -1.8129278e-8, 1.3999995e+1
0.058, -5.5601426e-9, -1.7754875e-8, 1.4333328e+1
0.057, -5.1743161e-9, -1.7462190e-8, 1.4666661e+1
0.056, -4.7890487e-9, -1.7244673e-8, 1.4999994e+1
0.055, -4.4810271e-9, -1.6927306e-8, 1.5333327e+1
0.054, -4.2064747e-9, -1.6740143e-8, 1.5666660e+1
0.053, -3.8634651e-9, -1.6435955e-8, 1.5999993e+1
0.052, -3.6313299e-9, -1.6267805e-8, 1.6333326e+1
0.051, -3.3188348e-9, -1.5986544e-8, 1.6666660e+1
0.050, -2.9826945e-9, -1.5820310e-8, 1.6999994e+1
0.049, -2.7377787e-9, -1.5576033e-8, 1.7333328e+1
0.048, -2.5284099e-9, -1.5351247e-8, 1.7666662e+1
0.047, -2.2671185e-9, -1.5207302e-8, 1.7999996e+1
0.046, -1.8741027e-9, -1.4951203e-8, 1.8333330e+1
0.045, -1.7478103e-9, -1.4805898e-8, 1.8666664e+1
0.044, -1.4495338e-9, -1.4630880e-8, 1.8999998e+1
0.043, -1.1498195e-9, -1.4382689e-8, 1.9333332e+1
0.042, -1.1900796e-9, -1.4334999e-8, 1.9666666e+1
0.041, -8.3636542e-10, -1.4131701e-8, 2.0000000e+1
0.040, -6.0750566e-10, -1.3928964e-8, 2.0333334e+1
0.039, -3.6027326e-10, -1.3774872e-8, 2.0666668e+1
0.038, -3.0219960e-10, -1.3637076e-8, 2.1000002e+1
0.037, -1.8757002e-10, -1.3467409e-8, 2.1333336e+1
0.036, 7.8194867e-11, -1.3397992e-8, 2.1666670e+1
0.035, 2.0959950e-10, -1.3274096e-8, 2.2000004e+1
0.034, 4.2575812e-10, -1.3118648e-8, 2.2333338e+1
0.033, 6.3073335e-10, -1.2940592e-8, 2.2666672e+1
0.032, 7.5878304e-10, -1.2857036e-8, 2.3000006e+1
0.031, 8.4042168e-10, -1.2785383e-8, 2.3333340e+1
0.030, 1.1586685e-9, -1.2587677e-8, 2.3666674e+1
0.029, 1.1826329e-9, -1.2438858e-8, 2.4000008e+1
0.028, 1.3209872e-9, -1.2370000e-8, 2.4333342e+1
0.027, 1.6193437e-9, -1.2242031e-8, 2.4666676e+1
0.026, 1.6306868e-9, -1.2174051e-8, 2.5000010e+1
0.025, 1.6991449e-9, -1.1988408e-8, 2.5333344e+1
0.024, 1.9719395e-9, -1.1905651e-8, 2.5666677e+1
0.023, 2.0193889e-9, -1.1788305e-8, 2.6000011e+1
0.022, 2.1339386e-9, -1.1684460e-8, 2.6333345e+1
0.021, 2.2479290e-9, -1.1589162e-8, 2.6666679e+1
0.020, 2.3937123e-9, -1.1474133e-8, 2.7000013e+1
0.019, 2.6086728e-9, -1.1410866e-8, 2.7333347e+1
0.018, 2.6470157e-9, -1.1349358e-8, 2.7666681e+1
0.017, 2.8048610e-9, -1.1297195e-8, 2.8000015e+1
0.016, 2.7650802e-9, -1.1203334e-8, 2.8333349e+1
0.015, 3.0392326e-9, -1.1123054e-8, 2.8666683e+1
0.014, 3.1302172e-9, -1.0979028e-8, 2.9000017e+1
0.013, 3.1235072e-9, -1.0902982e-8, 2.9333351e+1
0.012, 3.2049063e-9, -1.0857369e-8, 2.9666685e+1
0.011, 3.5403278e-9, -1.0815272e-8, 3.0000019e+1
0.010, 3.5106120e-9, -1.0721411e-8, 3.0333353e+1
0.009, 3.6029544e-9, -1.0663976e-8, 3.0666687e+1
0.008, 3.6910635e-9, -1.0538883e-8, 3.1000021e+1
0.007, 3.7409893e-9, -1.0497984e-8, 3.1333355e+1
0.006, 3.8849355e-9, -1.0464754e-8, 3.1666689e+1
0.005, 4.0660262e-9, -1.0412590e-8, 3.2000023e+1
0.004, 4.1080437e-9, -1.0365142e-8, 3.2333355e+1
0.003, 4.1330463e-9, -1.0309145e-8, 3.2666687e+1
0.002, 4.2115698e-9, -1.0179657e-8, 3.3000019e+1
0.001, 4.4230153e-9, -1.0106247e-8, 3.3333351e+1
-0.000, 4.5157575e-9, -1.0000723e-8, 3.3666683e+1
-0.001, 4.5206301e-9, -9.9547908e-9, 3.4000015e+1
-0.002, 4.6271120e-9, -9.9360991e-9, 3.4333347e+1
-0.003, 4.6405320e-9, -9.8844160e-9, 3.4666679e+1
-0.004, 4.7288804e-9, -9.8531823e-9, 3.5000011e+1
-0.005, 5.0011955e-9, -9.7967057e-9, 3.5333344e+1
-0.006, 4.9753139e-9, -9.7143484e-9, 3.5666676e+1
-0.007, 5.0880264e-9, -9.6670592e-9, 3.6000008e+1
-0.008, 5.1073576e-9, -9.5722399e-9, 3.6333340e+1
-0.009, 5.0940181e-9, -9.4947552e-9, 3.6666672e+1
-0.010, 5.1984226e-9, -9.4898027e-9, 3.7000004e+1
-0.011, 5.3384541e-9, -9.4594483e-9, 3.7333336e+1
-0.012, 5.4490896e-9, -9.4381987e-9, 3.7666668e+1
-0.013, 5.5603642e-9, -9.4049684e-9, 3.8000000e+1
-0.014, 5.5662754e-9, -9.3622319e-9, 3.8333332e+1
-0.015, 5.6727574e-9, -9.3245287e-9, 3.8666664e+1
-0.016, 5.6465561e-9, -9.2817922e-9, 3.8999996e+1
-0.017, 5.7379403e-9, -9.1707566e-9, 3.9333328e+1
-0.018, 5.9298952e-9, -9.1222692e-9, 3.9666660e+1
-0.019, 5.8814074e-9, -9.0880796e-9, 3.9999992e+1
-0.020, 6.0346990e-9, -9.0117931e-9, 4.0333324e+1
-0.021, 6.0830274e-9, -8.9962162e-9, 4.0666656e+1
-0.022, 6.0639356e-9, -8.9749683e-9, 4.0999989e+1
-0.023, 6.1312759e-9, -8.9341485e-9, 4.1333321e+1
-0.024, 6.3370496e-9, -8.8896543e-9, 4.1666653e+1
-0.025, 6.3187571e-9, -8.8886960e-9, 4.1999985e+1
-0.026, 6.3622125e-9, -8.8680867e-9, 4.2333317e+1
-0.027, 6.4967320e-9, -8.8053005e-9, 4.2666649e+1
-0.028, 6.5196581e-9, -8.7219840e-9, 4.2999981e+1
-0.029, 6.5495334e-9, -8.6621528e-9, 4.3333313e+1
-0.030, 6.5505721e-9, -8.6599163e-9, 4.3666645e+1
-0.031, 6.6191101e-9, -8.5578282e-9, 4.3999977e+1
-0.032, 6.6211077e-9, -8.5218010e-9, 4.4333309e+1
-0.033, 6.6830954e-9, -8.5158902e-9, 4.4666641e+1
-0.034, 6.8614701e-9, -8.4975973e-9, 4.4999973e+1
-0.035, 6.7737602e-9, -8.4793044e-9, 4.5333305e+1
-0.036, 6.8431771e-9, -8.4401632e-9, 4.5666637e+1
-0.037, 6.9893598e-9, -8.4384855e-9, 4.5999969e+1
-0.038, 6.9427095e-9, -8.3821696e-9, 4.6333302e+1
-0.039, 7.0138837e-9, -8.3711456e-9, 4.6666634e+1
-0.040, 7.0431203e-9, -8.3582048e-9, 4.6999966e+1
-0.041, 7.0455961e-9, -8.3662730e-9, 4.7333298e+1
-0.042, 7.0789867e-9, -8.3482998e-9, 4.7666630e+1
-0.043, 7.1018325e-9, -8.2615488e-9, 4.7999962e+1
-0.044, 7.1821931e-9, -8.1938092e-9, 4.8333294e+1
-0.045, 7.2564825e-9, -8.1428446e-9, 4.8666626e+1
-0.046, 7.2904327e-9, -8.0717504e-9, 4.8999958e+1
-0.047, 7.4227953e-9, -8.0901232e-9, 4.9333290e+1
-0.048, 7.4120114e-9, -8.1225551e-9, 4.9666622e+1
-0.049, 7.5369453e-9, -8.2710541e-9, 4.9999954e+1
-0.050, 7.7129236e-9, -8.3547693e-9, 5.0333286e+1
-0.051, 7.5936617e-9, -8.3074001e-9, 5.0666618e+1
-0.052, 7.7541431e-9, -8.3218588e-9, 5.0999950e+1
-0.053, 7.9641511e-9, -8.2450926e-9, 5.1333282e+1
-0.054, 7.9561628e-9, -8.2244043e-9, 5.1666615e+1
-0.055, 7.8079028e-9, -8.0138367e-9, 5.1999947e+1
-0.056, 7.9779703e-9, -8.0175919e-9, 5.2333279e+1
-0.057, 7.8114173e-9, -7.9488141e-9, 5.2666611e+1
-0.058, 7.8409741e-9, -8.0932390e-9, 5.2999943e+1
-0.059, 7.9973814e-9, -7.8226012e-9, 5.3333275e+1
-0.060, 7.8180475e-9, -7.7844975e-9, 5.3666607e+1
-0.061, 7.8447284e-9, -7.7636493e-9, 5.3999939e+1
-0.062, 7.7281017e-9, -7.7463147e-9, 5.4333271e+1
-0.063, 7.9752542e-9, -7.6852054e-9, 5.4666603e+1
-0.064, 7.9467366e-9, -7.5881497e-9, 5.4999935e+1
-0.065, 7.9464977e-9, -7.6228979e-9, 5.5333267e+1
-0.066, 8.0077660e-9, -7.6041262e-9, 5.5666599e+1
-0.067, 7.9923490e-9, -7.5858333e-9, 5.5999931e+1
-0.068, 8.0188691e-9, -7.5651441e-9, 5.6333263e+1
-0.069, 8.0973130e-9, -7.5315940e-9, 5.6666595e+1
-0.070, 8.0183904e-9, -7.5288780e-9, 5.6999928e+1
-0.071, 8.0309315e-9, -7.5119431e-9, 5.7333260e+1
-0.072, 8.0798186e-9, -7.5204101e-9, 5.7666592e+1
-0.073, 8.0762241e-9, -7.5168956e-9, 5.7999924e+1
-0.074, 8.1610576e-9, -7.4747186e-9, 5.8333256e+1
-0.075, 8.0770226e-9, -7.4827868e-9, 5.8666588e+1
-0.076, 8.2230454e-9, -7.4601800e-9, 5.8999920e+1
-0.077, 8.3010896e-9, -7.4398900e-9, 5.9333252e+1
-0.078, 8.1303835e-9, -7.4176834e-9, 5.9666584e+1
-0.079, 8.3993434e-9, -7.4203990e-9, 5.9999916e+1
-0.080, 8.3545304e-9, -7.4080178e-9, 6.0333248e+1
-0.081, 8.3131519e-9, -7.3945978e-9, 6.0666580e+1
-0.082, 8.4678815e-9, -7.3708728e-9, 6.0999912e+1
-0.083, 8.3765777e-9, -7.3501036e-9, 6.1333244e+1
-0.084, 8.4083700e-9, -7.3675177e-9, 6.1666576e+1
-0.085, 8.5194847e-9, -7.3488260e-9, 6.1999908e+1
-0.086, 8.4769880e-9, -7.3435529e-9, 6.2333241e+1
-0.087, 8.4956806e-9, -7.2626336e-9, 6.2666573e+1
-0.088, 8.5099794e-9, -7.2914705e-9, 6.2999905e+1
-0.089, 8.4918463e-9, -7.2383495e-9, 6.3333237e+1
-0.090, 8.5224405e-9, -7.2570421e-9, 6.3666569e+1
-0.091, 8.5204439e-9, -7.2640716e-9, 6.3999901e+1
-0.092, 8.5596650e-9, -7.1992079e-9, 6.4333237e+1
-0.093, 8.5321856e-9, -7.1411344e-9, 6.4666573e+1
-0.094, 8.5357010e-9, -7.1417734e-9, 6.4999908e+1
-0.095, 8.6101499e-9, -7.1415336e-9, 6.5333244e+1
-0.096, 8.5499199e-9, -7.0669248e-9, 6.5666580e+1
-0.097, 8.6131058e-9, -7.0740342e-9, 6.5999916e+1
-0.098, 8.7141556e-9, -7.0902497e-9, 6.6333252e+1
-0.099, 8.6814049e-9, -7.0386470e-9, 6.6666588e+1
-0.100, 8.6807654e-9, -7.0392057e-9, 6.6999924e+1
-0.101, 8.7536174e-9, -7.0257857e-9, 6.7333260e+1
-0.102, 8.7032115e-9, -7.0290609e-9, 6.7666595e+1
-0.103, 8.8199981e-9, -7.0191555e-9, 6.7999931e+1
-0.104, 8.8651317e-9, -7.0153217e-9, 6.8333267e+1
-0.105, 8.8851815e-9, -7.0094104e-9, 6.8666603e+1
-0.106, 8.8197591e-9, -7.0074933e-9, 6.8999939e+1
-0.107, 8.9502041e-9, -7.0245072e-9, 6.9333275e+1
-0.108, 8.9597103e-9, -7.0108483e-9, 6.9666611e+1
-0.109, 8.9736094e-9, -6.9789752e-9, 6.9999947e+1
-0.110, 8.9467695e-9, -6.9569284e-9, 7.0333282e+1
-0.111, 8.9963761e-9, -6.9534938e-9, 7.0666618e+1
-0.112, 8.9472492e-9, -6.9391146e-9, 7.0999954e+1
-0.113, 8.9646628e-9, -6.9594845e-9, 7.1333290e+1
-0.114, 8.9950181e-9, -6.9419905e-9, 7.1666626e+1
-0.115, 8.9956567e-9, -6.9230586e-9, 7.1999962e+1
-0.116, 8.9779233e-9, -6.9129134e-9, 7.2333298e+1
-0.117, 9.0557277e-9, -6.9251351e-9, 7.2666634e+1
-0.118, 9.0114733e-9, -6.9208221e-9, 7.2999969e+1
-0.119, 9.0255332e-9, -6.9202626e-9, 7.3333305e+1
-0.120, 9.1051744e-9, -6.9363186e-9, 7.3666641e+1
-0.121, 9.1931236e-9, -6.9502981e-9, 7.3999977e+1
-0.122, 9.1772279e-9, -6.9212214e-9, 7.4333313e+1
-0.123, 9.1412806e-9, -6.8899082e-9, 7.4666649e+1
-0.124, 9.2099786e-9, -6.9038868e-9, 7.4999985e+1
-0.125, 9.2706083e-9, -6.9107569e-9, 7.5333321e+1
-0.126, 9.1590939e-9, -6.7787931e-9, 7.5666656e+1
-0.127, 9.3533652e-9, -6.7996422e-9, 7.5999992e+1
-0.128, 9.3358707e-9, -6.9206618e-9, 7.6333328e+1
-0.129, 9.3244488e-9, -6.9151498e-9, 7.6666664e+1
-0.130, 9.4646397e-9, -6.8836772e-9, 7.7000000e+1
-0.131, 9.4608854e-9, -6.8842358e-9, 7.7333336e+1
-0.132, 9.4194270e-9, -6.8008403e-9, 7.7666672e+1
-0.133, 9.4754231e-9, -6.8129027e-9, 7.8000008e+1
-0.134, 9.4874064e-9, -6.7291865e-9, 7.8333344e+1
-0.135, 9.4377199e-9, -6.7369350e-9, 7.8666679e+1
-0.136, 9.4666373e-9, -6.6937993e-9, 7.9000015e+1
-0.137, 9.4904413e-9, -6.7724026e-9, 7.9333351e+1
-0.138, 9.4944355e-9, -6.7188024e-9, 7.9666687e+1
-0.139, 9.5138466e-9, -6.7680093e-9, 8.0000023e+1
-0.140, 9.5191988e-9, -6.7465211e-9, 8.0333359e+1
-0.141, 9.5113704e-9, -6.6841337e-9, 8.0666695e+1
-0.142, 9.5462784e-9, -6.7279884e-9, 8.1000031e+1
-0.143, 9.6833555e-9, -6.6553767e-9, 8.1333366e+1
-0.144, 9.6182520e-9, -6.7040244e-9, 8.1666702e+1
-0.145, 9.5740775e-9, -6.6525008e-9, 8.2000038e+1
-0.146, 9.8256230e-9, -6.7765566e-9, 8.2333374e+1
-0.147, 9.7645936e-9, -6.7314230e-9, 8.2666710e+1
-0.148, 9.7516528e-9, -6.6789414e-9, 8.3000046e+1
-0.149, 9.9341815e-9, -6.6373231e-9, 8.3333382e+1
-0.150, 9.7621982e-9, -6.5699033e-9, 8.3666718e+1
-0.151, 9.7965467e-9, -6.5957053e-9, 8.4000053e+1
-0.152, 9.9325037e-9, -6.5686256e-9, 8.4333389e+1
-0.153, 9.7967865e-9, -6.5358745e-9, 8.4666725e+1
-0.154, 9.9005524e-9, -6.5711014e-9, 8.5000061e+1
-0.155, 9.9730038e-9, -6.5973031e-9, 8.5333397e+1
-0.156, 9.9730038e-9, -6.5806076e-9, 8.5666733e+1
-0.157, 9.9636575e-9, -6.5627144e-9, 8.6000069e+1
-0.158, 9.9842676e-9, -6.5572823e-9, 8.6333405e+1
-0.159, 1.0030519e-8, -6.5419452e-9, 8.6666740e+1
-0.160, 9.9944124e-9, -6.5622352e-9, 8.7000076e+1
-0.161, 1.0026205e-8, -6.5642318e-9, 8.7333412e+1
-0.162, 1.0208255e-8, -6.5824448e-9, 8.7666748e+1
-0.163, 1.0133965e-8, -6.5627144e-9, 8.8000084e+1
-0.164, 1.0141554e-8, -6.5498531e-9, 8.8333420e+1
-0.165, 1.0384392e-8, -6.5513710e-9, 8.8666756e+1
-0.166, 1.0309704e-8, -6.5655099e-9, 8.9000092e+1
-0.167, 1.0351082e-8, -6.5389893e-9, 8.9333427e+1
-0.168, 1.0392620e-8, -6.5369123e-9, 8.9666763e+1
-0.169, 1.0428727e-8, -6.5410668e-9, 9.0000099e+1
-0.170, 1.0458282e-8, -6.5390693e-9, 9.0333435e+1
-0.171, 1.0476415e-8, -6.5505721e-9, 9.0666771e+1
-0.172, 1.0483445e-8, -6.5472969e-9, 9.1000107e+1
-0.173, 1.0521948e-8, -6.5315606e-9, 9.1333443e+1
-0.174, 1.0495348e-8, -6.5400281e-9, 9.1666779e+1
-0.175, 1.0593921e-8, -6.5166228e-9, 9.2000114e+1
-0.176, 1.0580421e-8, -6.5277264e-9, 9.2333450e+1
-0.177, 1.0614131e-8, -6.5329187e-9, 9.2666786e+1
-0.178, 1.0754003e-8, -6.5226935e-9, 9.3000122e+1
-0.179, 1.0738746e-8, -6.5272467e-9, 9.3333458e+1
-0.180, 1.0713584e-8, -6.5540875e-9, 9.3666794e+1
-0.181, 1.0938050e-8, -6.5398678e-9, 9.4000130e+1
-0.182, 1.0842112e-8, -6.5429839e-9, 9.4333466e+1
-0.183, 1.0914404e-8, -6.5223738e-9, 9.4666801e+1
-0.184, 1.0941244e-8, -6.5119097e-9, 9.5000137e+1
-0.185, 1.0935174e-8, -6.5310815e-9, 9.5333473e+1
-0.186, 1.0962972e-8, -6.5341168e-9, 9.5666809e+1
-0.187, 1.1039978e-8, -6.5201373e-9, 9.6000145e+1
-0.188, 1.1032309e-8, -6.5139072e-9, 9.6333481e+1
-0.189, 1.1069853e-8, -6.5211760e-9, 9.6666817e+1
-0.190, 1.1103164e-8, -6.5018444e-9, 9.7000153e+1
-0.191, 1.1224503e-8, -6.5142260e-9, 9.7333488e+1
-0.192, 1.1198462e-8, -6.5128685e-9, 9.7666824e+1
-0.193, 1.1350396e-8, -6.5356343e-9, 9.8000160e+1
-0.194, 1.1399124e-8, -6.5322796e-9, 9.8333496e+1
-0.195, 1.1393213e-8, -6.5084751e-9, 9.8666832e+1
-0.196, 1.1375639e-8, -6.5248504e-9, 9.9000168e+1
-0.197, 1.1463348e-8, -6.5387495e-9, 9.9333504e+1
-0.198, 1.1455920e-8, -6.5496937e-9, 9.9666840e+1
-0.199, 1.1473893e-8, -6.5028831e-9, 1.0000018e+2
-0.200, 1.1583570e-8, -6.5514514e-9, 1.0033351e+2
-0.201, 1.1674554e-8, -6.5555246e-9, 1.0066685e+2
-0.202, 1.1646835e-8, -6.5114305e-9, 1.0100018e+2
-0.203, 1.1690611e-8, -6.4671761e-9, 1.0133352e+2
-0.204, 1.1783273e-8, -6.5504926e-9, 1.0166685e+2
-0.205, 1.1608013e-8, -6.5275660e-9, 1.0200019e+2
-0.206, 1.1840387e-8, -6.5171815e-9, 1.0233353e+2
-0.207, 1.1927458e-8, -6.5245307e-9, 1.0266686e+2
-0.208, 1.1944073e-8, -6.5546462e-9, 1.0300020e+2
-0.209, 1.1951503e-8, -6.5643118e-9, 1.0333353e+2
-0.210, 1.2141300e-8, -6.5464980e-9, 1.0366687e+2
-0.211, 1.2006141e-8, -6.5366730e-9, 1.0400021e+2
-0.212, 1.2201212e-8, -6.5585608e-9, 1.0433354e+2
-0.213, 1.2334374e-8, -6.5353944e-9, 1.0466688e+2
-0.214, 1.2371518e-8, -6.5554446e-9, 1.0500021e+2
-0.215, 1.2385817e-8, -6.5930688e-9, 1.0533355e+2
-0.216, 1.2448284e-8, -6.5679866e-9, 1.0566689e+2
-0.217, 1.2450361e-8, -6.5877965e-9, 1.0600022e+2
-0.218, 1.2503802e-8, -6.6167938e-9, 1.0633356e+2
-0.219, 1.2645590e-8, -6.6613675e-9, 1.0666689e+2
-0.220, 1.2825164e-8, -6.7159265e-9, 1.0700023e+2
-0.221, 1.2768288e-8, -6.6981132e-9, 1.0733356e+2
-0.222, 1.2877486e-8, -6.6378827e-9, 1.0766690e+2
-0.223, 1.2905685e-8, -6.7098553e-9, 1.0800024e+2
-0.224, 1.2952973e-8, -6.7120918e-9, 1.0833357e+2
-0.225, 1.2966794e-8, -6.7527517e-9, 1.0866691e+2
-0.226, 1.3124079e-8, -6.6555361e-9, 1.0900024e+2
-0.227, 1.3091967e-8, -6.8244050e-9, 1.0933358e+2
-0.228, 1.3225208e-8, -6.8872712e-9, 1.0966692e+2
-0.229, 1.3404702e-8, -6.8316743e-9, 1.1000025e+2
-0.230, 1.3440329e-8, -6.9487007e-9, 1.1033359e+2
-0.231, 1.3495927e-8, -6.9666735e-9, 1.1066692e+2
-0.232, 1.3701461e-8, -6.9252954e-9, 1.1100026e+2
-0.233, 1.3671106e-8, -6.9588455e-9, 1.1133360e+2
-0.234, 1.3829750e-8, -6.9550112e-9, 1.1166693e+2
-0.235, 1.3848682e-8, -6.9970287e-9, 1.1200027e+2
-0.236, 1.3895412e-8, -6.9883215e-9, 1.1233360e+2
-0.237, 1.4052859e-8, -6.9982269e-9, 1.1266694e+2
-0.238, 1.4067078e-8, -7.0189961e-9, 1.1300027e+2
-0.239, 1.4278843e-8, -7.0778685e-9, 1.1333361e+2
-0.240, 1.4383008e-8, -7.1879449e-9, 1.1366695e+2
-0.241, 1.4410727e-8, -7.2757342e-9, 1.1400028e+2
-0.242, 1.4589181e-8, -7.2906721e-9, 1.1433362e+2
-0.243, 1.4687435e-8, -7.3487456e-9, 1.1466695e+2
-0.244, 1.4764761e-8, -7.4247928e-9, 1.1500029e+2
-0.245, 1.4922206e-8, -7.4064999e-9, 1.1533363e+2
-0.246, 1.4885141e-8, -7.4561859e-9, 1.1566696e+2
-0.247, 1.5019022e-8, -7.4908542e-9, 1.1600030e+2
-0.248, 1.5243808e-8, -7.4993221e-9, 1.1633363e+2
-0.249, 1.5303320e-8, -7.5591524e-9, 1.1666697e+2
-0.250, 1.5373695e-8, -7.7182767e-9, 1.1700031e+2
-0.251, 1.5466997e-8, -7.8363405e-9, 1.1733364e+2
-0.252, 1.5621168e-8, -7.8623019e-9, 1.1766698e+2
-0.253, 1.5678202e-8, -7.8404945e-9, 1.1800031e+2
-0.254, 1.5802817e-8, -7.9317193e-9, 1.1833365e+2
-0.255, 1.5863366e-8, -7.9301206e-9, 1.1866698e+2
-0.256, 1.5888689e-8, -7.8999260e-9, 1.1900032e+2
-0.257, 1.5903707e-8, -7.9349940e-9, 1.1933366e+2
-0.258, 1.6158848e-8, -7.9497715e-9, 1.1966699e+2
-0.259, 1.6182412e-8, -8.0722300e-9, 1.2000033e+2
-0.260, 1.6337861e-8, -8.0614466e-9, 1.2033366e+2
-0.261, 1.6370294e-8, -8.2454923e-9, 1.2066700e+2
-0.262, 1.6382275e-8, -8.2796019e-9, 1.2100034e+2
-0.263, 1.6583416e-8, -8.4012610e-9, 1.2133367e+2
-0.264, 1.6596836e-8, -8.4090885e-9, 1.2166701e+2
-0.265, 1.6705954e-8, -8.4538234e-9, 1.2200034e+2
-0.266, 1.6835601e-8, -8.5216421e-9, 1.2233368e+2
-0.267, 1.6824897e-8, -8.5840295e-9, 1.2266702e+2
-0.268, 1.6949990e-8, -8.5265146e-9, 1.2300035e+2
-0.269, 1.6968045e-8, -8.6043981e-9, 1.2333369e+2
-0.270, 1.6870269e-8, -8.5889820e-9, 1.2366702e+2
-0.271, 1.7075564e-8, -8.6960226e-9, 1.2400036e+2
-0.272, 1.7227817e-8, -8.7414751e-9, 1.2433369e+2
-0.273, 1.7163433e-8, -8.8533882e-9, 1.2466703e+2
-0.274, 1.7319522e-8, -8.8800691e-9, 1.2500037e+2
-0.275, 1.7336616e-8, -8.9778442e-9, 1.2533370e+2
-0.276, 1.7377275e-8, -8.9874295e-9, 1.2566704e+2
-0.277, 1.7449009e-8, -8.9762455e-9, 1.2600037e+2
-0.278, 1.7398605e-8, -9.0232959e-9, 1.2633371e+2
-0.279, 1.7466423e-8, -9.0079588e-9, 1.2666705e+2
-0.280, 1.7537038e-8, -9.0793728e-9, 1.2700038e+2
-0.281, 1.7544069e-8, -9.0415888e-9, 1.2733372e+2
-0.282, 1.7581771e-8, -9.0546894e-9, 1.2766705e+2
-0.283, 1.7693045e-8, -9.1292192e-9, 1.2800038e+2
-0.284, 1.7724920e-8, -9.2591055e-9, 1.2833371e+2
-0.285, 1.7781636e-8, -9.3150225e-9, 1.2866704e+2
-0.286, 1.7760067e-8, -9.3344328e-9, 1.2900037e+2
-0.287, 1.7818619e-8, -9.3679837e-9, 1.2933369e+2
-0.288, 1.7830043e-8, -9.3979393e-9, 1.2966702e+2
-0.289, 1.7850892e-8, -9.4324477e-9, 1.3000035e+2
-0.290, 1.7992921e-8, -9.4626431e-9, 1.3033368e+2
-0.291, 1.7943794e-8, -9.4866870e-9, 1.3066701e+2
-0.292, 1.7996834e-8, -9.5132080e-9, 1.3100034e+2
-0.293, 1.8169059e-8, -9.5118491e-9, 1.3133366e+2
-0.294, 1.8071844e-8, -9.4977102e-9, 1.3166699e+2
-0.295, 1.8258765e-8, -9.5268673e-9, 1.3200032e+2
-0.296, 1.8229530e-8, -9.6278372e-9, 1.3233365e+2
-0.297, 1.8291916e-8, -9.6915826e-9, 1.3266698e+2
-0.298, 1.8288722e-8, -9.7922328e-9, 1.3300031e+2
-0.299, 1.8321233e-8, -9.6899848e-9, 1.3333363e+2
-0.300, 1.8305496e-8, -9.7982236e-9, 1.3366696e+2
-0.301, 1.8351907e-8, -9.7992618e-9, 1.3400029e+2
-0.302, 1.8328821e-8, -9.7831263e-9, 1.3433362e+2
-0.303, 1.8339765e-8, -9.7942303e-9, 1.3466695e+2
-0.304, 1.8351267e-8, -9.6672190e-9, 1.3500027e+2
-0.305, 1.8353504e-8, -9.6463699e-9, 1.3533360e+2
-0.306, 1.8355662e-8, -9.6136183e-9, 1.3566693e+2
-0.307, 1.8281051e-8, -9.6885477e-9, 1.3600026e+2
-0.308, 1.8366206e-8, -9.7373549e-9, 1.3633359e+2
-0.309, 1.8469573e-8, -9.6434141e-9, 1.3666692e+2
-0.310, 1.8331697e-8, -9.5108117e-9, 1.3700024e+2
-0.311, 1.7981657e-8, -9.3022416e-9, 1.3733357e+2
-0.312, 1.7989485e-8, -9.3245287e-9, 1.3766690e+2
-0.313, 1.8100600e-8, -9.3031201e-9, 1.3800023e+2
-0.314, 1.7930454e-8, -9.1994341e-9, 1.3833356e+2
-0.315, 1.8009617e-8, -9.6243227e-9, 1.3866689e+2
-0.316, 1.8361412e-8, -9.6152961e-9, 1.3900021e+2
-0.317, 1.8374433e-8, -9.5906127e-9, 1.3933354e+2
-0.318, 1.8562554e-8, -9.8760289e-9, 1.3966687e+2
-0.319, 1.8714010e-8, -9.8296971e-9, 1.4000020e+2
-0.320, 1.8649306e-8, -9.8493480e-9, 1.4033353e+2
-0.321, 1.8721837e-8, -9.8727533e-9, 1.4066685e+2
-0.322, 1.8802279e-8, -9.8619690e-9, 1.4100018e+2
-0.323, 1.8653299e-8, -9.7069996e-9, 1.4133351e+2
-0.324, 1.8652500e-8, -9.7428670e-9, 1.4166684e+2
-0.325, 1.8829995e-8, -9.8539008e-9, 1.4200017e+2
-0.326, 1.8774639e-8, -9.8699573e-9, 1.4233350e+2
-0.327, 1.8794768e-8, -9.8526236e-9, 1.4266682e+2
-0.328, 1.8838463e-8, -9.9106972e-9, 1.4300015e+2
-0.329, 1.8839023e-8, -9.8682795e-9, 1.4333348e+2
-0.330, 1.8835507e-8, -9.9201225e-9, 1.4366681e+2
-0.331, 1.8914351e-8, -9.9096580e-9, 1.4400014e+2
-0.332, 1.8925935e-8, -9.9037472e-9, 1.4433347e+2
-0.333, 1.8947262e-8, -9.9124549e-9, 1.4466679e+2
-0.334, 1.8924975e-8, -9.8863326e-9, 1.4500012e+2
-0.335, 1.8993992e-8, -9.9019095e-9, 1.4533345e+2
-0.336, 1.8988560e-8, -9.9246753e-9, 1.4566678e+2
-0.337, 1.8988960e-8, -9.9436877e-9, 1.4600011e+2
-0.338, 1.9151118e-8, -9.9064623e-9, 1.4633344e+2
-0.339, 1.9046473e-8, -9.9372972e-9, 1.4666676e+2
-0.340, 1.9185308e-8, -9.9488000e-9, 1.4700009e+2
-0.341, 1.9289873e-8, -1.0052806e-8, 1.4733342e+2
-0.342, 1.9279886e-8, -1.0070459e-8, 1.4766675e+2
-0.343, 1.9337163e-8, -1.0252509e-8, 1.4800008e+2
-0.344, 1.9395715e-8, -1.0236453e-8, 1.4833340e+2
-0.345, 1.9417284e-8, -1.0284461e-8, 1.4866673e+2
-0.346, 1.9401147e-8, -1.0102492e-8, 1.4900006e+2
-0.347, 1.9414966e-8, -1.0168714e-8, 1.4933339e+2
-0.348, 1.9511942e-8, -1.0253308e-8, 1.4966672e+2
-0.349, 1.9481108e-8, -1.0210891e-8, 1.5000005e+2
-0.350, 1.9699344e-8, -1.0242603e-8, 1.5033337e+2
-0.351, 1.9551804e-8, -1.0250751e-8, 1.5066670e+2
-0.352, 1.9663078e-8, -1.0124379e-8, 1.5100003e+2
-0.353, 1.9289953e-8, -9.8962385e-9, 1.5133336e+2
-0.354, 1.9343712e-8, -1.0187006e-8, 1.5166669e+2
-0.355, 1.9754703e-8, -1.0322244e-8, 1.5200002e+2
-0.356, 1.9701181e-8, -1.0219757e-8, 1.5233334e+2
-0.357, 1.9756460e-8, -1.0331831e-8, 1.5266667e+2
-0.358, 1.9757577e-8, -1.0280626e-8, 1.5300000e+2
-0.359, 1.9712443e-8, -1.0316733e-8, 1.5333333e+2
-0.360, 1.9766762e-8, -1.0367537e-8, 1.5366666e+2
-0.361, 1.9789290e-8, -1.0375765e-8, 1.5399998e+2
-0.362, 1.9753584e-8, -1.0305390e-8, 1.5433331e+2
-0.363, 1.9802870e-8, -1.0263851e-8, 1.5466664e+2
-0.364, 1.9617945e-8, -1.0073415e-8, 1.5499997e+2
-0.365, 1.9824197e-8, -1.0457804e-8, 1.5533330e+2
-0.366, 2.0037241e-8, -1.0429765e-8, 1.5566663e+2
-0.367, 2.0035085e-8, -1.0421457e-8, 1.5599995e+2
-0.368, 2.0184942e-8, -1.0538563e-8, 1.5633328e+2
-0.369, 2.0266022e-8, -1.0543117e-8, 1.5666661e+2
-0.370, 2.0253161e-8, -1.0389026e-8, 1.5699994e+2
-0.371, 2.0074385e-8, -1.0535848e-8, 1.5733327e+2
-0.372, 2.0270575e-8, -1.0466590e-8, 1.5766660e+2
-0.373, 2.0337275e-8, -1.0454129e-8, 1.5799992e+2
-0.374, 2.0264185e-8, -1.0463874e-8, 1.5833325e+2
-0.375, 2.0259550e-8, -1.0531774e-8, 1.5866658e+2
-0.376, 2.0406533e-8, -1.0706473e-8, 1.5899991e+2
-0.377, 2.0364514e-8, -1.0542717e-8, 1.5933324e+2
-0.378, 2.0521801e-8, -1.0563246e-8, 1.5966656e+2
-0.379, 2.0380410e-8, -1.0489436e-8, 1.5999989e+2
-0.380, 2.0408530e-8, -1.0619802e-8, 1.6033322e+2
-0.381, 2.0615023e-8, -1.0553261e-8, 1.6066655e+2
-0.382, 2.0456538e-8, -1.0665175e-8, 1.6099988e+2
-0.383, 2.0715833e-8, -1.0560290e-8, 1.6133321e+2
-0.384, 2.0697939e-8, -1.0565483e-8, 1.6166653e+2
-0.385, 2.0765599e-8, -1.0908653e-8, 1.6199986e+2
-0.386, 2.0858820e-8, -1.0806246e-8, 1.6233319e+2
-0.387, 2.0764640e-8, -1.0748811e-8, 1.6266652e+2
-0.388, 2.0809214e-8, -1.0820305e-8, 1.6299985e+2
-0.389, 2.1083686e-8, -1.0800654e-8, 1.6333318e+2
-0.390, 2.0789004e-8, -1.0812876e-8, 1.6366650e+2
-0.391, 2.0956515e-8, -1.0812556e-8, 1.6399983e+2
-0.392, 2.1118915e-8, -1.0846505e-8, 1.6433316e+2
-0.393, 2.0898920e-8, -1.0800255e-8, 1.6466649e+2
-0.394, 2.1121709e-8, -1.0767343e-8, 1.6499982e+2
-0.395, 2.0972571e-8, -1.0784757e-8, 1.6533315e+2
-0.396, 2.1162768e-8, -1.0819505e-8, 1.6566647e+2
-0.397, 2.1255349e-8, -1.0980865e-8, 1.6599980e+2
-0.398, 2.1266294e-8, -1.1003952e-8, 1.6633313e+2
-0.399, 2.1361112e-8, -1.0989413e-8, 1.6666646e+2
-0.400, 2.1405528e-8, -1.0971760e-8, 1.6699979e+2
-0.401, 2.1336669e-8, -1.0960895e-8, 1.6733311e+2
-0.402, 2.1420066e-8, -1.0999239e-8, 1.6766644e+2
-0.403, 2.1641895e-8, -1.1007706e-8, 1.6799977e+2
-0.404, 2.1456012e-8, -1.0918958e-8, 1.6833310e+2
-0.405, 2.1706679e-8, -1.0870310e-8, 1.6866643e+2
-0.406, 2.1661865e-8, -1.1288089e-8, 1.6899976e+2
-0.407, 2.1809326e-8, -1.1294639e-8, 1.6933308e+2
-0.408, 2.1765713e-8, -1.1029433e-8, 1.6966641e+2
-0.409, 2.1727848e-8, -1.0983582e-8, 1.6999974e+2
-0.410, 2.1743185e-8, -1.0965209e-8, 1.7033307e+2
-0.411, 2.1771942e-8, -1.1025359e-8, 1.7066640e+2
-0.412, 2.1755886e-8, -1.0985739e-8, 1.7099973e+2
-0.413, 2.1800140e-8, -1.1322357e-8, 1.7133305e+2
-0.414, 2.1960062e-8, -1.1288728e-8, 1.7166638e+2
-0.415, 2.2115273e-8, -1.1159161e-8, 1.7199971e+2
-0.416, 2.2037387e-8, -1.1031191e-8, 1.7233304e+2
-0.417, 2.1762357e-8, -1.0880295e-8, 1.7266637e+2
-0.418, 2.1786640e-8, -1.1144462e-8, 1.7299969e+2
-0.419, 2.2278471e-8, -1.1363577e-8, 1.7333302e+2
-0.420, 2.2006873e-8, -1.1068895e-8, 1.7366635e+2
-0.421, 2.2382155e-8, -1.1490827e-8, 1.7399968e+2
-0.422, 2.2496225e-8, -1.1349518e-8, 1.7433301e+2
-0.423, 2.2220156e-8, -1.1273630e-8, 1.7466634e+2
-0.424, 2.2269043e-8, -1.1197823e-8, 1.7499966e+2
-0.425, 2.2226626e-8, -1.1070492e-8, 1.7533299e+2
-0.426, 2.2233897e-8, -1.1265083e-8, 1.7566632e+2
-0.427, 2.2469864e-8, -1.1428840e-8, 1.7599965e+2
-0.428, 2.2636977e-8, -1.1449928e-8, 1.7633298e+2
-0.429, 2.2678035e-8, -1.1451366e-8, 1.7666631e+2
-0.430, 2.2594159e-8, -1.1386582e-8, 1.7699963e+2
-0.431, 2.2637057e-8, -1.1340570e-8, 1.7733296e+2
-0.432, 2.2502617e-8, -1.1328669e-8, 1.7766629e+2
-0.433, 2.2587050e-8, -1.1357106e-8, 1.7799962e+2
-0.434, 2.2748171e-8, -1.1368050e-8, 1.7833295e+2
-0.435, 2.2717815e-8, -1.1418456e-8, 1.7866628e+2
-0.436, 2.2801611e-8, -1.1542750e-8, 1.7899960e+2
-0.437, 2.3183922e-8, -1.1690131e-8, 1.7933293e+2
-0.438, 2.2753204e-8, -1.1433313e-8, 1.7966626e+2
-0.439, 2.2753444e-8, -1.1397686e-8, 1.7999959e+2
-0.440, 2.2847223e-8, -1.1378275e-8, 1.8033292e+2
-0.441, 2.2879256e-8, -1.1545147e-8, 1.8066624e+2
-0.442, 2.3256614e-8, -1.1871462e-8, 1.8099957e+2
-0.443, 2.3189275e-8, -1.1449290e-8, 1.8133290e+2
-0.444, 2.3226020e-8, -1.1843663e-8, 1.8166623e+2
-0.445, 2.3295437e-8, -1.1530369e-8, 1.8199956e+2
-0.446, 2.3136874e-8, -1.1629421e-8, 1.8233289e+2
-0.447, 2.3364695e-8, -1.1612327e-8, 1.8266621e+2
-0.448, 2.3265322e-8, -1.1810353e-8, 1.8299954e+2
-0.449, 2.3510557e-8, -1.1821536e-8, 1.8333287e+2
-0.450, 2.3624789e-8, -1.1617040e-8, 1.8366620e+2
-0.451, 2.3509600e-8, -1.2038094e-8, 1.8399953e+2
-0.452, 2.3933689e-8, -1.1898940e-8, 1.8433286e+2
-0.453, 2.3787665e-8, -1.1908127e-8, 1.8466618e+2
-0.454, 2.3704828e-8, -1.1934168e-8, 1.8499951e+2
-0.455, 2.3700755e-8, -1.1739817e-8, 1.8533284e+2
-0.456, 2.4034659e-8, -1.2154401e-8, 1.8566617e+2
-0.457, 2.4150886e-8, -1.2224697e-8, 1.8599950e+2
-0.458, 2.4129477e-8, -1.1992082e-8, 1.8633282e+2
-0.459, 2.4116538e-8, -1.1977464e-8, 1.8666615e+2
-0.460, 2.4245624e-8, -1.2258487e-8, 1.8699948e+2
-0.461, 2.4411698e-8, -1.2395322e-8, 1.8733281e+2
-0.462, 2.4441174e-8, -1.2121809e-8, 1.8766614e+2
-0.463, 2.4679061e-8, -1.2331498e-8, 1.8799947e+2
-0.464, 2.4323988e-8, -1.1985213e-8, 1.8833279e+2
-0.465, 2.4297147e-8, -1.2013011e-8, 1.8866612e+2
-0.466, 2.4433906e-8, -1.1880329e-8, 1.8899945e+2
-0.467, 2.4094890e-8, -1.1842465e-8, 1.8933278e+2
-0.468, 2.4503960e-8, -1.2058065e-8, 1.8966611e+2
-0.469, 2.4613160e-8, -1.1900938e-8, 1.8999944e+2
-0.470, 2.4553406e-8, -1.2218865e-8, 1.9033276e+2
-0.471, 2.4702866e-8, -1.2106711e-8, 1.9066609e+2
-0.472, 2.4668676e-8, -1.2116297e-8, 1.9099942e+2
-0.473, 2.4683613e-8, -1.2015328e-8, 1.9133275e+2
-0.474, 2.4690724e-8, -1.2186513e-8, 1.9166608e+2
-0.475, 2.5074154e-8, -1.2720919e-8, 1.9199940e+2
-0.476, 2.5538101e-8, -1.2606369e-8, 1.9233273e+2
-0.477, 2.5188223e-8, -1.2361533e-8, 1.9266606e+2
-0.478, 2.5092685e-8, -1.2353705e-8, 1.9299939e+2
-0.479, 2.5154833e-8, -1.2324947e-8, 1.9333272e+2
-0.480, 2.5415487e-8, -1.2705262e-8, 1.9366605e+2
-0.481, 2.5618464e-8, -1.2785703e-8, 1.9399937e+2
-0.482, 2.5701061e-8, -1.2869738e-8, 1.9433270e+2
-0.483, 2.5595138e-8, -1.2483991e-8, 1.9466603e+2
-0.484, 2.5628689e-8, -1.2492777e-8, 1.9499936e+2
-0.485, 2.5790447e-8, -1.2790415e-8, 1.9533269e+2
-0.486, 2.6088724e-8, -1.2715887e-8, 1.9566602e+2
-0.487, 2.6145679e-8, -1.2800960e-8, 1.9599934e+2
-0.488, 2.6114845e-8, -1.2821250e-8, 1.9633267e+2
-0.489, 2.6365033e-8, -1.2851924e-8, 1.9666600e+2
-0.490, 2.5773513e-8, -1.2352587e-8, 1.9699933e+2
-0.491, 2.5846123e-8, -1.2863347e-8, 1.9733266e+2
-0.492, 2.6416158e-8, -1.2852164e-8, 1.9766599e+2
-0.493, 2.6397306e-8, -1.2926613e-8, 1.9799931e+2
-0.494, 2.6444516e-8, -1.3012326e-8, 1.9833264e+2
-0.495, 2.6990184e-8, -1.3339359e-8, 1.9866597e+2
-0.496, 2.7011433e-8, -1.3293747e-8, 1.9899930e+2
-0.497, 2.7047619e-8, -1.3225369e-8, 1.9933263e+2
-0.498, 2.6884502e-8, -1.2894580e-8, 1.9966595e+2
-0.499, 2.6936263e-8, -1.3159546e-8, 1.9999928e+2
-0.500, 2.6848236e-8, -1.3210271e-8, 2.0033261e+2
-0.499, 2.0617898e-8, -1.2900491e-8, 2.0066594e+2
-0.498, 1.9440209e-8, -1.2912953e-8, 2.0099927e+2
-0.497, 1.8635884e-8, -1.2420485e-8, 2.0133260e+2
-0.496, 1.7700716e-8, -1.2891066e-8, 2.0166592e+2
-0.495, 1.7379993e-8, -1.2861270e-8, 2.0199925e+2
-0.494, 1.6604105e-8, -1.2193783e-8, 2.0233258e+2
-0.493, 1.5517241e-8, -1.2088099e-8, 2.0266591e+2
-0.492, 1.4994338e-8, -1.2015009e-8, 2.0299924e+2
-0.491, 1.4527912e-8, -1.1977543e-8, 2.0333257e+2
-0.490, 1.4239541e-8, -1.2021878e-8, 2.0366589e+2
-0.489, 1.3858907e-8, -1.1985452e-8, 2.0399922e+2
-0.488, 1.3487379e-8, -1.1973549e-8, 2.0433255e+2
-0.487, 1.3166496e-8, -1.2006541e-8, 2.0466588e+2
-0.486, 1.2874131e-8, -1.2442452e-8, 2.0499921e+2
-0.485, 1.2886593e-8, -1.2416651e-8, 2.0533253e+2
-0.484, 1.2787379e-8, -1.2390849e-8, 2.0566586e+2
-0.483, 1.2337170e-8, -1.2235481e-8, 2.0599919e+2
-0.482, 1.1928496e-8, -1.2273744e-8, 2.0633252e+2
-0.481, 1.1774326e-8, -1.2178765e-8, 2.0666585e+2
-0.480, 1.1417257e-8, -1.1969716e-8, 2.0699918e+2
-0.479, 1.0997081e-8, -1.2087221e-8, 2.0733250e+2
-0.478, 1.0960895e-8, -1.2065972e-8, 2.0766583e+2
-0.477, 1.0864959e-8, -1.2046562e-8, 2.0799916e+2
-0.476, 1.0577305e-8, -1.1986011e-8, 2.0833249e+2
-0.475, 1.0297321e-8, -1.1921148e-8, 2.0866582e+2
-0.474, 1.0213526e-8, -1.1913000e-8, 2.0899915e+2
-0.473, 9.6568336e-9, -1.1819060e-8, 2.0933247e+2
-0.472, 9.8133217e-9, -1.1911642e-8, 2.0966580e+2
-0.471, 9.4947552e-9, -1.1605537e-8, 2.0999913e+2
-0.470, 9.4847703e-9, -1.2011973e-8, 2.1033246e+2
-0.469, 9.3194155e-9, -1.1802364e-8, 2.1066579e+2
-0.468, 8.7224636e-9, -1.1324355e-8, 2.1099911e+2
-0.467, 8.5393754e-9, -1.1850613e-8, 2.1133244e+2
-0.466, 8.9686569e-9, -1.1845740e-8, 2.1166577e+2
-0.465, 8.5320266e-9, -1.1794456e-8, 2.1199910e+2
-0.464, 8.4945624e-9, -1.1675913e-8, 2.1233243e+2
-0.463, 8.4964791e-9, -1.1814746e-8, 2.1266576e+2
-0.462, 8.2200105e-9, -1.1804122e-8, 2.1299908e+2
-0.461, 8.0894846e-9, -1.1519744e-8, 2.1333241e+2
-0.460, 7.8369800e-9, -1.1335779e-8, 2.1366574e+2
-0.459, 7.5180138e-9, -1.1378674e-8, 2.1399907e+2
-0.458, 7.5299962e-9, -1.1383068e-8, 2.1433240e+2
-0.457, 7.5296764e-9, -1.1391935e-8, 2.1466573e+2
-0.456, 7.3489055e-9, -1.1413503e-8, 2.1499905e+2
-0.455, 7.4198394e-9, -1.1400322e-8, 2.1533238e+2
-0.454, 7.1144539e-9, -1.1441301e-8, 2.1566571e+2
-0.453, 7.0797852e-9, -1.1639407e-8, 2.1599904e+2
-0.452, 7.3639228e-9, -1.1978663e-8, 2.1633237e+2
-0.451, 7.4176834e-9, -1.1708265e-8, 2.1666570e+2
-0.450, 6.9796942e-9, -1.1455200e-8, 2.1699902e+2
-0.449, 6.8629875e-9, -1.1337615e-8, 2.1733235e+2
-0.448, 6.6425958e-9, -1.1433153e-8, 2.1766568e+2
-0.447, 6.7756774e-9, -1.1352713e-8, 2.1799901e+2
-0.446, 6.4825132e-9, -1.1569271e-8, 2.1833234e+2
-0.445, 6.6446724e-9, -1.1405755e-8, 2.1866566e+2
-0.444, 6.5568031e-9, -1.1486834e-8, 2.1899899e+2
-0.443, 6.5356343e-9, -1.1437467e-8, 2.1933232e+2
-0.442, 6.3756325e-9, -1.1447053e-8, 2.1966565e+2
-0.441, 6.4285937e-9, -1.1445056e-8, 2.1999898e+2
-0.440, 6.3464753e-9, -1.1347440e-8, 2.2033231e+2
-0.439, 6.0644152e-9, -1.1373482e-8, 2.2066563e+2
-0.438, 6.0232761e-9, -1.1331465e-8, 2.2099896e+2
-0.437, 6.0299064e-9, -1.1364935e-8, 2.2133229e+2
-0.436, 5.9464305e-9, -1.1324195e-8, 2.2166562e+2
-0.435, 5.8299636e-9, -1.1346962e-8, 2.2199895e+2
-0.434, 5.7974519e-9, -1.1396567e-8, 2.2233228e+2
-0.433, 5.9338889e-9, -1.1521262e-8, 2.2266560e+2
-0.432, 5.5765002e-9, -1.1309737e-8, 2.2299893e+2
-0.431, 5.5693912e-9, -1.1217874e-8, 2.2333226e+2
-0.430, 5.5658762e-9, -1.1306142e-8, 2.2366559e+2
-0.429, 5.5018914e-9, -1.1330825e-8, 2.2399892e+2
-0.428, 5.3832676e-9, -1.1057791e-8, 2.2433224e+2
-0.427, 5.0963345e-9, -1.1233051e-8, 2.2466557e+2
-0.426, 5.0996891e-9, -1.0971680e-8, 2.2499890e+2
-0.425, 5.0906630e-9, -1.1176255e-8, 2.2533223e+2
-0.424, 5.0632636e-9, -1.0992369e-8, 2.2566556e+2
-0.423, 5.1278874e-9, -1.1092859e-8, 2.2599889e+2
-0.422, 5.0495239e-9, -1.1228338e-8, 2.2633221e+2
-0.421, 5.0480864e-9, -1.0894514e-8, 2.2666554e+2
-0.420, 4.6633781e-9, -1.0847464e-8, 2.2699887e+2
-0.419, 4.6704876e-9, -1.1149894e-8, 2.2733220e+2
-0.418, 4.8201052e-9, -1.1098051e-8, 2.2766553e+2
-0.417, 4.6255142e-9, -1.1034786e-8, 2.2799886e+2
-0.416, 4.6306270e-9, -1.0946357e-8, 2.2833218e+2
-0.415, 4.4870001e-9, -1.0792427e-8, 2.2866551e+2
-0.414, 4.2844213e-9, -1.0840514e-8, 2.2899884e+2
-0.413, 4.3015955e-9, -1.0744418e-8, 2.2933217e+2
-0.412, 4.1048485e-9, -1.0666612e-8, 2.2966550e+2
-0.411, 4.0725765e-9, -1.0732434e-8, 2.2999883e+2
-0.410, 4.1177892e-9, -1.0597756e-8, 2.3033215e+2
-0.409, 3.7531311e-9, -1.0383594e-8, 2.3066548e+2
-0.408, 3.6099841e-9, -1.0548708e-8, 2.3099881e+2
-0.407, 4.0069139e-9, -1.0823021e-8, 2.3133214e+2
-0.406, 3.9625001e-9, -1.0509008e-8, 2.3166547e+2
-0.405, 3.7112735e-9, -1.0453090e-8, 2.3199879e+2
-0.404, 3.5902534e-9, -1.0381676e-8, 2.3233212e+2
-0.403, 3.5737981e-9, -1.0319050e-8, 2.3266545e+2
-0.402, 3.5495937e-9, -1.0348685e-8, 2.3299878e+2
-0.401, 3.4415144e-9, -1.0327117e-8, 2.3333211e+2
-0.400, 3.3878345e-9, -1.0294606e-8, 2.3366544e+2
-0.399, 3.3237697e-9, -1.0345011e-8, 2.3399876e+2
-0.398, 3.2049861e-9, -1.0386310e-8, 2.3433209e+2
-0.397, 3.2759209e-9, -1.0238689e-8, 2.3466542e+2
-0.396, 3.1614509e-9, -1.0188204e-8, 2.3499875e+2
-0.395, 3.1458740e-9, -1.0314896e-8, 2.3533208e+2
-0.394, 3.1529837e-9, -1.0195633e-8, 2.3566541e+2
-0.393, 3.1020992e-9, -1.0252908e-8, 2.3599873e+2
-0.392, 3.0609604e-9, -1.0145468e-8, 2.3633206e+2
-0.391, 3.0008895e-9, -1.0060075e-8, 2.3666539e+2
-0.390, 2.8552660e-9, -1.0010148e-8, 2.3699872e+2
-0.389, 2.9710940e-9, -1.0056480e-8, 2.3733205e+2
-0.388, 2.8712424e-9, -1.0065027e-8, 2.3766537e+2
-0.387, 2.9420970e-9, -1.0212967e-8, 2.3799870e+2
-0.386, 3.0135907e-9, -1.0127894e-8, 2.3833203e+2
-0.385, 2.7333673e-9, -1.0007592e-8, 2.3866536e+2
-0.384, 2.6204152e-9, -9.9361790e-9, 2.3899869e+2
-0.383, 2.6621134e-9, -9.9817914e-9, 2.3933202e+2
-0.382, 2.6260869e-9, -9.9805932e-9, 2.3966534e+2
-0.381, 2.6343148e-9, -9.9048654e-9, 2.3999867e+2
-0.380, 2.5563505e-9, -9.9130135e-9, 2.4033200e+2
-0.379, 2.4774280e-9, -9.8871311e-9, 2.4066533e+2
-0.378, 2.5063449e-9, -9.8244248e-9, 2.4099866e+2
-0.377, 2.3608810e-9, -9.4065662e-9, 2.4133199e+2
-0.376, 1.8046681e-9, -9.3863566e-9, 2.4166531e+2
-0.375, 1.8458868e-9, -9.3938652e-9, 2.4199864e+2
-0.374, 1.7351713e-9, -9.3545642e-9, 2.4233197e+2
-0.373, 1.7015415e-9, -9.3247676e-9, 2.4266530e+2
-0.372, 1.6804528e-9, -9.3493719e-9, 2.4299863e+2
-0.371, 1.6778965e-9, -9.3565609e-9, 2.4333195e+2
-0.370, 1.6983461e-9, -9.3523269e-9, 2.4366528e+2
-0.369, 1.6042460e-9, -9.3227710e-9, 2.4399861e+2
-0.368, 1.6379560e-9, -9.2524752e-9, 2.4433194e+2
-0.367, 1.6292488e-9, -9.2279517e-9, 2.4466527e+2
-0.366, 1.5048738e-9, -9.2130934e-9, 2.4499860e+2
-0.365, 1.5869118e-9, -9.2968095e-9, 2.4533192e+2
-0.364, 1.4844241e-9, -9.1870529e-9, 2.4566525e+2
-0.363, 1.3166735e-9, -9.1705967e-9, 2.4599858e+2
-0.362, 1.4660515e-9, -9.1921653e-9, 2.4633191e+2
-0.361, 1.5230868e-9, -9.3782884e-9, 2.4666524e+2
-0.360, 1.4696462e-9, -9.3552028e-9, 2.4699857e+2
-0.359, 1.6248555e-9, -9.2998445e-9, 2.4733189e+2
-0.358, 1.4784330e-9, -9.3679038e-9, 2.4766522e+2
-0.357, 1.5569565e-9, -9.2759604e-9, 2.4799855e+2
-0.356, 1.1851092e-9, -9.3730161e-9, 2.4833188e+2
-0.355, 1.5010395e-9, -9.4343653e-9, 2.4866521e+2
-0.354, 1.4695664e-9, -9.3536050e-9, 2.4899854e+2
-0.353, 1.3952768e-9, -9.3865156e-9, 2.4933186e+2
-0.352, 1.3742680e-9, -9.3313179e-9, 2.4966519e+2
-0.351, 1.3126795e-9, -9.3651877e-9, 2.4999852e+2
-0.350, 1.2685851e-9, -9.3289216e-9, 2.5033185e+2
-0.349, 1.2101919e-9, -9.0854435e-9, 2.5066518e+2
-0.348, 1.0768701e-9, -9.1545411e-9, 2.5099850e+2
-0.347, 1.1312693e-9, -9.1241059e-9, 2.5133183e+2
-0.346, 1.1487632e-9, -9.1587742e-9, 2.5166516e+2
-0.345, 1.0839796e-9, -9.2112566e-9, 2.5199849e+2
-0.344, 1.0767902e-9, -9.1995940e-9, 2.5233182e+2
-0.343, 1.0919676e-9, -9.0828873e-9, 2.5266515e+2
-0.342, 1.0577785e-9, -9.1090087e-9, 2.5299847e+2
-0.341, 1.0159208e-9, -9.0860830e-9, 2.5333180e+2
-0.340, 9.6455710e-10, -9.0709058e-9, 2.5366513e+2
-0.339, 9.1095681e-10, -9.0639558e-9, 2.5399846e+2
-0.338, 9.1886504e-10, -9.0719441e-9, 2.5433179e+2
-0.337, 7.7667645e-10, -9.0190619e-9, 2.5466512e+2
-0.336, 7.6996637e-10, -9.0453431e-9, 2.5499844e+2
-0.335, 7.6445461e-10, -9.0518135e-9, 2.5533177e+2
-0.334, 7.3689560e-10, -9.0202610e-9, 2.5566510e+2
-0.333, 7.2858791e-10, -8.9826360e-9, 2.5599843e+2
-0.332, 6.7874201e-10, -9.0175440e-9, 2.5633176e+2
-0.331, 6.6771844e-10, -8.9891863e-9, 2.5666510e+2
-0.330, 6.9423894e-10, -8.9842347e-9, 2.5699844e+2
-0.329, 6.8585149e-10, -9.0131511e-9, 2.5733179e+2
-0.328, 6.1923050e-10, -9.0057224e-9, 2.5766513e+2
-0.327, 6.5302025e-10, -8.9670600e-9, 2.5799847e+2
-0.326, 6.1363881e-10, -8.9487662e-9, 2.5833182e+2
-0.325, 3.8909265e-10, -8.9590717e-9, 2.5866516e+2
-0.324, 5.1242927e-10, -8.9220871e-9, 2.5899850e+2
-0.323, 3.9180861e-10, -8.8990015e-9, 2.5933185e+2
-0.322, 3.0481795e-10, -8.8859808e-9, 2.5966519e+2
-0.321, 2.4306976e-10, -8.8847019e-9, 2.5999854e+2
-0.320, 3.6952175e-10, -8.8987608e-9, 2.6033188e+2
-0.319, 2.3244555e-10, -8.8709626e-9, 2.6066522e+2
-0.318, 1.9442206e-10, -8.8628953e-9, 2.6099857e+2
-0.317, 1.8811146e-10, -8.7497822e-9, 2.6133191e+2
-0.316, 1.5216489e-10, -8.7708711e-9, 2.6166525e+2
-0.315, 1.6119148e-10, -8.8934096e-9, 2.6199860e+2
-0.314, 1.7828607e-10, -8.7879659e-9, 2.6233194e+2
-0.313, 6.1100278e-11, -8.6953831e-9, 2.6266528e+2
-0.312, 5.2872515e-11, -8.6903515e-9, 2.6299863e+2
-0.311, 1.4050232e-11, -8.7086436e-9, 2.6333197e+2
-0.310, 9.8165261e-12, -8.6609555e-9, 2.6366531e+2
-0.309, -1.1879227e-10, -8.6397867e-9, 2.6399866e+2
-0.308, -2.3214375e-10, -8.5582270e-9, 2.6433200e+2
-0.307, -2.9820554e-10, -8.5384970e-9, 2.6466534e+2
-0.306, -2.8670263e-10, -8.5481622e-9, 2.6499869e+2
-0.305, -2.9964339e-10, -8.5178877e-9, 2.6533203e+2
-0.304, -3.0691258e-10, -8.5075831e-9, 2.6566537e+2
-0.303, -3.0978833e-10, -8.5005532e-9, 2.6599872e+2
-0.302, -4.2641493e-10, -8.4730738e-9, 2.6633206e+2
-0.301, -3.9454229e-10, -8.4602929e-9, 2.6666541e+2
-0.300, -4.2473738e-10, -8.4653262e-9, 2.6699875e+2
-0.299, -6.1629263e-10, -8.4247453e-9, 2.6733209e+2
-0.298, -5.7203842e-10, -8.4099678e-9, 2.6766544e+2
-0.297, -6.9018280e-10, -8.3918348e-9, 2.6799878e+2
-0.296, -7.7613499e-10, -8.2005993e-9, 2.6833212e+2
-0.295, -8.0225615e-10, -8.3534122e-9, 2.6866547e+2
-0.294, -7.4849610e-10, -8.3540508e-9, 2.6899881e+2
-0.293, -8.3133289e-10, -8.2504457e-9, 2.6933215e+2
-0.292, -8.7726459e-10, -8.3014893e-9, 2.6966550e+2
-0.291, -8.9979119e-10, -8.1637745e-9, 2.6999884e+2
-0.290, -9.0658109e-10, -8.1892555e-9, 2.7033218e+2
-0.289, -1.1157101e-9, -8.1173628e-9, 2.7066553e+2
-0.288, -1.1920767e-9, -8.0760643e-9, 2.7099887e+2
-0.287, -1.1661950e-9, -8.0684757e-9, 2.7133221e+2
-0.286, -1.2709993e-9, -8.0278157e-9, 2.7166556e+2
-0.285, -1.3051086e-9, -7.9985796e-9, 2.7199890e+2
-0.284, -1.3355433e-9, -7.9643101e-9, 2.7233224e+2
-0.283, -1.4371523e-9, -7.9499323e-9, 2.7266559e+2
-0.282, -1.4539273e-9, -7.9008853e-9, 2.7299893e+2
-0.281, -1.6261512e-9, -7.8984881e-9, 2.7333228e+2
-0.280, -1.6790327e-9, -7.8512779e-9, 2.7366562e+2
-0.279, -1.7668221e-9, -7.8432905e-9, 2.7399896e+2
-0.278, -1.7832776e-9, -7.7221900e-9, 2.7433231e+2
-0.277, -1.8967889e-9, -7.5700166e-9, 2.7466565e+2
-0.276, -1.9549424e-9, -7.6582056e-9, 2.7499899e+2
-0.275, -2.1313202e-9, -7.5998923e-9, 2.7533234e+2
-0.274, -2.0853086e-9, -7.5919040e-9, 2.7566568e+2
-0.273, -2.2639230e-9, -7.5373450e-9, 2.7599902e+2
-0.272, -2.2673579e-9, -7.5070705e-9, 2.7633237e+2
-0.271, -2.3870199e-9, -7.4828659e-9, 2.7666571e+2
-0.270, -2.6598943e-9, -7.4402893e-9, 2.7699905e+2
-0.269, -2.6126845e-9, -7.4191213e-9, 2.7733240e+2
-0.268, -2.7778790e-9, -7.3822157e-9, 2.7766574e+2
-0.267, -2.8421034e-9, -7.3410771e-9, 2.7799908e+2
-0.266, -2.8574407e-9, -7.3203079e-9, 2.7833243e+2
-0.265, -2.9963543e-9, -7.1563915e-9, 2.7866577e+2
-0.264, -3.1873502e-9, -7.0659660e-9, 2.7899911e+2
-0.263, -3.2518943e-9, -7.0638091e-9, 2.7933246e+2
-0.262, -3.3853758e-9, -6.9275319e-9, 2.7966580e+2
-0.261, -3.3943226e-9, -6.9594042e-9, 2.7999915e+2
-0.260, -3.7045811e-9, -6.9062032e-9, 2.8033249e+2
-0.259, -3.7378918e-9, -6.8572366e-9, 2.8066583e+2
-0.258, -3.7889358e-9, -6.7287869e-9, 2.8099918e+2
-0.257, -3.9498165e-9, -6.6131993e-9, 2.8133252e+2
-0.256, -4.1759605e-9, -6.5785306e-9, 2.8166586e+2
-0.255, -4.2413832e-9, -6.5544867e-9, 2.8199921e+2
-0.254, -4.3628026e-9, -6.5101529e-9, 2.8233255e+2
-0.253, -4.5112221e-9, -6.4448895e-9, 2.8266589e+2
-0.252, -4.6592419e-9, -6.3975998e-9, 2.8299924e+2
-0.251, -4.7524633e-9, -6.2405530e-9, 2.8333258e+2
-0.250, -4.7559778e-9, -6.1906276e-9, 2.8366592e+2
-0.249, -4.9279625e-9, -6.0877401e-9, 2.8399927e+2
-0.248, -5.1477156e-9, -6.0195218e-9, 2.8433261e+2
-0.247, -5.2249609e-9, -5.9707141e-9, 2.8466595e+2
-0.246, -5.3149072e-9, -5.9458714e-9, 2.8499930e+2
-0.245, -5.3307234e-9, -5.8469785e-9, 2.8533264e+2
-0.244, -5.6250062e-9, -5.7714908e-9, 2.8566599e+2
-0.243, -5.6698197e-9, -5.6856182e-9, 2.8599933e+2
-0.242, -5.7171090e-9, -5.6010241e-9, 2.8633267e+2
-0.241, -5.9304717e-9, -5.5878435e-9, 2.8666602e+2
-0.240, -5.8957235e-9, -5.5565303e-9, 2.8699936e+2
-0.239, -6.0434240e-9, -5.5111578e-9, 2.8733270e+2
-0.238, -6.1686776e-9, -5.4577969e-9, 2.8766605e+2
-0.237, -6.1925625e-9, -5.4632290e-9, 2.8799939e+2
-0.236, -6.2536718e-9, -5.3879008e-9, 2.8833273e+2
-0.235, -6.4164691e-9, -5.2532210e-9, 2.8866608e+2
-0.234, -6.5624923e-9, -5.2025761e-9, 2.8899942e+2
-0.233, -6.5502705e-9, -5.1742983e-9, 2.8933276e+2
-0.232, -6.6544357e-9, -5.0662989e-9, 2.8966611e+2
-0.231, -6.7007671e-9, -5.0493645e-9, 2.8999945e+2
-0.230, -6.8070891e-9, -5.0011160e-9, 2.9033279e+2
-0.229, -6.8096453e-9, -5.0053495e-9, 2.9066614e+2
-0.228, -7.0245254e-9, -4.9319389e-9, 2.9099948e+2
-0.227, -7.0389041e-9, -4.8921578e-9, 2.9133282e+2
-0.226, -7.1649566e-9, -4.8564508e-9, 2.9166617e+2
-0.225, -7.2326163e-9, -4.8272146e-9, 2.9199951e+2
-0.224, -7.1620807e-9, -4.7021205e-9, 2.9233286e+2
-0.223, -7.2453172e-9, -4.7240079e-9, 2.9266620e+2
-0.222, -7.3692927e-9, -4.6128927e-9, 2.9299954e+2
-0.221, -7.2978787e-9, -4.6401327e-9, 2.9333289e+2
-0.220, -7.3583490e-9, -4.5950799e-9, 2.9366623e+2
-0.219, -7.5906437e-9, -4.5864521e-9, 2.9399957e+2
-0.218, -7.5407174e-9, -4.5375650e-9, 2.9433292e+2
-0.217, -7.5904039e-9, -4.5216688e-9, 2.9466626e+2
-0.216, -7.6482376e-9, -4.5372457e-9, 2.9499960e+2
-0.215, -7.6308240e-9, -4.5056123e-9, 2.9533295e+2
-0.214, -7.6561468e-9, -4.4719024e-9, 2.9566629e+2
-0.213, -7.7040747e-9, -4.4691868e-9, 2.9599963e+2
-0.212, -7.7528020e-9, -4.4519326e-9, 2.9633298e+2
-0.211, -7.7540010e-9, -4.4088764e-9, 2.9666632e+2
-0.210, -7.7368272e-9, -4.4066395e-9, 2.9699966e+2
-0.209, -7.9146423e-9, -4.3794004e-9, 2.9733301e+2
-0.208, -7.8286906e-9, -4.2649302e-9, 2.9766635e+2
-0.207, -7.8294082e-9, -4.2399275e-9, 2.9799969e+2
-0.206, -8.0500406e-9, -4.2101318e-9, 2.9833304e+2
-0.205, -8.0454079e-9, -4.1970312e-9, 2.9866638e+2
-0.204, -8.0184881e-9, -4.1634012e-9, 2.9899973e+2
-0.203, -8.1038802e-9, -4.1565316e-9, 2.9933307e+2
-0.202, -8.0712095e-9, -4.1553334e-9, 2.9966641e+2
-0.201, -8.1180191e-9, -4.1128363e-9, 2.9999976e+2
-0.200, -8.1356735e-9, -4.1388777e-9, 3.0033310e+2
-0.199, -8.1649905e-9, -4.1217034e-9, 3.0066644e+2
-0.198, -8.1502121e-9, -4.1046087e-9, 3.0099979e+2
-0.197, -8.1575608e-9, -4.0845585e-9, 3.0133313e+2
-0.196, -8.2546965e-9, -4.0974193e-9, 3.0166647e+2
-0.195, -8.1796081e-9, -4.0979784e-9, 3.0199982e+2
-0.194, -8.2405576e-9, -4.0563606e-9, 3.0233316e+2
-0.193, -8.3264302e-9, -4.0635495e-9, 3.0266650e+2
-0.192, -8.2971132e-9, -4.0426209e-9, 3.0299985e+2
-0.191, -8.3124503e-9, -4.0292010e-9, 3.0333319e+2
-0.190, -8.3706047e-9, -4.0319970e-9, 3.0366653e+2
-0.189, -8.3637346e-9, -4.0149821e-9, 3.0399988e+2
-0.188, -8.3948084e-9, -4.0105883e-9, 3.0433322e+2
-0.187, -8.4855536e-9, -3.9982071e-9, 3.0466656e+2
-0.186, -8.4641449e-9, -4.0041184e-9, 3.0499991e+2
-0.185, -8.4118223e-9, -3.9879824e-9, 3.0533325e+2
-0.184, -8.4926626e-9, -3.9877426e-9, 3.0566660e+2
-0.183, -8.5523340e-9, -3.9386152e-9, 3.0599994e+2
-0.182, -8.5338012e-9, -3.9481214e-9, 3.0633328e+2
-0.181, -8.5791738e-9, -3.9190446e-9, 3.0666663e+2
-0.180, -8.6159986e-9, -3.7651131e-9, 3.0699997e+2
-0.179, -8.6218304e-9, -3.9227990e-9, 3.0733331e+2
-0.178, -8.6009813e-9, -3.8970773e-9, 3.0766666e+2
-0.177, -8.6883718e-9, -3.8719148e-9, 3.0800000e+2
-0.176, -8.6125640e-9, -3.8971568e-9, 3.0833334e+2
-0.175, -8.6136822e-9, -3.8456336e-9, 3.0866669e+2
-0.174, -8.6711971e-9, -3.8645656e-9, 3.0900003e+2
-0.173, -8.6432390e-9, -3.7802907e-9, 3.0933337e+2
-0.172, -8.6283007e-9, -3.8588142e-9, 3.0966672e+2
-0.171, -8.7020320e-9, -3.7828474e-9, 3.1000006e+2
-0.170, -8.6463539e-9, -3.7822079e-9, 3.1033340e+2
-0.169, -8.6398844e-9, -3.7162260e-9, 3.1066675e+2
-0.168, -8.6869338e-9, -3.7782937e-9, 3.1100009e+2
-0.167, -8.6636085e-9, -3.7322825e-9, 3.1133344e+2
-0.166, -8.6815817e-9, -3.7278092e-9, 3.1166678e+2
-0.165, -8.7132150e-9, -3.7087173e-9, 3.1200012e+2
-0.164, -8.7424512e-9, -3.6937795e-9, 3.1233347e+2
-0.163, -8.7405336e-9, -3.6970544e-9, 3.1266681e+2
-0.162, -8.7103391e-9, -3.6289161e-9, 3.1300015e+2
-0.161, -8.9299332e-9, -3.6575136e-9, 3.1333350e+2
-0.160, -8.7938954e-9, -3.6569543e-9, 3.1366684e+2
-0.159, -8.7788772e-9, -3.6216468e-9, 3.1400018e+2
-0.158, -9.0382519e-9, -3.6273182e-9, 3.1433353e+2
-0.157, -8.8005256e-9, -3.6116616e-9, 3.1466687e+2
-0.156, -8.8169809e-9, -3.6512029e-9, 3.1500021e+2
-0.155, -8.8630721e-9, -3.7004897e-9, 3.1533356e+2
-0.154, -8.7505194e-9, -3.6803596e-9, 3.1566690e+2
-0.153, -8.7783976e-9, -3.6651022e-9, 3.1600024e+2
-0.152, -8.8515693e-9, -3.7004897e-9, 3.1633359e+2
-0.151, -8.6981968e-9, -3.6772441e-9, 3.1666693e+2
-0.150, -9.0320205e-9, -3.6846732e-9, 3.1700027e+2
-0.149, -8.8635517e-9, -3.6426555e-9, 3.1733362e+2
-0.148, -9.0047019e-9, -3.6207679e-9, 3.1766696e+2
-0.147, -8.9873673e-9, -3.6322709e-9, 3.1800031e+2
-0.146, -8.9313703e-9, -3.6325907e-9, 3.1833365e+2
-0.145, -9.0429646e-9, -3.6047918e-9, 3.1866699e+2
-0.144, -9.0493550e-9, -3.6287562e-9, 3.1900034e+2
-0.143, -9.0880183e-9, -3.6143777e-9, 3.1933368e+2
-0.142, -9.1908250e-9, -3.5853807e-9, 3.1966702e+2
-0.141, -9.1027159e-9, -3.6033541e-9, 3.2000037e+2
-0.140, -9.1161354e-9, -3.5835435e-9, 3.2033371e+2
-0.139, -9.2018482e-9, -3.5270673e-9, 3.2066705e+2
-0.138, -9.1840349e-9, -3.5741172e-9, 3.2100040e+2
-0.137, -9.1730907e-9, -3.5777121e-9, 3.2133374e+2
-0.136, -9.1599111e-9, -3.5909724e-9, 3.2166708e+2
-0.135, -9.1360262e-9, -3.5699637e-9, 3.2200043e+2
-0.134, -9.1925827e-9, -3.5479963e-9, 3.2233377e+2
-0.133, -9.1717336e-9, -3.5749961e-9, 3.2266711e+2
-0.132, -9.2611998e-9, -3.5463188e-9, 3.2300046e+2
-0.131, -9.2339603e-9, -3.5308216e-9, 3.2333380e+2
-0.130, -9.2474606e-9, -3.5326588e-9, 3.2366714e+2
-0.129, -9.4739239e-9, -3.5360139e-9, 3.2400049e+2
-0.128, -9.2843662e-9, -3.5371324e-9, 3.2433383e+2
-0.127, -9.4111368e-9, -3.5302625e-9, 3.2466718e+2
-0.126, -9.4326253e-9, -3.5386503e-9, 3.2500052e+2
-0.125, -9.4820720e-9, -3.5120500e-9, 3.2533386e+2
-0.124, -9.3590540e-9, -3.5163634e-9, 3.2566721e+2
-0.123, -9.5965413e-9, -3.4885645e-9, 3.2600055e+2
-0.122, -9.5443795e-9, -3.4973513e-9, 3.2633389e+2
-0.121, -9.5353521e-9, -3.5125289e-9, 3.2666724e+2
-0.120, -9.6041299e-9, -3.5046208e-9, 3.2700058e+2
-0.119, -9.6128376e-9, -3.5072569e-9, 3.2733392e+2
-0.118, -9.6155537e-9, -3.4696326e-9, 3.2766727e+2
-0.117, -9.6013348e-9, -3.4649197e-9, 3.2800061e+2
-0.116, -9.7055795e-9, -3.4741059e-9, 3.2833395e+2
-0.115, -9.6761035e-9, -3.4463075e-9, 3.2866730e+2
-0.114, -9.7118900e-9, -3.4569316e-9, 3.2900064e+2
-0.113, -9.7409663e-9, -3.3726570e-9, 3.2933398e+2
-0.112, -9.6519788e-9, -3.4068461e-9, 3.2966733e+2
-0.111, -9.8416972e-9, -3.5107717e-9, 3.3000067e+2
-0.110, -1.0093324e-8, -3.4614049e-9, 3.3033401e+2
-0.109, -1.0027660e-8, -3.4745056e-9, 3.3066736e+2
-0.108, -1.0021430e-8, -3.4641210e-9, 3.3100070e+2
-0.107, -1.0069918e-8, -3.4279346e-9, 3.3133405e+2
-0.106, -1.0098755e-8, -3.4249790e-9, 3.3166739e+2
-0.105, -1.0088370e-8, -3.3993370e-9, 3.3200073e+2
-0.104, -1.0107143e-8, -3.4047694e-9, 3.3233408e+2
-0.103, -1.0177597e-8, -3.3422221e-9, 3.3266742e+2
-0.102, -1.0276091e-8, -3.3719381e-9, 3.3300076e+2
-0.101, -1.0208592e-8, -3.3528462e-9, 3.3333411e+2
-0.100, -1.0254124e-8, -3.3047580e-9, 3.3366745e+2
-0.099, -1.0289192e-8, -3.2957312e-9, 3.3400079e+2
-0.098, -1.0197248e-8, -3.3281633e-9, 3.3433414e+2
-0.097, -1.0593619e-8, -3.3377487e-9, 3.3466748e+2
-0.096, -1.0313076e-8, -3.2028296e-9, 3.3500082e+2
-0.095, -1.0619820e-8, -3.3538052e-9, 3.3533417e+2
-0.094, -1.0654808e-8, -3.2538734e-9, 3.3566751e+2
-0.093, -1.0628927e-8, -3.3262457e-9, 3.3600085e+2
-0.092, -1.0629086e-8, -3.2702492e-9, 3.3633420e+2
-0.091, -1.0787411e-8, -3.2172878e-9, 3.3666754e+2
-0.090, -1.0820163e-8, -3.2347818e-9, 3.3700089e+2
-0.089, -1.0887343e-8, -3.1815808e-9, 3.3733423e+2
-0.088, -1.1006206e-8, -3.2202434e-9, 3.3766757e+2
-0.087, -1.1015472e-8, -3.2167287e-9, 3.3800092e+2
-0.086, -1.1071628e-8, -3.2018710e-9, 3.3833426e+2
-0.085, -1.1124829e-8, -3.1651255e-9, 3.3866760e+2
-0.084, -1.1163971e-8, -3.1828591e-9, 3.3900095e+2
-0.083, -1.1194805e-8, -3.1760694e-9, 3.3933429e+2
-0.082, -1.1220527e-8, -3.1866134e-9, 3.3966763e+2
-0.081, -1.1356006e-8, -3.1779863e-9, 3.4000098e+2
-0.080, -1.1380210e-8, -3.2039478e-9, 3.4033432e+2
-0.079, -1.1474310e-8, -3.1983562e-9, 3.4066766e+2
-0.078, -1.1523277e-8, -3.1815011e-9, 3.4100101e+2
-0.077, -1.1562499e-8, -3.1836580e-9, 3.4133435e+2
-0.076, -1.1630878e-8, -3.1333327e-9, 3.4166769e+2
-0.075, -1.1777379e-8, -3.1306167e-9, 3.4200104e+2
-0.074, -1.1700374e-8, -3.1502676e-9, 3.4233438e+2
-0.073, -1.1862852e-8, -3.1672023e-9, 3.4266772e+2
-0.072, -1.1932988e-8, -3.1448357e-9, 3.4300107e+2
-0.071, -1.1979079e-8, -3.1763088e-9, 3.4333441e+2
-0.070, -1.2056085e-8, -3.1187146e-9, 3.4366776e+2
-0.069, -1.2108966e-8, -3.2042671e-9, 3.4400110e+2
-0.068, -1.2110005e-8, -3.1507470e-9, 3.4433444e+2
-0.067, -1.2229427e-8, -3.1064926e-9, 3.4466779e+2
-0.066, -1.2329758e-8, -3.0916347e-9, 3.4500113e+2
-0.065, -1.2539366e-8, -3.0945104e-9, 3.4533447e+2
-0.064, -1.2498148e-8, -3.1111258e-9, 3.4566782e+2
-0.063, -1.2535613e-8, -3.0998626e-9, 3.4600116e+2
-0.062, -1.2637620e-8, -3.0845253e-9, 3.4633450e+2
-0.061, -1.2650561e-8, -3.0858034e-9, 3.4666785e+2
-0.060, -1.2691539e-8, -3.0675107e-9, 3.4700119e+2
-0.059, -1.2979032e-8, -3.0619989e-9, 3.4733453e+2
-0.058, -1.2963216e-8, -3.0636764e-9, 3.4766788e+2
-0.057, -1.3036548e-8, -3.0785343e-9, 3.4800122e+2
-0.056, -1.3099973e-8, -3.0693479e-9, 3.4833456e+2
-0.055, -1.3110997e-8, -3.1026584e-9, 3.4866791e+2
-0.054, -1.3156609e-8, -3.1071317e-9, 3.4900125e+2
-0.053, -1.3138476e-8, -3.0733420e-9, 3.4933459e+2
-0.052, -1.3327075e-8, -3.0649543e-9, 3.4966794e+2
-0.051, -1.3348084e-8, -3.0853242e-9, 3.5000128e+2
-0.050, -1.3504171e-8, -3.1014602e-9, 3.5033463e+2
-0.049, -1.3527657e-8, -3.0668716e-9, 3.5066797e+2
-0.048, -1.3541237e-8, -3.0470610e-9, 3.5100131e+2
-0.047, -1.3641168e-8, -3.0179044e-9, 3.5133466e+2
-0.046, -1.3848141e-8, -3.0286085e-9, 3.5166800e+2
-0.045, -1.3804207e-8, -3.0136706e-9, 3.5200134e+2
-0.044, -1.3962292e-8, -3.0216587e-9, 3.5233469e+2
-0.043, -1.4042811e-8, -3.0203007e-9, 3.5266803e+2
-0.042, -1.4028911e-8, -3.0322829e-9, 3.5300137e+2
-0.041, -1.4101285e-8, -3.0028866e-9, 3.5333472e+2
-0.040, -1.4145058e-8, -3.0020080e-9, 3.5366806e+2
-0.039, -1.4209125e-8, -2.9946587e-9, 3.5400140e+2
-0.038, -1.4287648e-8, -3.0003304e-9, 3.5433475e+2
-0.037, -1.4391892e-8, -3.0131915e-9, 3.5466809e+2
-0.036, -1.4470976e-8, -2.9901854e-9, 3.5500143e+2
-0.035, -1.4510675e-8, -2.9851530e-9, 3.5533478e+2
-0.034, -1.4506123e-8, -2.9908245e-9, 3.5566812e+2
-0.033, -1.4601182e-8, -2.9762863e-9, 3.5600146e+2
-0.032, -1.4629379e-8, -2.9611089e-9, 3.5633481e+2
-0.031, -1.4637047e-8, -2.9570348e-9, 3.5666815e+2
-0.030, -1.4843381e-8, -2.9563159e-9, 3.5700150e+2
-0.029, -1.4802241e-8, -2.9313929e-9, 3.5733484e+2
-0.028, -1.4925737e-8, -2.9520824e-9, 3.5766818e+2
-0.027, -1.4956813e-8, -2.9162155e-9, 3.5800153e+2
-0.026, -1.4977662e-8, -2.9170142e-9, 3.5833487e+2
-0.025, -1.5034857e-8, -2.8747571e-9, 3.5866821e+2
-0.024, -1.5042685e-8, -2.9016771e-9, 3.5900156e+2
-0.023, -1.5078792e-8, -2.9165350e-9, 3.5933490e+2
-0.022, -1.5074317e-8, -2.9314728e-9, 3.5966824e+2
-0.021, -1.5101238e-8, -2.9385023e-9, 3.6000159e+2
-0.020, -1.5183915e-8, -2.8539082e-9, 3.6033493e+2
-0.019, -1.5234399e-8, -2.8666891e-9, 3.6066827e+2
-0.018, -1.5196855e-8, -2.8863398e-9, 3.6100162e+2
-0.017, -1.5399594e-8, -2.8516716e-9, 3.6133496e+2
-0.016, -1.5371477e-8, -2.8698046e-9, 3.6166830e+2
-0.015, -1.5384575e-8, -2.8106126e-9, 3.6200165e+2
-0.014, -1.5475960e-8, -2.7810565e-9, 3.6233499e+2
-0.013, -1.5457827e-8, -2.8014262e-9, 3.6266833e+2
-0.012, -1.5469251e-8, -2.7645211e-9, 3.6300168e+2
-0.011, -1.5508951e-8, -2.7456692e-9, 3.6333502e+2
-0.010, -1.5457109e-8, -2.8073375e-9, 3.6366837e+2
-0.009, -1.5493454e-8, -2.7911216e-9, 3.6400171e+2
-0.008, -1.5515422e-8, -2.7636424e-9, 3.6433505e+2
-0.007, -1.5504398e-8, -2.7342462e-9, 3.6466840e+2
-0.006, -1.5523890e-8, -2.7041309e-9, 3.6500174e+2
-0.005, -1.5522213e-8, -2.7110807e-9, 3.6533508e+2
-0.004, -1.5574534e-8, -2.7330478e-9, 3.6566843e+2
-0.003, -1.5520214e-8, -2.7875269e-9, 3.6600177e+2
-0.002, -1.5557760e-8, -2.7066871e-9, 3.6633511e+2
-0.001, -1.5645709e-8, -2.7098823e-9, 3.6666846e+2
-0.000, -1.5645387e-8, -2.6831222e-9, 3.6700180e+2
0.001, -1.5586117e-8, -2.6970213e-9, 3.6733514e+2
0.002, -1.5699706e-8, -2.6754534e-9, 3.6766849e+2
0.003, -1.5779110e-8, -2.6614744e-9, 3.6800183e+2
0.004, -1.5762495e-8, -2.6542051e-9, 3.6833517e+2
0.005, -1.5938713e-8, -2.6494122e-9, 3.6866852e+2
0.006, -1.5860030e-8, -2.6498117e-9, 3.6900186e+2
0.007, -1.5889825e-8, -2.6550837e-9, 3.6933521e+2
0.008, -1.5922577e-8, -2.6474152e-9, 3.6966855e+2
0.009, -1.5942547e-8, -2.6387081e-9, 3.7000189e+2
0.010, -1.6017077e-8, -2.6274449e-9, 3.7033524e+2
0.011, -1.5965632e-8, -2.6318383e-9, 3.7066858e+2
0.012, -1.6018593e-8, -2.6279241e-9, 3.7100192e+2
0.013, -1.6048389e-8, -2.6147438e-9, 3.7133527e+2
0.014, -1.6031773e-8, -2.6188975e-9, 3.7166861e+2
0.015, -1.6197289e-8, -2.6200160e-9, 3.7200195e+2
0.016, -1.6180753e-8, -2.6157023e-9, 3.7233530e+2
0.017, -1.6179396e-8, -2.6213740e-9, 3.7266864e+2
0.018, -1.6386606e-8, -2.6152231e-9, 3.7300198e+2
0.019, -1.6369910e-8, -2.6157823e-9, 3.7333533e+2
0.020, -1.6441405e-8, -2.6347140e-9, 3.7366867e+2
0.021, -1.6459298e-8, -2.6135456e-9, 3.7400201e+2
0.022, -1.6448595e-8, -2.6081135e-9, 3.7433536e+2
0.023, -1.6511541e-8, -2.5922171e-9, 3.7466870e+2
0.024, -1.6585911e-8, -2.6014835e-9, 3.7500204e+2
0.025, -1.6602286e-8, -2.6000455e-9, 3.7533539e+2
0.026, -1.6754539e-8, -2.5847882e-9, 3.7566873e+2
0.027, -1.6876120e-8, -2.6004450e-9, 3.7600208e+2
0.028, -1.6911267e-8, -2.5665754e-9, 3.7633542e+2
0.029, -1.6967183e-8, -2.5732056e-9, 3.7666876e+2
0.030, -1.6972376e-8, -2.5785576e-9, 3.7700211e+2
0.031, -1.7117920e-8, -2.5803948e-9, 3.7733545e+2
0.032, -1.7109532e-8, -2.5545930e-9, 3.7766879e+2
0.033, -1.7216093e-8, -2.5622617e-9, 3.7800214e+2
0.034, -1.7442318e-8, -2.5554718e-9, 3.7833548e+2
0.035, -1.7459572e-8, -2.5584275e-9, 3.7866882e+2
0.036, -1.7496557e-8, -2.5538742e-9, 3.7900217e+2
0.037, -1.7570446e-8, -2.5445281e-9, 3.7933551e+2
0.038, -1.7635630e-8, -2.5430904e-9, 3.7966885e+2
0.039, -1.7853626e-8, -2.5359808e-9, 3.8000220e+2
0.040, -1.7943092e-8, -2.5446081e-9, 3.8033554e+2
0.041, -1.8047738e-8, -2.5265550e-9, 3.8066888e+2
0.042, -1.8079771e-8, -2.5252767e-9, 3.8100223e+2
0.043, -1.8110363e-8, -2.5160105e-9, 3.8133557e+2
0.044, -1.8423659e-8, -2.5167295e-9, 3.8166891e+2
0.045, -1.8478616e-8, -2.4968390e-9, 3.8200226e+2
0.046, -1.8535012e-8, -2.5104987e-9, 3.8233560e+2
0.047, -1.8750614e-8, -2.4896498e-9, 3.8266895e+2
0.048, -1.8774976e-8, -2.5143330e-9, 3.8300229e+2
0.049, -1.8960780e-8, -2.4817415e-9, 3.8333563e+2
0.050, -1.9109279e-8, -2.5106586e-9, 3.8366898e+2
0.051, -1.9158087e-8, -2.4685611e-9, 3.8400232e+2
0.052, -1.9364979e-8, -2.4507476e-9, 3.8433566e+2
0.053, -1.9463791e-8, -2.4644871e-9, 3.8466901e+2
0.054, -1.9495184e-8, -2.4887712e-9, 3.8500235e+2
0.055, -1.9761350e-8, -2.4520257e-9, 3.8533569e+2
0.056, -1.9866553e-8, -2.4815017e-9, 3.8566904e+2
0.057, -1.9981023e-8, -2.4620908e-9, 3.8600238e+2
0.058, -2.0150051e-8, -2.4413216e-9, 3.8633572e+2
0.059, -2.0364054e-8, -2.4497091e-9, 3.8666907e+2
0.060, -2.0437863e-8, -2.4514664e-9, 3.8700241e+2
0.061, -2.0532603e-8, -2.4351707e-9, 3.8733575e+2
0.062, -2.0684777e-8, -2.4295790e-9, 3.8766910e+2
0.063, -2.0968914e-8, -2.3858839e-9, 3.8800244e+2
0.064, -2.1008695e-8, -2.3921147e-9, 3.8833578e+2
0.065, -2.1211914e-8, -2.4049756e-9, 3.8866913e+2
0.066, -2.1431106e-8, -2.4155200e-9, 3.8900247e+2
0.067, -2.1574333e-8, -2.3687095e-9, 3.8933582e+2
0.068, -2.1780188e-8, -2.3747007e-9, 3.8966916e+2
0.069, -2.1948498e-8, -2.3505764e-9, 3.9000250e+2
0.070, -2.2100512e-8, -2.3329227e-9, 3.9033585e+2
0.071, -2.2319947e-8, -2.3246949e-9, 3.9066919e+2
0.072, -2.2374424e-8, -2.3200619e-9, 3.9100253e+2
0.073, -2.2701139e-8, -2.3115945e-9, 3.9133588e+2
0.074, -2.2822638e-8, -2.2210891e-9, 3.9166922e+2
0.075, -2.2955481e-8, -2.2445741e-9, 3.9200256e+2
0.076, -2.3242892e-8, -2.2972957e-9, 3.9233591e+2
0.077, -2.3301048e-8, -2.2517632e-9, 3.9266925e+2
0.078, -2.3569447e-8, -2.2741302e-9, 3.9300259e+2
0.079, -2.3791278e-8, -2.2369055e-9, 3.9333594e+2
0.080, -2.3788322e-8, -2.2677396e-9, 3.9366928e+2
0.081, -2.4108807e-8, -2.2809201e-9, 3.9400262e+2
0.082, -2.4312264e-8, -2.2506450e-9, 3.9433597e+2
0.083, -2.4311065e-8, -2.2333109e-9, 3.9466931e+2
0.084, -2.4532177e-8, -2.2086275e-9, 3.9500266e+2
0.085, -2.4796742e-8, -2.2060713e-9, 3.9533600e+2
0.086, -2.4811442e-8, -2.2171747e-9, 3.9566934e+2
0.087, -2.4948598e-8, -2.2020772e-9, 3.9600269e+2
0.088, -2.5232255e-8, -2.1985624e-9, 3.9633603e+2
0.089, -2.5327713e-8, -2.1887372e-9, 3.9666937e+2
0.090, -2.5522066e-8, -2.1984825e-9, 3.9700272e+2
0.091, -2.5536442e-8, -2.1771542e-9, 3.9733606e+2
0.092, -2.5832803e-8, -2.1650122e-9, 3.9766940e+2
0.093, -2.6033383e-8, -2.1535893e-9, 3.9800275e+2
0.094, -2.6055911e-8, -2.1654118e-9, 3.9833609e+2
0.095, -2.6304740e-8, -2.1720419e-9, 3.9866943e+2
0.096, -2.6308737e-8, -2.1570243e-9, 3.9900278e+2
0.097, -2.6566031e-8, -2.1642135e-9, 3.9933612e+2
0.098, -2.6826605e-8, -2.1402491e-9, 3.9966946e+2
0.099, -2.6825088e-8, -2.1477580e-9, 4.0000281e+2
