Dec. 21, 2005   09:48:53
Cyclic Voltammetry
File: d:\ida_biofilms\12_10_18_dphzstar\a_760b\200um_pyo\a_200um_pyo_gc_5.txt
Data Source:  Experiment
Instrument Model:  CHI760E
Header: 
Note: 

Init E (V) = 0.1
High E (V) = 0.1
Low E (V) = -0.5
Init P/N = N
Scan Rate (V/s) = 0.003
Segment = 1
Sample Interval (V) = 0.001
Quiet Time (sec) = 2
Sensitivity (A/V) = 1e-7
2nd E (V) = 0.1
Sens 2 (A/V) = 1e-7

Potential/V, i1/A, i2/A, Time/s

0.100, -9.7697963e-8, -8.8893430e-8, 3.3333334e-1
0.099, -8.1087450e-8, -8.0688508e-8, 6.6666669e-1
0.098, -7.0840528e-8, -7.4130575e-8, 1.0000000e+0
0.097, -6.3198605e-8, -6.8740434e-8, 1.3333334e+0
0.096, -5.7085376e-8, -6.4191596e-8, 1.6666667e+0
0.095, -5.1991272e-8, -6.0274061e-8, 2.0000000e+0
0.094, -4.7610264e-8, -5.6878466e-8, 2.3333333e+0
0.093, -4.3983977e-8, -5.3794576e-8, 2.6666665e+0
0.092, -4.0701497e-8, -5.1030447e-8, 2.9999998e+0
0.091, -3.7724323e-8, -4.8474082e-8, 3.3333330e+0
0.090, -3.5319658e-8, -4.6213284e-8, 3.6666663e+0
0.089, -3.2904531e-8, -4.4082533e-8, 3.9999995e+0
0.088, -3.0847108e-8, -4.2174168e-8, 4.3333330e+0
0.087, -2.9019343e-8, -4.0383075e-8, 4.6666665e+0
0.086, -2.7324186e-8, -3.8785050e-8, 5.0000000e+0
0.085, -2.5778403e-8, -3.7279527e-8, 5.3333335e+0
0.084, -2.4349967e-8, -3.5955654e-8, 5.6666670e+0
0.083, -2.3043748e-8, -3.4646561e-8, 6.0000005e+0
0.082, -2.1925413e-8, -3.3491958e-8, 6.3333340e+0
0.081, -2.0635570e-8, -3.2434251e-8, 6.6666675e+0
0.080, -1.9716856e-8, -3.1459781e-8, 7.0000010e+0
0.079, -1.8732081e-8, -3.0540587e-8, 7.3333344e+0
0.078, -1.7763760e-8, -2.9660374e-8, 7.6666679e+0
0.077, -1.6964307e-8, -2.8846225e-8, 8.0000010e+0
0.076, -1.6088569e-8, -2.8059475e-8, 8.3333340e+0
0.075, -1.5194379e-8, -2.7210897e-8, 8.6666670e+0
0.074, -1.4602299e-8, -2.6602041e-8, 9.0000000e+0
0.073, -1.3921471e-8, -2.6019389e-8, 9.3333330e+0
0.072, -1.3171945e-8, -2.5386489e-8, 9.6666660e+0
0.071, -1.2602232e-8, -2.4812383e-8, 9.9999990e+0
0.070, -1.2020219e-8, -2.4305455e-8, 1.0333332e+1
0.069, -1.1430775e-8, -2.3768175e-8, 1.0666665e+1
0.068, -1.0849159e-8, -2.3293122e-8, 1.0999998e+1
0.067, -1.0345828e-8, -2.2862482e-8, 1.1333331e+1
0.066, -9.8011173e-9, -2.2517394e-8, 1.1666664e+1
0.065, -9.2948307e-9, -2.2079885e-8, 1.1999997e+1
0.064, -8.9852898e-9, -2.1665860e-8, 1.2333330e+1
0.063, -8.5564080e-9, -2.1252633e-8, 1.2666663e+1
0.062, -7.9668050e-9, -2.0913619e-8, 1.2999996e+1
0.061, -7.5832949e-9, -2.0602162e-8, 1.3333329e+1
0.060, -7.2730355e-9, -2.0242855e-8, 1.3666662e+1
0.059, -6.7661898e-9, -1.9891379e-8, 1.3999995e+1
0.058, -6.4328449e-9, -1.9661082e-8, 1.4333328e+1
0.057, -6.0907936e-9, -1.9277492e-8, 1.4666661e+1
0.056, -5.7358012e-9, -1.9050310e-8, 1.4999994e+1
0.055, -5.4724327e-9, -1.8741328e-8, 1.5333327e+1
0.054, -5.2105027e-9, -1.8494815e-8, 1.5666660e+1
0.053, -4.8644568e-9, -1.8246624e-8, 1.5999993e+1
0.052, -4.5693755e-9, -1.7988448e-8, 1.6333326e+1
0.051, -4.2269246e-9, -1.7765100e-8, 1.6666660e+1
0.050, -4.0828185e-9, -1.7528013e-8, 1.6999994e+1
0.049, -3.7005070e-9, -1.7287409e-8, 1.7333328e+1
0.048, -3.3844174e-9, -1.7142666e-8, 1.7666662e+1
0.047, -3.2379150e-9, -1.6883211e-8, 1.7999996e+1
0.046, -2.7797962e-9, -1.6668649e-8, 1.8333330e+1
0.045, -2.7637399e-9, -1.6511123e-8, 1.8666664e+1
0.044, -2.5214602e-9, -1.6320447e-8, 1.8999998e+1
0.043, -2.1925890e-9, -1.6174024e-8, 1.9333332e+1
0.042, -1.9216320e-9, -1.5935500e-8, 1.9666666e+1
0.041, -1.7823192e-9, -1.5801140e-8, 2.0000000e+1
0.040, -1.5961159e-9, -1.5661428e-8, 2.0333334e+1
0.039, -1.2837004e-9, -1.5428254e-8, 2.0666668e+1
0.038, -1.1885618e-9, -1.5314264e-8, 2.1000002e+1
0.037, -9.3701580e-10, -1.5227352e-8, 2.1333336e+1
0.036, -7.6159656e-10, -1.5065833e-8, 2.1666670e+1
0.035, -6.0870392e-10, -1.4877393e-8, 2.2000004e+1
0.034, -3.7081760e-10, -1.4759808e-8, 2.2333338e+1
0.033, -2.8350738e-10, -1.4651569e-8, 2.2666672e+1
0.032, -1.1999049e-10, -1.4451866e-8, 2.3000006e+1
0.031, 1.4201998e-10, -1.4349378e-8, 2.3333340e+1
0.030, 2.2741303e-10, -1.4256155e-8, 2.3666674e+1
0.029, 3.1240666e-10, -1.4073228e-8, 2.4000008e+1
0.028, 6.1291988e-10, -1.3935353e-8, 2.4333342e+1
0.027, 7.5151380e-10, -1.3853076e-8, 2.4666676e+1
0.026, 7.7060547e-10, -1.3798118e-8, 2.5000010e+1
0.025, 1.0322165e-9, -1.3671425e-8, 2.5333344e+1
0.024, 1.1594673e-9, -1.3500959e-8, 2.5666677e+1
0.023, 1.1912600e-9, -1.3387368e-8, 2.6000011e+1
0.022, 1.3834542e-9, -1.3339520e-8, 2.6333345e+1
0.021, 1.5371457e-9, -1.3271460e-8, 2.6666679e+1
0.020, 1.6733435e-9, -1.3137979e-8, 2.7000013e+1
0.019, 1.7013816e-9, -1.2950976e-8, 2.7333347e+1
0.018, 1.7961208e-9, -1.2904087e-8, 2.7666681e+1
0.017, 2.0591697e-9, -1.2835788e-8, 2.8000015e+1
0.016, 2.1339386e-9, -1.2785703e-8, 2.8333349e+1
0.015, 2.1605389e-9, -1.2681857e-8, 2.8666683e+1
0.014, 2.4819813e-9, -1.2481834e-8, 2.9000017e+1
0.013, 2.5048270e-9, -1.2447645e-8, 2.9333351e+1
0.012, 2.6089924e-9, -1.2395163e-8, 2.9666685e+1
0.011, 2.7526985e-9, -1.2344120e-8, 3.0000019e+1
0.010, 2.7245006e-9, -1.2276619e-8, 3.0333353e+1
0.009, 2.9754075e-9, -1.2187073e-8, 3.0666687e+1
0.008, 3.0746199e-9, -1.2105754e-8, 3.1000021e+1
0.007, 3.0926732e-9, -1.1947908e-8, 3.1333355e+1
0.006, 3.1422793e-9, -1.1903814e-8, 3.1666689e+1
0.005, 3.1946816e-9, -1.1839269e-8, 3.2000023e+1
0.004, 3.4139556e-9, -1.1786867e-8, 3.2333355e+1
0.003, 3.5246708e-9, -1.1715214e-8, 3.2666687e+1
0.002, 3.5801087e-9, -1.1606256e-8, 3.3000019e+1
0.001, 3.6670194e-9, -1.1521342e-8, 3.3333351e+1
-0.000, 3.6999304e-9, -1.1485874e-8, 3.3666683e+1
-0.001, 3.7703058e-9, -1.1411026e-8, 3.4000015e+1
-0.002, 4.0654671e-9, -1.1374760e-8, 3.4333347e+1
-0.003, 4.0423811e-9, -1.1328030e-8, 3.4666679e+1
-0.004, 4.1091623e-9, -1.1286412e-8, 3.5000011e+1
-0.005, 4.2451198e-9, -1.1147098e-8, 3.5333344e+1
-0.006, 4.2114099e-9, -1.1140149e-8, 3.5666676e+1
-0.007, 4.4862816e-9, -1.1108676e-8, 3.6000008e+1
-0.008, 4.5722337e-9, -1.0971040e-8, 3.6333340e+1
-0.009, 4.5614494e-9, -1.0930781e-8, 3.6666672e+1
-0.010, 4.6231179e-9, -1.0900505e-8, 3.7000004e+1
-0.011, 4.6514756e-9, -1.0866636e-8, 3.7333336e+1
-0.012, 4.8084425e-9, -1.0855293e-8, 3.7666668e+1
-0.013, 4.9356133e-9, -1.0824459e-8, 3.8000000e+1
-0.014, 4.8979092e-9, -1.0777328e-8, 3.8333332e+1
-0.015, 5.0852305e-9, -1.0733634e-8, 3.8666664e+1
-0.016, 5.0850710e-9, -1.0642409e-8, 3.8999996e+1
-0.017, 5.1045621e-9, -1.0553741e-8, 3.9333328e+1
-0.018, 5.3524336e-9, -1.0505732e-8, 3.9666660e+1
-0.019, 5.3006706e-9, -1.0478493e-8, 3.9999992e+1
-0.020, 5.3970073e-9, -1.0425452e-8, 4.0333324e+1
-0.021, 5.5709890e-9, -1.0404922e-8, 4.0666656e+1
-0.022, 5.5526161e-9, -1.0367058e-8, 4.0999989e+1
-0.023, 5.5919176e-9, -1.0360988e-8, 4.1333321e+1
-0.024, 5.5938347e-9, -1.0326478e-8, 4.1666653e+1
-0.025, 5.6301808e-9, -1.0274716e-8, 4.1999985e+1
-0.026, 5.8501737e-9, -1.0267207e-8, 4.2333317e+1
-0.027, 5.8796497e-9, -1.0140995e-8, 4.2666649e+1
-0.028, 5.9718328e-9, -1.0101693e-8, 4.2999981e+1
-0.029, 6.0009095e-9, -1.0036989e-8, 4.3333313e+1
-0.030, 6.0153678e-9, -1.0019655e-8, 4.3666645e+1
-0.031, 6.0926131e-9, -9.9735633e-9, 4.3999977e+1
-0.032, 6.1618701e-9, -9.9483204e-9, 4.4333309e+1
-0.033, 6.0856635e-9, -9.9139719e-9, 4.4666641e+1
-0.034, 6.3641297e-9, -9.8986348e-9, 4.4999973e+1
-0.035, 6.3147629e-9, -9.8559783e-9, 4.5333305e+1
-0.036, 6.4550343e-9, -9.8276196e-9, 4.5666637e+1
-0.037, 6.5337176e-9, -9.7831263e-9, 4.5999969e+1
-0.038, 6.5238916e-9, -9.7631556e-9, 4.6333302e+1
-0.039, 6.5421850e-9, -9.6886268e-9, 4.6666634e+1
-0.040, 6.6330896e-9, -9.6597894e-9, 4.6999966e+1
-0.041, 6.6304535e-9, -9.5745563e-9, 4.7333298e+1
-0.042, 6.6386017e-9, -9.5474766e-9, 4.7666630e+1
-0.043, 6.6711130e-9, -9.5064978e-9, 4.7999962e+1
-0.044, 6.7461214e-9, -9.4875654e-9, 4.8333294e+1
-0.045, 6.8235262e-9, -9.4768611e-9, 4.8666626e+1
-0.046, 6.8593935e-9, -9.4516190e-9, 4.8999958e+1
-0.047, 6.9401533e-9, -9.4374801e-9, 4.9333290e+1
-0.048, 6.9995045e-9, -9.4159924e-9, 4.9666622e+1
-0.049, 6.9951915e-9, -9.4147143e-9, 4.9999954e+1
-0.050, 7.0872144e-9, -9.3629513e-9, 5.0333286e+1
-0.051, 7.0364901e-9, -9.3417025e-9, 5.0666618e+1
-0.052, 7.0642883e-9, -9.3010435e-9, 5.0999950e+1
-0.053, 7.1511197e-9, -9.2807531e-9, 5.1333282e+1
-0.054, 7.0672437e-9, -9.2435286e-9, 5.1666615e+1
-0.055, 7.2034418e-9, -9.2313064e-9, 5.1999947e+1
-0.056, 7.3464288e-9, -9.0913552e-9, 5.2333279e+1
-0.057, 7.2561628e-9, -9.1030969e-9, 5.2666611e+1
-0.058, 7.3857307e-9, -9.1042152e-9, 5.2999943e+1
-0.059, 7.3629649e-9, -9.0282484e-9, 5.3333275e+1
-0.060, 7.4468396e-9, -9.0120329e-9, 5.3666607e+1
-0.061, 7.4467601e-9, -8.9932604e-9, 5.3999939e+1
-0.062, 7.4948483e-9, -8.9984526e-9, 5.4333271e+1
-0.063, 7.5205699e-9, -8.9612282e-9, 5.4666603e+1
-0.064, 7.5217690e-9, -8.9560359e-9, 5.4999935e+1
-0.065, 7.5200113e-9, -8.9271985e-9, 5.5333267e+1
-0.066, 7.5545996e-9, -8.8858201e-9, 5.5666599e+1
-0.067, 7.5490076e-9, -8.8833438e-9, 5.5999931e+1
-0.068, 7.5497271e-9, -8.8678469e-9, 5.6333263e+1
-0.069, 7.7236280e-9, -8.8492351e-9, 5.6666595e+1
-0.070, 7.5721731e-9, -8.8211962e-9, 5.6999928e+1
-0.071, 7.6019688e-9, -8.8234327e-9, 5.7333260e+1
-0.072, 7.7423206e-9, -8.7951548e-9, 5.7666592e+1
-0.073, 7.6919955e-9, -8.6923482e-9, 5.7999924e+1
-0.074, 7.7931253e-9, -8.7073655e-9, 5.8333256e+1
-0.075, 7.8198852e-9, -8.6298808e-9, 5.8666588e+1
-0.076, 7.8976097e-9, -8.6259666e-9, 5.8999920e+1
-0.077, 7.9587990e-9, -8.5981684e-9, 5.9333252e+1
-0.078, 7.8850677e-9, -8.5750020e-9, 5.9666584e+1
-0.079, 8.0008169e-9, -8.5484020e-9, 5.9999916e+1
-0.080, 7.9408249e-9, -8.5317868e-9, 6.0333248e+1
-0.081, 7.9492928e-9, -8.4990353e-9, 6.0666580e+1
-0.082, 8.0289340e-9, -8.4993550e-9, 6.0999912e+1
-0.083, 8.0134379e-9, -8.4893701e-9, 6.1333244e+1
-0.084, 7.9967428e-9, -8.4689198e-9, 6.1666576e+1
-0.085, 8.0669578e-9, -8.4575777e-9, 6.1999908e+1
-0.086, 8.0326883e-9, -8.4584562e-9, 6.2333241e+1
-0.087, 8.0580111e-9, -8.4345713e-9, 6.2666573e+1
-0.088, 8.0784606e-9, -8.4161984e-9, 6.2999905e+1
-0.089, 8.0665581e-9, -8.4034175e-9, 6.3333237e+1
-0.090, 8.0894846e-9, -8.4012610e-9, 6.3666569e+1
-0.091, 8.1379721e-9, -8.3868823e-9, 6.3999901e+1
-0.092, 8.1832647e-9, -8.3712255e-9, 6.4333237e+1
-0.093, 8.2233651e-9, -8.3728233e-9, 6.4666573e+1
-0.094, 8.3053235e-9, -8.3574054e-9, 6.4999908e+1
-0.095, 8.3467819e-9, -8.3198612e-9, 6.5333244e+1
-0.096, 8.3649150e-9, -8.3182643e-9, 6.5666580e+1
-0.097, 8.3241751e-9, -8.2649034e-9, 6.5999916e+1
-0.098, 8.4328935e-9, -8.2719334e-9, 6.6333252e+1
-0.099, 8.4404830e-9, -8.1910132e-9, 6.6666588e+1
-0.100, 8.3967073e-9, -8.2251228e-9, 6.6999924e+1
-0.101, 8.5203640e-9, -8.1605789e-9, 6.7333260e+1
-0.102, 8.4702787e-9, -8.1513916e-9, 6.7666595e+1
-0.103, 8.5163698e-9, -8.1583416e-9, 6.7999931e+1
-0.104, 8.5434495e-9, -8.1020257e-9, 6.8333267e+1
-0.105, 8.5138936e-9, -8.0651201e-9, 6.8666603e+1
-0.106, 8.5308285e-9, -8.0736680e-9, 6.8999939e+1
-0.107, 8.5352214e-9, -8.0623250e-9, 6.9333275e+1
-0.108, 8.5309084e-9, -8.0104012e-9, 6.9666611e+1
-0.109, 8.5475236e-9, -8.0632034e-9, 6.9999947e+1
-0.110, 8.5824308e-9, -8.0376417e-9, 7.0333282e+1
-0.111, 8.6902707e-9, -8.0075262e-9, 7.0666618e+1
-0.112, 8.5851477e-9, -8.0099225e-9, 7.0999954e+1
-0.113, 8.6599163e-9, -8.0062481e-9, 7.1333290e+1
-0.114, 8.7444310e-9, -8.0044904e-9, 7.1666626e+1
-0.115, 8.7071266e-9, -8.0016953e-9, 7.1999962e+1
-0.116, 8.6948244e-9, -7.9834024e-9, 7.2333298e+1
-0.117, 8.8489154e-9, -7.9623135e-9, 7.2666634e+1
-0.118, 8.8152055e-9, -7.9608755e-9, 7.2999969e+1
-0.119, 8.9084269e-9, -7.9488141e-9, 7.3333305e+1
-0.120, 8.8825454e-9, -7.9464169e-9, 7.3666641e+1
-0.121, 8.8708028e-9, -7.9037612e-9, 7.3999977e+1
-0.122, 8.9642640e-9, -7.9253288e-9, 7.4333313e+1
-0.123, 8.9706544e-9, -7.9056779e-9, 7.4666649e+1
-0.124, 8.9655421e-9, -7.8907405e-9, 7.4999985e+1
-0.125, 8.9894270e-9, -7.9158227e-9, 7.5333321e+1
-0.126, 8.9887875e-9, -7.9004057e-9, 7.5666656e+1
-0.127, 9.0396721e-9, -7.8941751e-9, 7.5999992e+1
-0.128, 9.0259320e-9, -7.8696516e-9, 7.6333328e+1
-0.129, 9.0196215e-9, -7.9012841e-9, 7.6666664e+1
-0.130, 9.1420791e-9, -7.8424121e-9, 7.7000000e+1
-0.131, 9.0560475e-9, -7.8569506e-9, 7.7333336e+1
-0.132, 9.0464614e-9, -7.8270741e-9, 7.7666672e+1
-0.133, 9.2480814e-9, -7.8563911e-9, 7.8000008e+1
-0.134, 9.1712362e-9, -7.7852169e-9, 7.8333344e+1
-0.135, 9.2384962e-9, -7.7286613e-9, 7.8666679e+1
-0.136, 9.3000052e-9, -7.8129352e-9, 7.9000015e+1
-0.137, 9.2666141e-9, -7.7626101e-9, 7.9333351e+1
-0.138, 9.3371497e-9, -7.7586968e-9, 7.9666687e+1
-0.139, 9.2514369e-9, -7.6752995e-9, 8.0000023e+1
-0.140, 9.3709396e-9, -7.6860038e-9, 8.0333359e+1
-0.141, 9.3710986e-9, -7.6836084e-9, 8.0666695e+1
-0.142, 9.3827612e-9, -7.6544513e-9, 8.1000031e+1
-0.143, 9.4630419e-9, -7.6062028e-9, 8.1333366e+1
-0.144, 9.4637613e-9, -7.5696169e-9, 8.1666702e+1
-0.145, 9.4584092e-9, -7.6029281e-9, 8.2000038e+1
-0.146, 9.4949151e-9, -7.5873512e-9, 8.2333374e+1
-0.147, 9.5116901e-9, -7.5683397e-9, 8.2666710e+1
-0.148, 9.5125685e-9, -7.5853537e-9, 8.3000046e+1
-0.149, 9.5633732e-9, -7.5750490e-9, 8.3333382e+1
-0.150, 9.5359738e-9, -7.5861530e-9, 8.3666718e+1
-0.151, 9.5588994e-9, -7.5579552e-9, 8.4000053e+1
-0.152, 9.7177830e-9, -7.5432558e-9, 8.4333389e+1
-0.153, 9.6016359e-9, -7.5397422e-9, 8.4666725e+1
-0.154, 9.7369552e-9, -7.5563573e-9, 8.5000061e+1
-0.155, 9.8271409e-9, -7.5827975e-9, 8.5333397e+1
-0.156, 9.9128536e-9, -7.5573157e-9, 8.5666733e+1
-0.157, 9.8510249e-9, -7.5450135e-9, 8.6000069e+1
-0.158, 9.9054249e-9, -7.5391826e-9, 8.6333405e+1
-0.159, 9.9372173e-9, -7.5402209e-9, 8.6666740e+1
-0.160, 9.9513562e-9, -7.5199313e-9, 8.7000076e+1
-0.161, 9.9476818e-9, -7.5236057e-9, 8.7333412e+1
-0.162, 1.0078208e-8, -7.5163369e-9, 8.7666748e+1
-0.163, 9.9999244e-9, -7.5133011e-9, 8.8000084e+1
-0.164, 1.0053604e-8, -7.5387030e-9, 8.8333420e+1
-0.165, 1.0201465e-8, -7.5091471e-9, 8.8666756e+1
-0.166, 1.0147065e-8, -7.5132212e-9, 8.9000092e+1
-0.167, 1.0220077e-8, -7.5130613e-9, 8.9333427e+1
-0.168, 1.0315455e-8, -7.4998816e-9, 8.9666763e+1
-0.169, 1.0324481e-8, -7.4970057e-9, 9.0000099e+1
-0.170, 1.0348526e-8, -7.5068307e-9, 9.0333435e+1
-0.171, 1.0446620e-8, -7.4907742e-9, 9.0666771e+1
-0.172, 1.0408517e-8, -7.4717628e-9, 9.1000107e+1
-0.173, 1.0476336e-8, -7.4558661e-9, 9.1333443e+1
-0.174, 1.0445821e-8, -7.4623365e-9, 9.1666779e+1
-0.175, 1.0521709e-8, -7.4360558e-9, 9.2000114e+1
-0.176, 1.0524744e-8, -7.4749584e-9, 9.2333450e+1
-0.177, 1.0544075e-8, -7.4478783e-9, 9.2666786e+1
-0.178, 1.0686663e-8, -7.4715230e-9, 9.3000122e+1
-0.179, 1.0678915e-8, -7.4454816e-9, 9.3333458e+1
-0.180, 1.0700163e-8, -7.4557862e-9, 9.3666794e+1
-0.181, 1.0834124e-8, -7.4441240e-9, 9.4000130e+1
-0.182, 1.0801373e-8, -7.4285471e-9, 9.4333466e+1
-0.183, 1.0811277e-8, -7.4467601e-9, 9.4666801e+1
-0.184, 1.0935493e-8, -7.4220763e-9, 9.5000137e+1
-0.185, 1.0933417e-8, -7.4189610e-9, 9.5333473e+1
-0.186, 1.0964490e-8, -7.4338189e-9, 9.5666809e+1
-0.187, 1.0989413e-8, -7.4284672e-9, 9.6000145e+1
-0.188, 1.1005469e-8, -7.4089761e-9, 9.6333481e+1
-0.189, 1.1018090e-8, -7.4080977e-9, 9.6666817e+1
-0.190, 1.1027597e-8, -7.4117721e-9, 9.7000153e+1
-0.191, 1.1318764e-8, -7.4023454e-9, 9.7333488e+1
-0.192, 1.1181847e-8, -7.4176030e-9, 9.7666824e+1
-0.193, 1.1269237e-8, -7.3981918e-9, 9.8000160e+1
-0.194, 1.1388980e-8, -7.3834943e-9, 9.8333496e+1
-0.195, 1.1393852e-8, -7.3783815e-9, 9.8666832e+1
-0.196, 1.1407671e-8, -7.4086564e-9, 9.9000168e+1
-0.197, 1.1458236e-8, -7.4144082e-9, 9.9333504e+1
-0.198, 1.1509520e-8, -7.4064195e-9, 9.9666840e+1
-0.199, 1.1581733e-8, -7.4162454e-9, 1.0000018e+2
-0.200, 1.1661454e-8, -7.4005886e-9, 1.0033351e+2
-0.201, 1.1615203e-8, -7.4233548e-9, 1.0066685e+2
-0.202, 1.1825530e-8, -7.4573840e-9, 1.0100018e+2
-0.203, 1.1891832e-8, -7.4496360e-9, 1.0133352e+2
-0.204, 1.1936964e-8, -7.4043429e-9, 1.0166685e+2
-0.205, 1.1702912e-8, -7.3985911e-9, 1.0200019e+2
-0.206, 1.1902056e-8, -7.4018667e-9, 1.0233353e+2
-0.207, 1.1983055e-8, -7.4310238e-9, 1.0266686e+2
-0.208, 1.2075718e-8, -7.4043429e-9, 1.0300020e+2
-0.209, 1.2113262e-8, -7.4094557e-9, 1.0333353e+2
-0.210, 1.2352507e-8, -7.4730409e-9, 1.0366687e+2
-0.211, 1.2391409e-8, -7.4174435e-9, 1.0400021e+2
-0.212, 1.2408663e-8, -7.4442039e-9, 1.0433354e+2
-0.213, 1.2456991e-8, -7.4424462e-9, 1.0466688e+2
-0.214, 1.2463222e-8, -7.4186417e-9, 1.0500021e+2
-0.215, 1.2619789e-8, -7.4560260e-9, 1.0533355e+2
-0.216, 1.2674348e-8, -7.4715230e-9, 1.0566689e+2
-0.217, 1.2828998e-8, -7.4541093e-9, 1.0600022e+2
-0.218, 1.2868619e-8, -7.5324724e-9, 1.0633356e+2
-0.219, 1.2941311e-8, -7.5387030e-9, 1.0666689e+2
-0.220, 1.2975340e-8, -7.4859816e-9, 1.0700023e+2
-0.221, 1.3148443e-8, -7.5482092e-9, 1.0733356e+2
-0.222, 1.3221215e-8, -7.6137914e-9, 1.0766690e+2
-0.223, 1.3404462e-8, -7.5785636e-9, 1.0800024e+2
-0.224, 1.3441208e-8, -7.7415212e-9, 1.0833357e+2
-0.225, 1.3420439e-8, -7.6065225e-9, 1.0866691e+2
-0.226, 1.3569736e-8, -7.8293105e-9, 1.0900024e+2
-0.227, 1.3804348e-8, -7.5716144e-9, 1.0933358e+2
-0.228, 1.3590586e-8, -7.5177748e-9, 1.0966692e+2
-0.229, 1.3878079e-8, -7.7338536e-9, 1.1000025e+2
-0.230, 1.3909951e-8, -7.7531848e-9, 1.1033359e+2
-0.231, 1.4200319e-8, -7.6973476e-9, 1.1066692e+2
-0.232, 1.4042235e-8, -7.6492590e-9, 1.1100026e+2
-0.233, 1.4365994e-8, -7.9079143e-9, 1.1133360e+2
-0.234, 1.4457937e-8, -7.9331572e-9, 1.1166693e+2
-0.235, 1.4530788e-8, -7.9403462e-9, 1.1200027e+2
-0.236, 1.4802624e-8, -8.0953955e-9, 1.1233360e+2
-0.237, 1.4853588e-8, -8.0749460e-9, 1.1266694e+2
-0.238, 1.5017026e-8, -8.1259106e-9, 1.1300027e+2
-0.239, 1.5099463e-8, -8.2371052e-9, 1.1333361e+2
-0.240, 1.5304279e-8, -8.2525213e-9, 1.1366695e+2
-0.241, 1.5376811e-8, -8.3508560e-9, 1.1400028e+2
-0.242, 1.5468594e-8, -8.4320950e-9, 1.1433362e+2
-0.243, 1.5721897e-8, -8.4196339e-9, 1.1466695e+2
-0.244, 1.5787800e-8, -8.4668432e-9, 1.1500029e+2
-0.245, 1.5882298e-8, -8.5576684e-9, 1.1533363e+2
-0.246, 1.6192399e-8, -8.6840410e-9, 1.1566696e+2
-0.247, 1.6242003e-8, -8.8108925e-9, 1.1600030e+2
-0.248, 1.6443224e-8, -8.7295726e-9, 1.1633363e+2
-0.249, 1.6406480e-8, -8.9323908e-9, 1.1666697e+2
-0.250, 1.6732315e-8, -8.9731307e-9, 1.1700031e+2
-0.251, 1.6840394e-8, -9.0512549e-9, 1.1733364e+2
-0.252, 1.6861723e-8, -9.0507752e-9, 1.1766698e+2
-0.253, 1.7161597e-8, -9.2098986e-9, 1.1800031e+2
-0.254, 1.7227338e-8, -9.3027204e-9, 1.1833365e+2
-0.255, 1.7342687e-8, -9.3928261e-9, 1.1866698e+2
-0.256, 1.7370645e-8, -9.3750128e-9, 1.1900032e+2
-0.257, 1.7495740e-8, -9.4609653e-9, 1.1933366e+2
-0.258, 1.7767896e-8, -9.5125685e-9, 1.1966699e+2
-0.259, 1.7806158e-8, -9.5215951e-9, 1.2000033e+2
-0.260, 1.7826208e-8, -9.6903836e-9, 1.2033366e+2
-0.261, 1.8087819e-8, -9.7876001e-9, 1.2066700e+2
-0.262, 1.8114340e-8, -9.8971169e-9, 1.2100034e+2
-0.263, 1.8292155e-8, -9.9503978e-9, 1.2133367e+2
-0.264, 1.8326185e-8, -9.9812318e-9, 1.2166701e+2
-0.265, 1.8406306e-8, -1.0039545e-8, 1.2200034e+2
-0.266, 1.8607206e-8, -1.0152098e-8, 1.2233368e+2
-0.267, 1.8714170e-8, -1.0270881e-8, 1.2266702e+2
-0.268, 1.8741487e-8, -1.0350683e-8, 1.2300035e+2
-0.269, 1.8803316e-8, -1.0395096e-8, 1.2333369e+2
-0.270, 1.8837666e-8, -1.0416664e-8, 1.2366702e+2
-0.271, 1.8918984e-8, -1.0475537e-8, 1.2400036e+2
-0.272, 1.9081302e-8, -1.0482806e-8, 1.2433369e+2
-0.273, 1.8999984e-8, -1.0620521e-8, 1.2466703e+2
-0.274, 1.9265029e-8, -1.0707272e-8, 1.2500037e+2
-0.275, 1.9222853e-8, -1.0794982e-8, 1.2533370e+2
-0.276, 1.9300577e-8, -1.0835722e-8, 1.2566704e+2
-0.277, 1.9362165e-8, -1.0861283e-8, 1.2600037e+2
-0.278, 1.9368477e-8, -1.0902662e-8, 1.2633371e+2
-0.279, 1.9349464e-8, -1.0921514e-8, 1.2666705e+2
-0.280, 1.9399151e-8, -1.0893875e-8, 1.2700038e+2
-0.281, 1.9408736e-8, -1.0957780e-8, 1.2733372e+2
-0.282, 1.9479991e-8, -1.0985739e-8, 1.2766705e+2
-0.283, 1.9620101e-8, -1.1104282e-8, 1.2800038e+2
-0.284, 1.9703577e-8, -1.1090303e-8, 1.2833371e+2
-0.285, 1.9725785e-8, -1.1138072e-8, 1.2866704e+2
-0.286, 1.9737127e-8, -1.1311255e-8, 1.2900037e+2
-0.287, 1.9778906e-8, -1.1288968e-8, 1.2933369e+2
-0.288, 1.9785775e-8, -1.1323396e-8, 1.2966702e+2
-0.289, 1.9790090e-8, -1.1359663e-8, 1.3000035e+2
-0.290, 1.9861583e-8, -1.1293521e-8, 1.3033368e+2
-0.291, 1.9774271e-8, -1.1371885e-8, 1.3066701e+2
-0.292, 1.9788651e-8, -1.1379952e-8, 1.3100034e+2
-0.293, 1.9963990e-8, -1.1400801e-8, 1.3133366e+2
-0.294, 1.9836660e-8, -1.1451286e-8, 1.3166699e+2
-0.295, 1.9992028e-8, -1.1449290e-8, 1.3200032e+2
-0.296, 2.0024860e-8, -1.1441061e-8, 1.3233365e+2
-0.297, 1.9989951e-8, -1.1464467e-8, 1.3266698e+2
-0.298, 2.0067676e-8, -1.1473413e-8, 1.3300031e+2
-0.299, 1.9957360e-8, -1.1670720e-8, 1.3333363e+2
-0.300, 2.0134697e-8, -1.1541392e-8, 1.3366696e+2
-0.301, 2.0202595e-8, -1.1613126e-8, 1.3400029e+2
-0.302, 2.0052019e-8, -1.1530848e-8, 1.3433362e+2
-0.303, 2.0192051e-8, -1.1756352e-8, 1.3466695e+2
-0.304, 2.0246929e-8, -1.1716492e-8, 1.3500027e+2
-0.305, 2.0182705e-8, -1.1658498e-8, 1.3533360e+2
-0.306, 2.0237504e-8, -1.1818980e-8, 1.3566693e+2
-0.307, 2.0271614e-8, -1.1832559e-8, 1.3600026e+2
-0.308, 2.0318504e-8, -1.1829284e-8, 1.3633359e+2
-0.309, 2.0356207e-8, -1.1808035e-8, 1.3666692e+2
-0.310, 2.0285592e-8, -1.1809873e-8, 1.3700024e+2
-0.311, 2.0279520e-8, -1.1830482e-8, 1.3733357e+2
-0.312, 2.0300210e-8, -1.1833518e-8, 1.3766690e+2
-0.313, 2.0337275e-8, -1.1899260e-8, 1.3800023e+2
-0.314, 2.0455820e-8, -1.1885680e-8, 1.3833356e+2
-0.315, 2.0497277e-8, -1.1919391e-8, 1.3866689e+2
-0.316, 2.0526036e-8, -1.1928736e-8, 1.3900021e+2
-0.317, 2.0541531e-8, -1.1938642e-8, 1.3933354e+2
-0.318, 2.0465006e-8, -1.1928896e-8, 1.3966687e+2
-0.319, 2.0711040e-8, -1.1974030e-8, 1.4000020e+2
-0.320, 2.0678527e-8, -1.1926340e-8, 1.4033353e+2
-0.321, 2.0604558e-8, -1.1973470e-8, 1.4066685e+2
-0.322, 2.0795554e-8, -1.2032822e-8, 1.4100018e+2
-0.323, 2.0747864e-8, -1.2058783e-8, 1.4133351e+2
-0.324, 2.0750900e-8, -1.2138026e-8, 1.4166684e+2
-0.325, 2.0812649e-8, -1.2035378e-8, 1.4200017e+2
-0.326, 2.0772948e-8, -1.2107271e-8, 1.4233350e+2
-0.327, 2.0835175e-8, -1.2125724e-8, 1.4266682e+2
-0.328, 2.0854506e-8, -1.2182119e-8, 1.4300015e+2
-0.329, 2.0988708e-8, -1.2215669e-8, 1.4333348e+2
-0.330, 2.0977923e-8, -1.2062458e-8, 1.4366681e+2
-0.331, 2.0796433e-8, -1.2196419e-8, 1.4400014e+2
-0.332, 2.1114120e-8, -1.2118375e-8, 1.4433347e+2
-0.333, 2.1146553e-8, -1.2328063e-8, 1.4466679e+2
-0.334, 2.1131214e-8, -1.2259844e-8, 1.4500012e+2
-0.335, 2.1236419e-8, -1.2348752e-8, 1.4533345e+2
-0.336, 2.1231626e-8, -1.2297549e-8, 1.4566678e+2
-0.337, 2.1222759e-8, -1.2298906e-8, 1.4600011e+2
-0.338, 2.1251116e-8, -1.2329740e-8, 1.4633344e+2
-0.339, 2.1224995e-8, -1.2305776e-8, 1.4666676e+2
-0.340, 2.1230587e-8, -1.2338687e-8, 1.4700009e+2
-0.341, 2.1290418e-8, -1.2355622e-8, 1.4733342e+2
-0.342, 2.1259904e-8, -1.2343879e-8, 1.4766675e+2
-0.343, 2.1259904e-8, -1.2371998e-8, 1.4800008e+2
-0.344, 2.1302242e-8, -1.2339885e-8, 1.4833340e+2
-0.345, 2.1285306e-8, -1.2393405e-8, 1.4866673e+2
-0.346, 2.1439396e-8, -1.2428313e-8, 1.4900006e+2
-0.347, 2.1469273e-8, -1.2456752e-8, 1.4933339e+2
-0.348, 2.1632790e-8, -1.2424479e-8, 1.4966672e+2
-0.349, 2.1556662e-8, -1.2384299e-8, 1.5000005e+2
-0.350, 2.1559138e-8, -1.2434065e-8, 1.5033337e+2
-0.351, 2.1690225e-8, -1.2458589e-8, 1.5066670e+2
-0.352, 2.1722736e-8, -1.2488385e-8, 1.5100003e+2
-0.353, 2.1663064e-8, -1.2433905e-8, 1.5133336e+2
-0.354, 2.1730404e-8, -1.2437021e-8, 1.5166669e+2
-0.355, 2.1717623e-8, -1.2422003e-8, 1.5200002e+2
-0.356, 2.1681917e-8, -1.2445248e-8, 1.5233334e+2
-0.357, 2.1750933e-8, -1.2424879e-8, 1.5266667e+2
-0.358, 2.1761798e-8, -1.2439098e-8, 1.5300000e+2
-0.359, 2.1788797e-8, -1.2437260e-8, 1.5333333e+2
-0.360, 2.1768507e-8, -1.2553088e-8, 1.5366666e+2
-0.361, 2.1757085e-8, -1.2432068e-8, 1.5399998e+2
-0.362, 2.1763874e-8, -1.2516423e-8, 1.5433331e+2
-0.363, 2.1787120e-8, -1.2493977e-8, 1.5466664e+2
-0.364, 2.1969170e-8, -1.2440855e-8, 1.5499997e+2
-0.365, 2.1814760e-8, -1.2496293e-8, 1.5533330e+2
-0.366, 2.1980194e-8, -1.2530562e-8, 1.5566663e+2
-0.367, 2.2056639e-8, -1.2522094e-8, 1.5599995e+2
-0.368, 2.2128054e-8, -1.2533917e-8, 1.5633328e+2
-0.369, 2.1931944e-8, -1.2625301e-8, 1.5666661e+2
-0.370, 2.2196751e-8, -1.2629054e-8, 1.5699994e+2
-0.371, 2.2173504e-8, -1.2582883e-8, 1.5733327e+2
-0.372, 2.2185249e-8, -1.2605330e-8, 1.5766660e+2
-0.373, 2.2248674e-8, -1.2589275e-8, 1.5799992e+2
-0.374, 2.2185647e-8, -1.2691443e-8, 1.5833325e+2
-0.375, 2.2257540e-8, -1.2651183e-8, 1.5866658e+2
-0.376, 2.2354916e-8, -1.2696075e-8, 1.5899991e+2
-0.377, 2.2282624e-8, -1.2578650e-8, 1.5933324e+2
-0.378, 2.2275673e-8, -1.2662206e-8, 1.5966656e+2
-0.379, 2.2364182e-8, -1.2723715e-8, 1.5999989e+2
-0.380, 2.2471463e-8, -1.2748077e-8, 1.6033322e+2
-0.381, 2.2406519e-8, -1.2768448e-8, 1.6066655e+2
-0.382, 2.2535287e-8, -1.2771084e-8, 1.6099988e+2
-0.383, 2.2565724e-8, -1.2763815e-8, 1.6133321e+2
-0.384, 2.2663578e-8, -1.2784184e-8, 1.6166653e+2
-0.385, 2.2506370e-8, -1.2773082e-8, 1.6199986e+2
-0.386, 2.2686343e-8, -1.2768129e-8, 1.6233319e+2
-0.387, 2.2685144e-8, -1.2804634e-8, 1.6266652e+2
-0.388, 2.2700322e-8, -1.2774358e-8, 1.6299985e+2
-0.389, 2.2729798e-8, -1.2790096e-8, 1.6333318e+2
-0.390, 2.2717737e-8, -1.2786581e-8, 1.6366650e+2
-0.391, 2.2719812e-8, -1.2791693e-8, 1.6399983e+2
-0.392, 2.2769580e-8, -1.2816456e-8, 1.6433316e+2
-0.393, 2.2753843e-8, -1.2803996e-8, 1.6466649e+2
-0.394, 2.2778686e-8, -1.2835948e-8, 1.6499982e+2
-0.395, 2.2939727e-8, -1.2839543e-8, 1.6533315e+2
-0.396, 2.3007944e-8, -1.2853602e-8, 1.6566647e+2
-0.397, 2.3075284e-8, -1.2829317e-8, 1.6599980e+2
-0.398, 2.3012019e-8, -1.2841380e-8, 1.6633313e+2
-0.399, 2.3087507e-8, -1.2842179e-8, 1.6666646e+2
-0.400, 2.3102604e-8, -1.2914550e-8, 1.6699979e+2
-0.401, 2.3188317e-8, -1.2925574e-8, 1.6733311e+2
-0.402, 2.3253660e-8, -1.2929807e-8, 1.6766644e+2
-0.403, 2.3233531e-8, -1.2947062e-8, 1.6799977e+2
-0.404, 2.3220188e-8, -1.2925814e-8, 1.6833310e+2
-0.405, 2.3431156e-8, -1.2947542e-8, 1.6866643e+2
-0.406, 2.3272271e-8, -1.3020713e-8, 1.6899976e+2
-0.407, 2.3545546e-8, -1.3089490e-8, 1.6933308e+2
-0.408, 2.3627104e-8, -1.3013204e-8, 1.6966641e+2
-0.409, 2.3594353e-8, -1.2966873e-8, 1.6999974e+2
-0.410, 2.3650429e-8, -1.3058098e-8, 1.7033307e+2
-0.411, 2.3647315e-8, -1.3083580e-8, 1.7066640e+2
-0.412, 2.3693966e-8, -1.3223931e-8, 1.7099973e+2
-0.413, 2.3815703e-8, -1.3253407e-8, 1.7133305e+2
-0.414, 2.3687974e-8, -1.3052187e-8, 1.7166638e+2
-0.415, 2.3770172e-8, -1.3200845e-8, 1.7199971e+2
-0.416, 2.3924663e-8, -1.3219458e-8, 1.7233304e+2
-0.417, 2.3881046e-8, -1.3290792e-8, 1.7266637e+2
-0.418, 2.4017245e-8, -1.3272418e-8, 1.7299969e+2
-0.419, 2.3877053e-8, -1.3051866e-8, 1.7333302e+2
-0.420, 2.3865230e-8, -1.3226886e-8, 1.7366635e+2
-0.421, 2.4092014e-8, -1.3291911e-8, 1.7399968e+2
-0.422, 2.4156236e-8, -1.3379620e-8, 1.7433301e+2
-0.423, 2.4403151e-8, -1.3441608e-8, 1.7466634e+2
-0.424, 2.4477600e-8, -1.3124558e-8, 1.7499966e+2
-0.425, 2.3956215e-8, -1.3289114e-8, 1.7533299e+2
-0.426, 2.4148967e-8, -1.3171129e-8, 1.7566632e+2
-0.427, 2.4264237e-8, -1.3255644e-8, 1.7599965e+2
-0.428, 2.4265036e-8, -1.3231360e-8, 1.7633298e+2
-0.429, 2.4267353e-8, -1.3411172e-8, 1.7666631e+2
-0.430, 2.4211356e-8, -1.3289035e-8, 1.7699963e+2
-0.431, 2.4212953e-8, -1.3111618e-8, 1.7733296e+2
-0.432, 2.4267512e-8, -1.3274975e-8, 1.7766629e+2
-0.433, 2.4239712e-8, -1.3308606e-8, 1.7799962e+2
-0.434, 2.4500046e-8, -1.3386170e-8, 1.7833295e+2
-0.435, 2.4620029e-8, -1.3250212e-8, 1.7866628e+2
-0.436, 2.4428633e-8, -1.3078787e-8, 1.7899960e+2
-0.437, 2.4269989e-8, -1.3275135e-8, 1.7933293e+2
-0.438, 2.4442851e-8, -1.3380818e-8, 1.7966626e+2
-0.439, 2.4648864e-8, -1.3216981e-8, 1.7999959e+2
-0.440, 2.4327743e-8, -1.3366120e-8, 1.8033292e+2
-0.441, 2.4647507e-8, -1.2940752e-8, 1.8066624e+2
-0.442, 2.4575055e-8, -1.3537864e-8, 1.8099957e+2
-0.443, 2.5158348e-8, -1.3572772e-8, 1.8133290e+2
-0.444, 2.4333254e-8, -1.2881880e-8, 1.8166623e+2
-0.445, 2.4486228e-8, -1.3370513e-8, 1.8199956e+2
-0.446, 2.5271220e-8, -1.3810499e-8, 1.8233289e+2
-0.447, 2.5083340e-8, -1.3386090e-8, 1.8266621e+2
-0.448, 2.5128154e-8, -1.3819046e-8, 1.8299954e+2
-0.449, 2.4981011e-8, -1.3632762e-8, 1.8333287e+2
-0.450, 2.5204679e-8, -1.3283763e-8, 1.8366620e+2
-0.451, 2.4762937e-8, -1.3200446e-8, 1.8399953e+2
-0.452, 2.4723155e-8, -1.3516855e-8, 1.8433286e+2
-0.453, 2.5215144e-8, -1.3412372e-8, 1.8466618e+2
-0.454, 2.5553360e-8, -1.3678456e-8, 1.8499951e+2
-0.455, 2.5603926e-8, -1.3442886e-8, 1.8533284e+2
-0.456, 2.5146365e-8, -1.3327218e-8, 1.8566617e+2
-0.457, 2.5176082e-8, -1.3663757e-8, 1.8599950e+2
-0.458, 2.5645942e-8, -1.3271301e-8, 1.8633282e+2
-0.459, 2.5356455e-8, -1.3773515e-8, 1.8666615e+2
-0.460, 2.5195414e-8, -1.3376744e-8, 1.8699948e+2
-0.461, 2.5331930e-8, -1.3936710e-8, 1.8733281e+2
-0.462, 2.6113648e-8, -1.3998939e-8, 1.8766614e+2
-0.463, 2.6178432e-8, -1.3929921e-8, 1.8799947e+2
-0.464, 2.6174757e-8, -1.4116044e-8, 1.8833279e+2
-0.465, 2.5833103e-8, -1.3947894e-8, 1.8866612e+2
-0.466, 2.6218773e-8, -1.4099829e-8, 1.8899945e+2
-0.467, 2.6422388e-8, -1.3976173e-8, 1.8933278e+2
-0.468, 2.6234746e-8, -1.4093438e-8, 1.8966611e+2
-0.469, 2.6470078e-8, -1.4099189e-8, 1.8999944e+2
-0.470, 2.6290584e-8, -1.3667351e-8, 1.9033276e+2
-0.471, 2.5843651e-8, -1.3328496e-8, 1.9066609e+2
-0.472, 2.6132179e-8, -1.3280727e-8, 1.9099942e+2
-0.473, 2.6011080e-8, -1.3389444e-8, 1.9133275e+2
-0.474, 2.6355368e-8, -1.4249286e-8, 1.9166608e+2
-0.475, 2.6504427e-8, -1.3799156e-8, 1.9199940e+2
-0.476, 2.6440922e-8, -1.4228517e-8, 1.9233273e+2
-0.477, 2.6494840e-8, -1.3772396e-8, 1.9266606e+2
-0.478, 2.6172360e-8, -1.4020745e-8, 1.9299939e+2
-0.479, 2.6725697e-8, -1.3846686e-8, 1.9333272e+2
-0.480, 2.6529509e-8, -1.3492970e-8, 1.9366605e+2
-0.481, 2.6400420e-8, -1.3470603e-8, 1.9399937e+2
-0.482, 2.6592776e-8, -1.4143205e-8, 1.9433270e+2
-0.483, 2.7248761e-8, -1.4334679e-8, 1.9466603e+2
-0.484, 2.7193323e-8, -1.4404575e-8, 1.9499936e+2
-0.485, 2.7226793e-8, -1.3797319e-8, 1.9533269e+2
-0.486, 2.7226553e-8, -1.4393951e-8, 1.9566602e+2
-0.487, 2.7571879e-8, -1.4330766e-8, 1.9599934e+2
-0.488, 2.7533215e-8, -1.4331405e-8, 1.9633267e+2
-0.489, 2.7553186e-8, -1.4275408e-8, 1.9666600e+2
-0.490, 2.7615735e-8, -1.4390916e-8, 1.9699933e+2
-0.491, 2.7793151e-8, -1.4450747e-8, 1.9733266e+2
-0.492, 2.8100056e-8, -1.4417677e-8, 1.9766599e+2
-0.493, 2.8060592e-8, -1.4377814e-8, 1.9799931e+2
-0.494, 2.7936537e-8, -1.4378054e-8, 1.9833264e+2
-0.495, 2.8127934e-8, -1.4401460e-8, 1.9866597e+2
-0.496, 2.8121221e-8, -1.4453224e-8, 1.9899930e+2
-0.497, 2.8321246e-8, -1.4713876e-8, 1.9933263e+2
-0.498, 2.8318132e-8, -1.4436608e-8, 1.9966595e+2
-0.499, 2.8310541e-8, -1.4729213e-8, 1.9999928e+2
