Dec. 21, 2005   01:25:55
Cyclic Voltammetry
File: d:\ida_biofilms\12_10_18_dphzstar\a_760b\25um_pyo\a_25um_pyo_gc_final.txt
Data Source:  Experiment
Instrument Model:  CHI760E
Header: 
Note: 

Init E (V) = 0.1
High E (V) = 0.1
Low E (V) = -0.5
Init P/N = N
Scan Rate (V/s) = 0.003
Segment = 2
Sample Interval (V) = 0.001
Quiet Time (sec) = 2
Sensitivity (A/V) = 1e-7
2nd E (V) = 0.1
Sens 2 (A/V) = 1e-7

Potential/V, i1/A, i2/A, Time/s

0.100, -9.8510434e-8, -7.8799083e-8, 3.3333334e-1
0.099, -7.9596234e-8, -7.0294924e-8, 6.6666669e-1
0.098, -6.7549820e-8, -6.3508850e-8, 1.0000000e+0
0.097, -5.8862259e-8, -5.8116949e-8, 1.3333334e+0
0.096, -5.2082818e-8, -5.3571462e-8, 1.6666667e+0
0.095, -4.6629804e-8, -4.9807941e-8, 2.0000000e+0
0.094, -4.1937103e-8, -4.6537522e-8, 2.3333333e+0
0.093, -3.8174694e-8, -4.3763087e-8, 2.6666665e+0
0.092, -3.4784293e-8, -4.1258971e-8, 2.9999998e+0
0.091, -3.1733947e-8, -3.9096985e-8, 3.3333330e+0
0.090, -2.9231192e-8, -3.7087972e-8, 3.6666663e+0
0.089, -2.6961366e-8, -3.5322195e-8, 3.9999995e+0
0.088, -2.4804653e-8, -3.3705561e-8, 4.3333330e+0
0.087, -2.3077298e-8, -3.2205072e-8, 4.6666665e+0
0.086, -2.1360972e-8, -3.0843015e-8, 5.0000000e+0
0.085, -1.9844986e-8, -2.9596711e-8, 5.3333335e+0
0.084, -1.8442590e-8, -2.8349602e-8, 5.6666670e+0
0.083, -1.7161934e-8, -2.7175830e-8, 6.0000005e+0
0.082, -1.6002138e-8, -2.6163972e-8, 6.3333340e+0
0.081, -1.4847455e-8, -2.5197810e-8, 6.6666675e+0
0.080, -1.3774570e-8, -2.4367523e-8, 7.0000010e+0
0.079, -1.2956587e-8, -2.3594593e-8, 7.3333344e+0
0.078, -1.1868444e-8, -2.2793143e-8, 7.6666679e+0
0.077, -1.1126587e-8, -2.2130369e-8, 8.0000010e+0
0.076, -1.0328892e-8, -2.1427734e-8, 8.3333340e+0
0.075, -9.5324770e-9, -2.0820238e-8, 8.6666670e+0
0.074, -8.9533376e-9, -2.0232950e-8, 9.0000000e+0
0.073, -8.2308125e-9, -1.9683688e-8, 9.3333330e+0
0.072, -7.5492652e-9, -1.9165817e-8, 9.6666660e+0
0.071, -7.1714270e-9, -1.8683254e-8, 9.9999990e+0
0.070, -6.5300605e-9, -1.8195419e-8, 1.0333332e+1
0.069, -5.9965335e-9, -1.7756232e-8, 1.0666665e+1
0.068, -5.4852141e-9, -1.7282936e-8, 1.0999998e+1
0.067, -5.0573701e-9, -1.6873145e-8, 1.1333331e+1
0.066, -4.6816084e-9, -1.6467508e-8, 1.1666664e+1
0.065, -4.1092596e-9, -1.6199987e-8, 1.1999997e+1
0.064, -3.7587409e-9, -1.5797305e-8, 1.2333330e+1
0.063, -3.4022305e-9, -1.5431930e-8, 1.2666663e+1
0.062, -2.9382805e-9, -1.5230547e-8, 1.2999996e+1
0.061, -2.7361808e-9, -1.4855505e-8, 1.3333329e+1
0.060, -2.2997897e-9, -1.4514652e-8, 1.3666662e+1
0.059, -1.9156408e-9, -1.4314390e-8, 1.3999995e+1
0.058, -1.7021183e-9, -1.3928964e-8, 1.4333328e+1
0.057, -1.3059872e-9, -1.3778625e-8, 1.4666661e+1
0.056, -1.0729737e-9, -1.3443604e-8, 1.4999994e+1
0.055, -8.2582113e-10, -1.3315235e-8, 1.5333327e+1
0.054, -5.9919802e-10, -1.2996988e-8, 1.5666660e+1
0.053, -3.3055744e-10, -1.2836586e-8, 1.5999993e+1
0.052, -5.2331080e-11, -1.2582883e-8, 1.6333326e+1
0.051, 1.1350238e-10, -1.2404828e-8, 1.6666660e+1
0.050, 2.8388905e-10, -1.2216549e-8, 1.6999994e+1
0.049, 6.5046407e-10, -1.1955577e-8, 1.7333328e+1
0.048, 7.3122403e-10, -1.1829204e-8, 1.7666662e+1
0.047, 8.8299840e-10, -1.1535721e-8, 1.7999996e+1
0.046, 1.2061180e-9, -1.1426204e-8, 1.8333330e+1
0.045, 1.3340078e-9, -1.1289846e-8, 1.8666664e+1
0.044, 1.4511936e-9, -1.1065620e-8, 1.8999998e+1
0.043, 1.7175974e-9, -1.0936532e-8, 1.9333332e+1
0.042, 1.8390969e-9, -1.0848103e-8, 1.9666666e+1
0.041, 2.0554953e-9, -1.0655429e-8, 2.0000000e+1
0.040, 2.1503941e-9, -1.0496546e-8, 2.0333334e+1
0.039, 2.2071098e-9, -1.0405561e-8, 2.0666668e+1
0.038, 2.4772682e-9, -1.0246997e-8, 2.1000002e+1
0.037, 2.6286431e-9, -1.0066785e-8, 2.1333336e+1
0.036, 2.6983795e-9, -9.9627000e-9, 2.1666670e+1
0.035, 2.7713909e-9, -9.8904067e-9, 2.2000004e+1
0.034, 2.9311533e-9, -9.7069197e-9, 2.2333338e+1
0.033, 3.1410012e-9, -9.5345358e-9, 2.2666672e+1
0.032, 3.1852554e-9, -9.4800567e-9, 2.3000006e+1
0.031, 3.2168883e-9, -9.3948236e-9, 2.3333340e+1
0.030, 3.5440821e-9, -9.2953716e-9, 2.3666674e+1
0.029, 3.5841823e-9, -9.1566177e-9, 2.4000008e+1
0.028, 3.6348273e-9, -9.0333616e-9, 2.4333342e+1
0.027, 3.8492285e-9, -8.9498853e-9, 2.4666676e+1
0.026, 3.8241459e-9, -8.8935685e-9, 2.5000010e+1
0.025, 3.9732839e-9, -8.7863681e-9, 2.5333344e+1
0.024, 4.1218633e-9, -8.6647098e-9, 2.5666677e+1
0.023, 4.1428718e-9, -8.5372989e-9, 2.6000011e+1
0.022, 4.1849693e-9, -8.4818614e-9, 2.6333345e+1
0.021, 4.3116608e-9, -8.4216305e-9, 2.6666679e+1
0.020, 4.5147988e-9, -8.3637168e-9, 2.7000013e+1
0.019, 4.5628874e-9, -8.2263210e-9, 2.7333347e+1
0.018, 4.5987538e-9, -8.1247915e-9, 2.7666681e+1
0.017, 4.7424602e-9, -8.0402778e-9, 2.8000015e+1
0.016, 4.7268038e-9, -8.0124787e-9, 2.8333349e+1
0.015, 4.8431108e-9, -7.9298017e-9, 2.8666683e+1
0.014, 5.0460889e-9, -7.8896214e-9, 2.9000017e+1
0.013, 5.0609472e-9, -7.7971194e-9, 2.9333351e+1
0.012, 5.0885856e-9, -7.6497386e-9, 2.9666685e+1
0.011, 5.1601594e-9, -7.5743305e-9, 3.0000019e+1
0.010, 5.1743783e-9, -7.5422983e-9, 3.0333353e+1
0.009, 5.2853331e-9, -7.4963662e-9, 3.0666687e+1
0.008, 5.4327938e-9, -7.4580226e-9, 3.1000021e+1
0.007, 5.4486105e-9, -7.4072188e-9, 3.1333355e+1
0.006, 5.5105183e-9, -7.3588104e-9, 3.1666689e+1
0.005, 5.5791363e-9, -7.2810860e-9, 3.2000023e+1
0.004, 5.6563016e-9, -7.1431310e-9, 3.2333355e+1
0.003, 5.6642100e-9, -7.0888118e-9, 3.2666687e+1
0.002, 5.7524789e-9, -7.0445574e-9, 3.3000019e+1
0.001, 5.8903540e-9, -7.0244277e-9, 3.3333351e+1
-0.000, 5.8322001e-9, -6.9927149e-9, 3.3666683e+1
-0.001, 5.9750280e-9, -6.9425496e-9, 3.4000015e+1
-0.002, 6.0835066e-9, -6.9057240e-9, 3.4333347e+1
-0.003, 6.0666516e-9, -6.8498873e-9, 3.4666679e+1
-0.004, 6.1368675e-9, -6.7878196e-9, 3.5000011e+1
-0.005, 6.3426415e-9, -6.6936399e-9, 3.5333344e+1
-0.006, 6.2099588e-9, -6.6628854e-9, 3.5666676e+1
-0.007, 6.3963213e-9, -6.5846817e-9, 3.6000008e+1
-0.008, 6.5048797e-9, -6.5622352e-9, 3.6333340e+1
-0.009, 6.5246910e-9, -6.5471375e-9, 3.6666672e+1
-0.010, 6.5583206e-9, -6.4983303e-9, 3.7000004e+1
-0.011, 6.5696644e-9, -6.4760433e-9, 3.7333336e+1
-0.012, 6.6448322e-9, -6.4495222e-9, 3.7666668e+1
-0.013, 6.6595303e-9, -6.3908101e-9, 3.8000000e+1
-0.014, 6.6651218e-9, -6.3634107e-9, 3.8333332e+1
-0.015, 6.8761685e-9, -6.3039787e-9, 3.8666664e+1
-0.016, 6.7450832e-9, -6.1896688e-9, 3.8999996e+1
-0.017, 6.8363071e-9, -6.1379857e-9, 3.9333328e+1
-0.018, 7.0001440e-9, -6.1022787e-9, 3.9666660e+1
-0.019, 7.0037389e-9, -6.0773560e-9, 3.9999992e+1
-0.020, 7.0397652e-9, -6.0557879e-9, 4.0333324e+1
-0.021, 7.0590160e-9, -6.0187229e-9, 4.0666656e+1
-0.022, 7.0704393e-9, -6.0031464e-9, 4.0999989e+1
-0.023, 7.0882531e-9, -5.9688769e-9, 4.1333321e+1
-0.024, 7.1783588e-9, -5.9340488e-9, 4.1666653e+1
-0.025, 7.2016841e-9, -5.8969039e-9, 4.1999985e+1
-0.026, 7.2439419e-9, -5.8635137e-9, 4.2333317e+1
-0.027, 7.3056095e-9, -5.8030434e-9, 4.2666649e+1
-0.028, 7.2818049e-9, -5.7782006e-9, 4.2999981e+1
-0.029, 7.4640942e-9, -5.6846599e-9, 4.3333313e+1
-0.030, 7.4442039e-9, -5.6680447e-9, 4.3666645e+1
-0.031, 7.5266415e-9, -5.6150031e-9, 4.3999977e+1
-0.032, 7.4557862e-9, -5.5987077e-9, 4.4333309e+1
-0.033, 7.5275999e-9, -5.5875242e-9, 4.4666641e+1
-0.034, 7.5537203e-9, -5.5679532e-9, 4.4999973e+1
-0.035, 7.5481292e-9, -5.5431104e-9, 4.5333305e+1
-0.036, 7.5360669e-9, -5.5265748e-9, 4.5666637e+1
-0.037, 7.6287296e-9, -5.5163500e-9, 4.5999969e+1
-0.038, 7.5990130e-9, -5.4959002e-9, 4.6333302e+1
-0.039, 7.5982145e-9, -5.4745719e-9, 4.6666634e+1
-0.040, 7.6936733e-9, -5.4364686e-9, 4.6999966e+1
-0.041, 7.6436670e-9, -5.4155400e-9, 4.7333298e+1
-0.042, 7.6835276e-9, -5.3904570e-9, 4.7666630e+1
-0.043, 7.7411224e-9, -5.3379754e-9, 4.7999962e+1
-0.044, 7.8136546e-9, -5.2723124e-9, 4.8333294e+1
-0.045, 7.8928162e-9, -5.2014579e-9, 4.8666626e+1
-0.046, 7.7664444e-9, -5.1630353e-9, 4.8999958e+1
-0.047, 7.9444202e-9, -5.1520117e-9, 4.9333290e+1
-0.048, 7.9258076e-9, -5.1185416e-9, 4.9666622e+1
-0.049, 7.9635116e-9, -5.1032041e-9, 4.9999954e+1
-0.050, 8.0250206e-9, -5.0925801e-9, 5.0333286e+1
-0.051, 8.0197475e-9, -5.0682161e-9, 5.0666618e+1
-0.052, 7.9712601e-9, -5.0729292e-9, 5.0999950e+1
-0.053, 8.1550668e-9, -5.0685358e-9, 5.1333282e+1
-0.054, 7.9595974e-9, -5.0537574e-9, 5.1666615e+1
-0.055, 7.9119884e-9, -5.0279558e-9, 5.1999947e+1
-0.056, 8.0933180e-9, -5.0330686e-9, 5.2333279e+1
-0.057, 8.1148865e-9, -4.9484741e-9, 5.2666611e+1
-0.058, 7.9792484e-9, -4.9932876e-9, 5.2999943e+1
-0.059, 8.0699936e-9, -4.9308202e-9, 5.3333275e+1
-0.060, 8.0983513e-9, -4.9175601e-9, 5.3666607e+1
-0.061, 8.0638420e-9, -4.9223532e-9, 5.3999939e+1
-0.062, 8.0392395e-9, -4.9340958e-9, 5.4333271e+1
-0.063, 8.2244043e-9, -4.8550128e-9, 5.4666603e+1
-0.064, 8.0620852e-9, -4.8736251e-9, 5.4999935e+1
-0.065, 8.0410762e-9, -4.7495696e-9, 5.5333267e+1
-0.066, 8.1466798e-9, -4.7993360e-9, 5.5666599e+1
-0.067, 8.1048217e-9, -4.6943720e-9, 5.5999931e+1
-0.068, 8.0874880e-9, -4.6833484e-9, 5.6333263e+1
-0.069, 8.2323917e-9, -4.6398130e-9, 5.6666595e+1
-0.070, 8.1399696e-9, -4.6470023e-9, 5.6999928e+1
-0.071, 8.1141671e-9, -4.6179256e-9, 5.7333260e+1
-0.072, 8.2231253e-9, -4.6063429e-9, 5.7666592e+1
-0.073, 8.1560252e-9, -4.5998725e-9, 5.7999924e+1
-0.074, 8.1199989e-9, -4.5957185e-9, 5.8333256e+1
-0.075, 8.1893354e-9, -4.5955586e-9, 5.8666588e+1
-0.076, 8.1823863e-9, -4.5765471e-9, 5.8999920e+1
-0.077, 8.2830365e-9, -4.5764672e-9, 5.9333252e+1
-0.078, 8.2148981e-9, -4.5582547e-9, 5.9666584e+1
-0.079, 8.3014093e-9, -4.5371658e-9, 5.9999916e+1
-0.080, 8.2330311e-9, -4.5279793e-9, 6.0333248e+1
-0.081, 8.1787119e-9, -4.5255026e-9, 6.0666580e+1
-0.082, 8.3156282e-9, -4.5028967e-9, 6.0999912e+1
-0.083, 8.2080280e-9, -4.4985029e-9, 6.1333244e+1
-0.084, 8.3133918e-9, -4.4897961e-9, 6.1666576e+1
-0.085, 8.3389535e-9, -4.4770152e-9, 6.1999908e+1
-0.086, 8.2489278e-9, -4.4619175e-9, 6.2333241e+1
-0.087, 8.2508445e-9, -4.4473789e-9, 6.2666573e+1
-0.088, 8.3759382e-9, -4.4086366e-9, 6.2999905e+1
-0.089, 8.2732905e-9, -4.3813175e-9, 6.3333237e+1
-0.090, 8.2583531e-9, -4.3690158e-9, 6.3666569e+1
-0.091, 8.3073211e-9, -4.3271577e-9, 6.3999901e+1
-0.092, 8.3443057e-9, -4.3317909e-9, 6.4333237e+1
-0.093, 8.3507761e-9, -4.2988000e-9, 6.4666573e+1
-0.094, 8.2848732e-9, -4.2833030e-9, 6.4999908e+1
-0.095, 8.4005416e-9, -4.2456789e-9, 6.5333244e+1
-0.096, 8.3752987e-9, -4.2174011e-9, 6.5666580e+1
-0.097, 8.2518028e-9, -4.1778598e-9, 6.5999916e+1
-0.098, 8.4314555e-9, -4.1758628e-9, 6.6333252e+1
-0.099, 8.4029388e-9, -4.1798569e-9, 6.6666588e+1
-0.100, 8.3443057e-9, -4.1447890e-9, 6.6999924e+1
-0.101, 8.4556602e-9, -4.1411141e-9, 6.7333260e+1
-0.102, 8.3618792e-9, -4.1153130e-9, 6.7666595e+1
-0.103, 8.4690805e-9, -4.1182684e-9, 6.7999931e+1
-0.104, 8.4445571e-9, -4.1168304e-9, 6.8333267e+1
-0.105, 8.4641272e-9, -4.0976591e-9, 6.8666603e+1
-0.106, 8.4353697e-9, -4.0997361e-9, 6.8999939e+1
-0.107, 8.4232283e-9, -4.0866355e-9, 6.9333275e+1
-0.108, 8.4165181e-9, -4.0776089e-9, 6.9666611e+1
-0.109, 8.4479117e-9, -4.0751327e-9, 6.9999947e+1
-0.110, 8.4163583e-9, -4.0605941e-9, 7.0333282e+1
-0.111, 8.4698790e-9, -4.0509285e-9, 7.0666618e+1
-0.112, 8.4771479e-9, -4.0602748e-9, 7.0999954e+1
-0.113, 8.4365679e-9, -4.0364703e-9, 7.1333290e+1
-0.114, 8.4923251e-9, -4.0257659e-9, 7.1666626e+1
-0.115, 8.4551006e-9, -4.0228101e-9, 7.1999962e+1
-0.116, 8.4307370e-9, -4.0228905e-9, 7.2333298e+1
-0.117, 8.5059053e-9, -4.0153814e-9, 7.2666634e+1
-0.118, 8.4766683e-9, -4.0078727e-9, 7.2999969e+1
-0.119, 8.5088612e-9, -4.0018016e-9, 7.3333305e+1
-0.120, 8.5062251e-9, -3.9875028e-9, 7.3666641e+1
-0.121, 8.4646867e-9, -3.9820707e-9, 7.3999977e+1
-0.122, 8.5031893e-9, -3.9674526e-9, 7.4333313e+1
-0.123, 8.4931244e-9, -3.9545918e-9, 7.4666649e+1
-0.124, 8.5154905e-9, -3.9662544e-9, 7.4999985e+1
-0.125, 8.5118170e-9, -3.9341419e-9, 7.5333321e+1
-0.126, 8.4598142e-9, -3.9351011e-9, 7.5666656e+1
-0.127, 8.5142133e-9, -3.9042667e-9, 7.5999992e+1
-0.128, 8.5325054e-9, -3.8551398e-9, 7.6333328e+1
-0.129, 8.5177270e-9, -3.8888497e-9, 7.6666664e+1
-0.130, 8.5563103e-9, -3.8495478e-9, 7.7000000e+1
-0.131, 8.5167695e-9, -3.8497077e-9, 7.7333336e+1
-0.132, 8.5257952e-9, -3.8237462e-9, 7.7666672e+1
-0.133, 8.5598257e-9, -3.8062526e-9, 7.8000008e+1
-0.134, 8.5150118e-9, -3.7613588e-9, 7.8333344e+1
-0.135, 8.5519165e-9, -3.7465009e-9, 7.8666679e+1
-0.136, 8.5485619e-9, -3.7302854e-9, 7.9000015e+1
-0.137, 8.5342631e-9, -3.7619183e-9, 7.9333351e+1
-0.138, 8.5379375e-9, -3.7099157e-9, 7.9666687e+1
-0.139, 8.5325853e-9, -3.6752470e-9, 8.0000023e+1
-0.140, 8.5832310e-9, -3.6853121e-9, 8.0333359e+1
-0.141, 8.5681329e-9, -3.6556762e-9, 8.0666695e+1
-0.142, 8.5317868e-9, -3.6555163e-9, 8.1000031e+1
-0.143, 8.6004848e-9, -3.6482473e-9, 8.1333366e+1
-0.144, 8.5860261e-9, -3.6379426e-9, 8.1666702e+1
-0.145, 8.5663752e-9, -3.6397796e-9, 8.2000038e+1
-0.146, 8.6586383e-9, -3.6347472e-9, 8.2333374e+1
-0.147, 8.6107894e-9, -3.6297947e-9, 8.2666710e+1
-0.148, 8.6194163e-9, -3.6285963e-9, 8.3000046e+1
-0.149, 8.6956238e-9, -3.6182919e-9, 8.3333382e+1
-0.150, 8.6274046e-9, -3.6400196e-9, 8.3666718e+1
-0.151, 8.6688630e-9, -3.6134191e-9, 8.4000053e+1
-0.152, 8.7060874e-9, -3.6167742e-9, 8.4333389e+1
-0.153, 8.7221439e-9, -3.6071084e-9, 8.4666725e+1
-0.154, 8.6726972e-9, -3.5967238e-9, 8.5000061e+1
-0.155, 8.7048893e-9, -3.5953660e-9, 8.5333397e+1
-0.156, 8.7937977e-9, -3.6035135e-9, 8.5666733e+1
-0.157, 8.7647205e-9, -3.5921703e-9, 8.6000069e+1
-0.158, 8.8087351e-9, -3.5889753e-9, 8.6333405e+1
-0.159, 8.8520302e-9, -3.5732388e-9, 8.6666740e+1
-0.160, 8.8619361e-9, -3.5642120e-9, 8.7000076e+1
-0.161, 8.7870067e-9, -3.5834637e-9, 8.7333412e+1
-0.162, 8.9530010e-9, -3.5749164e-9, 8.7666748e+1
-0.163, 8.9645837e-9, -3.5639727e-9, 8.8000084e+1
-0.164, 8.9323908e-9, -3.5506322e-9, 8.8333420e+1
-0.165, 8.9983736e-9, -3.5448808e-9, 8.8666756e+1
-0.166, 8.9218473e-9, -3.5325791e-9, 8.9000092e+1
-0.167, 8.9802397e-9, -3.5396885e-9, 8.9333427e+1
-0.168, 9.0228971e-9, -3.5290644e-9, 8.9666763e+1
-0.169, 9.0205798e-9, -3.5182006e-9, 9.0000099e+1
-0.170, 9.0014085e-9, -3.5186798e-9, 9.0333435e+1
-0.171, 9.0246539e-9, -3.5389696e-9, 9.0666771e+1
-0.172, 9.0331209e-9, -3.5086147e-9, 9.1000107e+1
-0.173, 9.0380743e-9, -3.5110113e-9, 9.1333443e+1
-0.174, 9.0631564e-9, -3.4887244e-9, 9.1666779e+1
-0.175, 9.1429584e-9, -3.5079759e-9, 9.2000114e+1
-0.176, 9.1249053e-9, -3.4852896e-9, 9.2333450e+1
-0.177, 9.1153991e-9, -3.4979906e-9, 9.2666786e+1
-0.178, 9.1809023e-9, -3.4863279e-9, 9.3000122e+1
-0.179, 9.1740322e-9, -3.4910410e-9, 9.3333458e+1
-0.180, 9.2096588e-9, -3.4685144e-9, 9.3666794e+1
-0.181, 9.4192671e-9, -3.4687542e-9, 9.4000130e+1
-0.182, 9.2994457e-9, -3.4888044e-9, 9.4333466e+1
-0.183, 9.3452170e-9, -3.4656387e-9, 9.4666801e+1
-0.184, 9.4430712e-9, -3.4598873e-9, 9.5000137e+1
-0.185, 9.4286934e-9, -3.4368814e-9, 9.5333473e+1
-0.186, 9.4423536e-9, -3.4218639e-9, 9.5666809e+1
-0.187, 9.4588888e-9, -3.4185887e-9, 9.6000145e+1
-0.188, 9.4849293e-9, -3.4336065e-9, 9.6333481e+1
-0.189, 9.4611252e-9, -3.4120384e-9, 9.6666817e+1
-0.190, 9.4971515e-9, -3.4008552e-9, 9.7000153e+1
-0.191, 9.5410861e-9, -3.4149941e-9, 9.7333488e+1
-0.192, 9.5436423e-9, -3.3552428e-9, 9.7666824e+1
-0.193, 9.5336574e-9, -3.4008552e-9, 9.8000160e+1
-0.194, 9.6197699e-9, -3.3362311e-9, 9.8333496e+1
-0.195, 9.5745563e-9, -3.3535652e-9, 9.8666832e+1
-0.196, 9.5423642e-9, -3.3030805e-9, 9.9000168e+1
-0.197, 9.7105151e-9, -3.3150624e-9, 9.9333504e+1
-0.198, 9.6640234e-9, -3.3461363e-9, 9.9666840e+1
-0.199, 9.6731299e-9, -3.3050775e-9, 1.0000018e+2
-0.200, 9.7299253e-9, -3.2959711e-9, 1.0033351e+2
-0.201, 9.7891180e-9, -3.2803942e-9, 1.0066685e+2
-0.202, 9.8319335e-9, -3.3256069e-9, 1.0100018e+2
-0.203, 9.8582147e-9, -3.2848675e-9, 1.0133352e+2
-0.204, 9.8607709e-9, -3.2721665e-9, 1.0166685e+2
-0.205, 9.6290353e-9, -3.2636192e-9, 1.0200019e+2
-0.206, 9.9353796e-9, -3.2728851e-9, 1.0233353e+2
-0.207, 9.9853059e-9, -3.2288707e-9, 1.0266686e+2
-0.208, 9.9730038e-9, -3.2399741e-9, 1.0300020e+2
-0.209, 9.9920152e-9, -3.2389358e-9, 1.0333353e+2
-0.210, 1.0026205e-8, -3.2282315e-9, 1.0366687e+2
-0.211, 9.9984065e-9, -3.2180067e-9, 1.0400021e+2
-0.212, 1.0007753e-8, -3.2046668e-9, 1.0433354e+2
-0.213, 1.0139317e-8, -3.2280718e-9, 1.0466688e+2
-0.214, 1.0078048e-8, -3.2368590e-9, 1.0500021e+2
-0.215, 1.0113036e-8, -3.1732734e-9, 1.0533355e+2
-0.216, 1.0209453e-8, -3.2182466e-9, 1.0566689e+2
-0.217, 1.0214885e-8, -3.1865337e-9, 1.0600022e+2
-0.218, 1.0157769e-8, -3.1928442e-9, 1.0633356e+2
-0.219, 1.0191240e-8, -3.1870131e-9, 1.0666689e+2
-0.220, 1.0349245e-8, -3.1763088e-9, 1.0700023e+2
-0.221, 1.0351082e-8, -3.1945218e-9, 1.0733356e+2
-0.222, 1.0361786e-8, -3.1755898e-9, 1.0766690e+2
-0.223, 1.0482727e-8, -3.2047467e-9, 1.0800024e+2
-0.224, 1.0455567e-8, -3.1829390e-9, 1.0833357e+2
-0.225, 1.0453490e-8, -3.1694389e-9, 1.0866691e+2
-0.226, 1.0495826e-8, -3.1688001e-9, 1.0900024e+2
-0.227, 1.0518673e-8, -3.1834182e-9, 1.0933358e+2
-0.228, 1.0467229e-8, -3.1783061e-9, 1.0966692e+2
-0.229, 1.0598554e-8, -3.1643268e-9, 1.1000025e+2
-0.230, 1.0582178e-8, -3.1892498e-9, 1.1033359e+2
-0.231, 1.0585613e-8, -3.1795040e-9, 1.1066692e+2
-0.232, 1.0628350e-8, -3.1723149e-9, 1.1100026e+2
-0.233, 1.0650637e-8, -3.1799035e-9, 1.1133360e+2
-0.234, 1.0716139e-8, -3.1727940e-9, 1.1166693e+2
-0.235, 1.0655429e-8, -3.1953205e-9, 1.1200027e+2
-0.236, 1.0781323e-8, -3.2069833e-9, 1.1233360e+2
-0.237, 1.0833086e-8, -3.1805427e-9, 1.1266694e+2
-0.238, 1.0820943e-8, -3.1924450e-9, 1.1300027e+2
-0.239, 1.0892677e-8, -3.1848562e-9, 1.1333361e+2
-0.240, 1.0901863e-8, -3.1773475e-9, 1.1366695e+2
-0.241, 1.0931979e-8, -3.2041076e-9, 1.1400028e+2
-0.242, 1.0985739e-8, -3.1983562e-9, 1.1433362e+2
-0.243, 1.0974794e-8, -3.2184861e-9, 1.1466695e+2
-0.244, 1.0986057e-8, -3.2402936e-9, 1.1500029e+2
-0.245, 1.1074726e-8, -3.2338232e-9, 1.1533363e+2
-0.246, 1.1000197e-8, -3.2360599e-9, 1.1566696e+2
-0.247, 1.1076084e-8, -3.2158503e-9, 1.1600030e+2
-0.248, 1.1140308e-8, -3.2847873e-9, 1.1633363e+2
-0.249, 1.1137193e-8, -3.2741632e-9, 1.1666697e+2
-0.250, 1.1241119e-8, -3.2662553e-9, 1.1700031e+2
-0.251, 1.1294480e-8, -3.2919769e-9, 1.1733364e+2
-0.252, 1.1336657e-8, -3.3136245e-9, 1.1766698e+2
-0.253, 1.1329547e-8, -3.3176188e-9, 1.1800031e+2
-0.254, 1.1365813e-8, -3.2660954e-9, 1.1833365e+2
-0.255, 1.1447053e-8, -3.3437397e-9, 1.1866698e+2
-0.256, 1.1451286e-8, -3.3395862e-9, 1.1900032e+2
-0.257, 1.1451127e-8, -3.3735357e-9, 1.1933366e+2
-0.258, 1.1486434e-8, -3.4041301e-9, 1.1966699e+2
-0.259, 1.1467902e-8, -3.3860770e-9, 1.2000033e+2
-0.260, 1.1498337e-8, -3.3903107e-9, 1.2033366e+2
-0.261, 1.1567834e-8, -3.4275354e-9, 1.2066700e+2
-0.262, 1.1505845e-8, -3.4189083e-9, 1.2100034e+2
-0.263, 1.1655383e-8, -3.4246599e-9, 1.2133367e+2
-0.264, 1.1715214e-8, -3.4296923e-9, 1.2166701e+2
-0.265, 1.1668723e-8, -3.4544554e-9, 1.2200034e+2
-0.266, 1.1750362e-8, -3.4556535e-9, 1.2233368e+2
-0.267, 1.1843104e-8, -3.4741059e-9, 1.2266702e+2
-0.268, 1.1799250e-8, -3.4672365e-9, 1.2300035e+2
-0.269, 1.1911801e-8, -3.4687542e-9, 1.2333369e+2
-0.270, 1.1922346e-8, -3.4796979e-9, 1.2366702e+2
-0.271, 1.1924822e-8, -3.4757037e-9, 1.2400036e+2
-0.272, 1.1947749e-8, -3.5024639e-9, 1.2433369e+2
-0.273, 1.1951423e-8, -3.4821741e-9, 1.2466703e+2
-0.274, 1.2047200e-8, -3.4900822e-9, 1.2500037e+2
-0.275, 1.1979701e-8, -3.4801770e-9, 1.2533370e+2
-0.276, 1.1976425e-8, -3.5011858e-9, 1.2566704e+2
-0.277, 1.2183877e-8, -3.4919194e-9, 1.2600037e+2
-0.278, 1.2005183e-8, -3.5053396e-9, 1.2633371e+2
-0.279, 1.2150407e-8, -3.5051801e-9, 1.2666705e+2
-0.280, 1.2199774e-8, -3.4977512e-9, 1.2700038e+2
-0.281, 1.2135789e-8, -3.5046208e-9, 1.2733372e+2
-0.282, 1.2318557e-8, -3.5092538e-9, 1.2766705e+2
-0.283, 1.2321513e-8, -3.5309018e-9, 1.2800038e+2
-0.284, 1.2345477e-8, -3.5317804e-9, 1.2833371e+2
-0.285, 1.2359456e-8, -3.5209164e-9, 1.2866704e+2
-0.286, 1.2340924e-8, -3.5189194e-9, 1.2900037e+2
-0.287, 1.2447246e-8, -3.5228338e-9, 1.2933369e+2
-0.288, 1.2426556e-8, -3.5106120e-9, 1.2966702e+2
-0.289, 1.2429033e-8, -3.5241918e-9, 1.3000035e+2
-0.290, 1.2476962e-8, -3.5216354e-9, 1.3033368e+2
-0.291, 1.2457950e-8, -3.5400880e-9, 1.3066701e+2
-0.292, 1.2460187e-8, -3.5286651e-9, 1.3100034e+2
-0.293, 1.2492618e-8, -3.5397687e-9, 1.3133366e+2
-0.294, 1.2491899e-8, -3.5392893e-9, 1.3166699e+2
-0.295, 1.2486307e-8, -3.5424843e-9, 1.3200032e+2
-0.296, 1.2567866e-8, -3.5473571e-9, 1.3233365e+2
-0.297, 1.2514985e-8, -3.5491146e-9, 1.3266698e+2
-0.298, 1.2621626e-8, -3.5412864e-9, 1.3300031e+2
-0.299, 1.2607726e-8, -3.5304222e-9, 1.3333363e+2
-0.300, 1.2605811e-8, -3.5351355e-9, 1.3366696e+2
-0.301, 1.2702067e-8, -3.5389696e-9, 1.3400029e+2
-0.302, 1.2671153e-8, -3.5181207e-9, 1.3433362e+2
-0.303, 1.2808708e-8, -3.5455998e-9, 1.3466695e+2
-0.304, 1.2738493e-8, -3.5380110e-9, 1.3500027e+2
-0.305, 1.2724513e-8, -3.5512713e-9, 1.3533360e+2
-0.306, 1.2865343e-8, -3.5261889e-9, 1.3566693e+2
-0.307, 1.2790176e-8, -3.5423247e-9, 1.3600026e+2
-0.308, 1.2863587e-8, -3.5364933e-9, 1.3633359e+2
-0.309, 1.2936199e-8, -3.5425645e-9, 1.3666692e+2
-0.310, 1.2885474e-8, -3.5479963e-9, 1.3700024e+2
-0.311, 1.2922619e-8, -3.5491943e-9, 1.3733357e+2
-0.312, 1.2935878e-8, -3.5383307e-9, 1.3766690e+2
-0.313, 1.2931245e-8, -3.5281855e-9, 1.3800023e+2
-0.314, 1.2938036e-8, -3.5496739e-9, 1.3833356e+2
-0.315, 1.2936917e-8, -3.5435230e-9, 1.3866689e+2
-0.316, 1.2958485e-8, -3.5401679e-9, 1.3900021e+2
-0.317, 1.2968551e-8, -3.5523895e-9, 1.3933354e+2
-0.318, 1.2970547e-8, -3.5330583e-9, 1.3966687e+2
-0.319, 1.2998506e-8, -3.5412864e-9, 1.4000020e+2
-0.320, 1.2989720e-8, -3.5589400e-9, 1.4033353e+2
-0.321, 1.3032296e-8, -3.5461589e-9, 1.4066685e+2
-0.322, 1.3068882e-8, -3.5392893e-9, 1.4100018e+2
-0.323, 1.3051388e-8, -3.5460792e-9, 1.4133351e+2
-0.324, 1.3025106e-8, -3.5525494e-9, 1.4166684e+2
-0.325, 1.3224410e-8, -3.5389696e-9, 1.4200017e+2
-0.326, 1.3057218e-8, -3.5525494e-9, 1.4233350e+2
-0.327, 1.3189343e-8, -3.5412062e-9, 1.4266682e+2
-0.328, 1.3219297e-8, -3.5484753e-9, 1.4300015e+2
-0.329, 1.3236552e-8, -3.5550261e-9, 1.4333348e+2
-0.330, 1.3228964e-8, -3.5477568e-9, 1.4366681e+2
-0.331, 1.3204120e-8, -3.5352152e-9, 1.4400014e+2
-0.332, 1.3272898e-8, -3.5440821e-9, 1.4433347e+2
-0.333, 1.3305968e-8, -3.5441619e-9, 1.4466679e+2
-0.334, 1.3269304e-8, -3.5547860e-9, 1.4500012e+2
-0.335, 1.3323942e-8, -3.5531085e-9, 1.4533345e+2
-0.336, 1.3329934e-8, -3.5655701e-9, 1.4566678e+2
-0.337, 1.3302055e-8, -3.5447210e-9, 1.4600011e+2
-0.338, 1.3385370e-8, -3.5483159e-9, 1.4633344e+2
-0.339, 1.3347187e-8, -3.5629339e-9, 1.4666676e+2
-0.340, 1.3398232e-8, -3.5421648e-9, 1.4700009e+2
-0.341, 1.3396075e-8, -3.5523098e-9, 1.4733342e+2
-0.342, 1.3368197e-8, -3.5598184e-9, 1.4766675e+2
-0.343, 1.3359569e-8, -3.5467980e-9, 1.4800008e+2
-0.344, 1.3417563e-8, -3.5459993e-9, 1.4833340e+2
-0.345, 1.3402306e-8, -3.5633334e-9, 1.4866673e+2
-0.346, 1.3409496e-8, -3.5459993e-9, 1.4900006e+2
-0.347, 1.3403344e-8, -3.5555050e-9, 1.4933339e+2
-0.348, 1.3413729e-8, -3.5503127e-9, 1.4966672e+2
-0.349, 1.3422595e-8, -3.5547063e-9, 1.5000005e+2
-0.350, 1.3415806e-8, -3.5589400e-9, 1.5033337e+2
-0.351, 1.3437613e-8, -3.5314609e-9, 1.5066670e+2
-0.352, 1.3431622e-8, -3.5585408e-9, 1.5100003e+2
-0.353, 1.3431542e-8, -3.5613366e-9, 1.5133336e+2
-0.354, 1.3445682e-8, -3.5684460e-9, 1.5166669e+2
-0.355, 1.3445282e-8, -3.5491943e-9, 1.5200002e+2
-0.356, 1.3420758e-8, -3.5452803e-9, 1.5233334e+2
-0.357, 1.3483864e-8, -3.5610968e-9, 1.5266667e+2
-0.358, 1.3446081e-8, -3.5499133e-9, 1.5300000e+2
-0.359, 1.3461818e-8, -3.5534282e-9, 1.5333333e+2
-0.360, 1.3478353e-8, -3.5606973e-9, 1.5366666e+2
-0.361, 1.3468448e-8, -3.5606973e-9, 1.5399998e+2
-0.362, 1.3467889e-8, -3.5559844e-9, 1.5433331e+2
-0.363, 1.3486740e-8, -3.5714813e-9, 1.5466664e+2
-0.364, 1.3493450e-8, -3.5637326e-9, 1.5499997e+2
-0.365, 1.3529876e-8, -3.5737180e-9, 1.5533330e+2
-0.366, 1.3511664e-8, -3.5615761e-9, 1.5566663e+2
-0.367, 1.3569577e-8, -3.5660495e-9, 1.5599995e+2
-0.368, 1.3600252e-8, -3.5608572e-9, 1.5633328e+2
-0.369, 1.3518374e-8, -3.5762742e-9, 1.5666661e+2
-0.370, 1.3604085e-8, -3.5613366e-9, 1.5699994e+2
-0.371, 1.3653852e-8, -3.5732388e-9, 1.5733327e+2
-0.372, 1.3577566e-8, -3.5662890e-9, 1.5766660e+2
-0.373, 1.3805066e-8, -3.5649310e-9, 1.5799992e+2
-0.374, 1.3605283e-8, -3.5749164e-9, 1.5833325e+2
-0.375, 1.3641150e-8, -3.5623748e-9, 1.5866658e+2
-0.376, 1.3807384e-8, -3.5635732e-9, 1.5899991e+2
-0.377, 1.3673982e-8, -3.5762742e-9, 1.5933324e+2
-0.378, 1.3804667e-8, -3.5590999e-9, 1.5966656e+2
-0.379, 1.3800115e-8, -3.5702832e-9, 1.5999989e+2
-0.380, 1.3803310e-8, -3.5876970e-9, 1.6033322e+2
-0.381, 1.3817050e-8, -3.5604577e-9, 1.6066655e+2
-0.382, 1.3851798e-8, -3.5853807e-9, 1.6099988e+2
-0.383, 1.3895253e-8, -3.5908927e-9, 1.6133321e+2
-0.384, 1.3893336e-8, -3.5755552e-9, 1.6166653e+2
-0.385, 1.3843890e-8, -3.6015966e-9, 1.6199986e+2
-0.386, 1.3912107e-8, -3.5921703e-9, 1.6233319e+2
-0.387, 1.3903321e-8, -3.5872978e-9, 1.6266652e+2
-0.388, 1.3900845e-8, -3.5942476e-9, 1.6299985e+2
-0.389, 1.3958998e-8, -3.5957652e-9, 1.6333318e+2
-0.390, 1.3927925e-8, -3.5905730e-9, 1.6366650e+2
-0.391, 1.3942862e-8, -3.5827448e-9, 1.6399983e+2
-0.392, 1.3943421e-8, -3.6019958e-9, 1.6433316e+2
-0.393, 1.3921614e-8, -3.5787504e-9, 1.6466649e+2
-0.394, 1.3994545e-8, -3.5860197e-9, 1.6499982e+2
-0.395, 1.3968344e-8, -3.6032741e-9, 1.6533315e+2
-0.396, 1.4024261e-8, -3.5942476e-9, 1.6566647e+2
-0.397, 1.4015154e-8, -3.6025551e-9, 1.6599980e+2
-0.398, 1.4019069e-8, -3.5999987e-9, 1.6633313e+2
-0.399, 1.4120199e-8, -3.5931293e-9, 1.6666646e+2
-0.400, 1.4170284e-8, -3.6063894e-9, 1.6699979e+2
-0.401, 1.4103982e-8, -3.6232441e-9, 1.6733311e+2
-0.402, 1.4235866e-8, -3.6063095e-9, 1.6766644e+2
-0.403, 1.4205831e-8, -3.6091854e-9, 1.6799977e+2
-0.404, 1.4235707e-8, -3.6153363e-9, 1.6833310e+2
-0.405, 1.4339313e-8, -3.6158954e-9, 1.6866643e+2
-0.406, 1.4326532e-8, -3.6117416e-9, 1.6899976e+2
-0.407, 1.4337954e-8, -3.6154959e-9, 1.6933308e+2
-0.408, 1.4386362e-8, -3.6174932e-9, 1.6966641e+2
-0.409, 1.4392434e-8, -3.6192502e-9, 1.6999974e+2
-0.410, 1.4439963e-8, -3.6167742e-9, 1.7033307e+2
-0.411, 1.4399223e-8, -3.6188510e-9, 1.7066640e+2
-0.412, 1.4419913e-8, -3.6346675e-9, 1.7099973e+2
-0.413, 1.4438846e-8, -3.6257208e-9, 1.7133305e+2
-0.414, 1.4432055e-8, -3.6267591e-9, 1.7166638e+2
-0.415, 1.4528312e-8, -3.6227652e-9, 1.7199971e+2
-0.416, 1.4500193e-8, -3.6419365e-9, 1.7233304e+2
-0.417, 1.4512095e-8, -3.6345076e-9, 1.7266637e+2
-0.418, 1.4598607e-8, -3.6464896e-9, 1.7299969e+2
-0.419, 1.4526234e-8, -3.6323506e-9, 1.7333302e+2
-0.420, 1.4568172e-8, -3.6459304e-9, 1.7366635e+2
-0.421, 1.4749423e-8, -3.6447325e-9, 1.7399968e+2
-0.422, 1.4643661e-8, -3.6418568e-9, 1.7433301e+2
-0.423, 1.4754296e-8, -3.6395402e-9, 1.7466634e+2
-0.424, 1.4812049e-8, -3.6449719e-9, 1.7499966e+2
-0.425, 1.4793916e-8, -3.6481671e-9, 1.7533299e+2
-0.426, 1.4833858e-8, -3.6476080e-9, 1.7566632e+2
-0.427, 1.4878032e-8, -3.6456111e-9, 1.7599965e+2
-0.428, 1.4879869e-8, -3.6777232e-9, 1.7633298e+2
-0.429, 1.4891851e-8, -3.6742884e-9, 1.7666631e+2
-0.430, 1.4918850e-8, -3.6409782e-9, 1.7699963e+2
-0.431, 1.4947050e-8, -3.6865901e-9, 1.7733296e+2
-0.432, 1.4919090e-8, -3.6672589e-9, 1.7766629e+2
-0.433, 1.4973251e-8, -3.6961760e-9, 1.7799962e+2
-0.434, 1.5050096e-8, -3.6962557e-9, 1.7833295e+2
-0.435, 1.5170636e-8, -3.7005694e-9, 1.7866628e+2
-0.436, 1.5174312e-8, -3.7117527e-9, 1.7899960e+2
-0.437, 1.5328801e-8, -3.7340397e-9, 1.7933293e+2
-0.438, 1.5259145e-8, -3.7308445e-9, 1.7966626e+2
-0.439, 1.5314184e-8, -3.7357970e-9, 1.7999959e+2
-0.440, 1.5343979e-8, -3.7394714e-9, 1.8033292e+2
-0.441, 1.5368423e-8, -3.7604804e-9, 1.8066624e+2
-0.442, 1.5388393e-8, -3.7472199e-9, 1.8099957e+2
-0.443, 1.5410679e-8, -3.7867616e-9, 1.8133290e+2
-0.444, 1.5422263e-8, -3.7810097e-9, 1.8166623e+2
-0.445, 1.5428254e-8, -3.8273411e-9, 1.8199956e+2
-0.446, 1.5527625e-8, -3.8372461e-9, 1.8233289e+2
-0.447, 1.5585380e-8, -3.8161576e-9, 1.8266621e+2
-0.448, 1.5618371e-8, -3.8225481e-9, 1.8299954e+2
-0.449, 1.5617571e-8, -3.8500274e-9, 1.8333287e+2
-0.450, 1.5809128e-8, -3.9047459e-9, 1.8366620e+2
-0.451, 1.5802177e-8, -3.8648853e-9, 1.8399953e+2
-0.452, 1.5829098e-8, -3.8807015e-9, 1.8433286e+2
-0.453, 1.5886373e-8, -3.9007517e-9, 1.8466618e+2
-0.454, 1.5882298e-8, -3.9037871e-9, 1.8499951e+2
-0.455, 1.5921760e-8, -3.9493995e-9, 1.8533284e+2
-0.456, 1.5989180e-8, -3.9267132e-9, 1.8566617e+2
-0.457, 1.6009151e-8, -3.9555501e-9, 1.8599950e+2
-0.458, 1.6075692e-8, -3.9787160e-9, 1.8633282e+2
-0.459, 1.6224909e-8, -3.9621009e-9, 1.8666615e+2
-0.460, 1.6315495e-8, -3.9901389e-9, 1.8699948e+2
-0.461, 1.6329873e-8, -3.9968491e-9, 1.8733281e+2
-0.462, 1.6355196e-8, -3.9996451e-9, 1.8766614e+2
-0.463, 1.6372610e-8, -3.9964494e-9, 1.8799947e+2
-0.464, 1.6415667e-8, -4.0019614e-9, 1.8833279e+2
-0.465, 1.6441069e-8, -4.0270440e-9, 1.8866612e+2
-0.466, 1.6517754e-8, -4.0457362e-9, 1.8899945e+2
-0.467, 1.6633342e-8, -4.0306385e-9, 1.8933278e+2
-0.468, 1.6644366e-8, -4.0365498e-9, 1.8966611e+2
-0.469, 1.6834804e-8, -4.0572390e-9, 1.8999944e+2
-0.470, 1.6795420e-8, -4.0634700e-9, 1.9033276e+2
-0.471, 1.6849500e-8, -4.0804049e-9, 1.9066609e+2
-0.472, 1.6910210e-8, -4.0718575e-9, 1.9099942e+2
-0.473, 1.6923790e-8, -4.1003747e-9, 1.9133275e+2
-0.474, 1.6989853e-8, -4.1074046e-9, 1.9166608e+2
-0.475, 1.7157443e-8, -4.0986974e-9, 1.9199940e+2
-0.476, 1.7198023e-8, -4.1207446e-9, 1.9233273e+2
-0.477, 1.7292681e-8, -4.1169903e-9, 1.9266606e+2
-0.478, 1.7328070e-8, -4.1369606e-9, 1.9299939e+2
-0.479, 1.7393571e-8, -4.1519783e-9, 1.9333272e+2
-0.480, 1.7428400e-8, -4.1324872e-9, 1.9366605e+2
-0.481, 1.7491187e-8, -4.1995074e-9, 1.9399937e+2
-0.482, 1.7698639e-8, -4.1995878e-9, 1.9433270e+2
-0.483, 1.7729871e-8, -4.2363326e-9, 1.9466603e+2
-0.484, 1.7771889e-8, -4.2232324e-9, 1.9499936e+2
-0.485, 1.7841947e-8, -4.3065485e-9, 1.9533269e+2
-0.486, 1.7890354e-8, -4.3343471e-9, 1.9566602e+2
-0.487, 1.7967839e-8, -4.3764445e-9, 1.9599934e+2
-0.488, 1.8141421e-8, -4.4013677e-9, 1.9633267e+2
-0.489, 1.8153562e-8, -4.4060009e-9, 1.9666600e+2
-0.490, 1.8271386e-8, -4.4459414e-9, 1.9699933e+2
-0.491, 1.8325547e-8, -4.4751780e-9, 1.9733266e+2
-0.492, 1.8367803e-8, -4.4993023e-9, 1.9766599e+2
-0.493, 1.8445768e-8, -4.5114441e-9, 1.9799931e+2
-0.494, 1.8535316e-8, -4.4988226e-9, 1.9833264e+2
-0.495, 1.8658172e-8, -4.5299759e-9, 1.9866597e+2
-0.496, 1.8764014e-8, -4.5442747e-9, 1.9899930e+2
-0.497, 1.8807070e-8, -4.5757482e-9, 1.9933263e+2
-0.498, 1.8936477e-8, -4.5771062e-9, 1.9966595e+2
-0.499, 1.8980412e-8, -4.6033870e-9, 1.9999928e+2
-0.500, 1.8721357e-8, -4.6092188e-9, 2.0033261e+2
-0.499, 1.2871895e-8, -4.5906066e-9, 2.0066594e+2
-0.498, 1.1453444e-8, -4.5838959e-9, 2.0099927e+2
-0.497, 1.0458922e-8, -4.5572954e-9, 2.0133260e+2
-0.496, 9.6458113e-9, -4.5211097e-9, 2.0166592e+2
-0.495, 9.0624379e-9, -4.4907549e-9, 2.0199925e+2
-0.494, 8.4693994e-9, -4.4331605e-9, 2.0233258e+2
-0.493, 7.9197369e-9, -4.4040034e-9, 2.0266591e+2
-0.492, 7.5018782e-9, -4.3248414e-9, 2.0299924e+2
-0.491, 6.9866442e-9, -4.2969628e-9, 2.0333257e+2
-0.490, 6.6048118e-9, -4.2310608e-9, 2.0366589e+2
-0.489, 6.1359087e-9, -4.1880845e-9, 2.0399922e+2
-0.488, 5.7832330e-9, -4.1375996e-9, 2.0433255e+2
-0.487, 5.5232996e-9, -4.1364814e-9, 2.0466588e+2
-0.486, 5.1089555e-9, -4.1209045e-9, 2.0499921e+2
-0.485, 4.8137947e-9, -4.0954227e-9, 2.0533253e+2
-0.484, 4.6055439e-9, -4.0875943e-9, 2.0566586e+2
-0.483, 4.1773007e-9, -4.0634700e-9, 2.0599919e+2
-0.482, 4.0706589e-9, -4.0625912e-9, 2.0633252e+2
-0.481, 3.6504839e-9, -4.0363104e-9, 2.0666585e+2
-0.480, 3.5428838e-9, -4.0075530e-9, 2.0699918e+2
-0.479, 3.2395746e-9, -4.0004435e-9, 2.0733250e+2
-0.478, 3.0276499e-9, -3.9824704e-9, 2.0766583e+2
-0.477, 2.9005587e-9, -3.9499586e-9, 2.0799916e+2
-0.476, 2.6713796e-9, -3.9506776e-9, 2.0833249e+2
-0.475, 2.4652860e-9, -3.9423700e-9, 2.0866582e+2
-0.474, 2.2711746e-9, -3.8851748e-9, 2.0899915e+2
-0.473, 2.0978324e-9, -3.8612105e-9, 2.0933247e+2
-0.472, 1.9300017e-9, -3.8271812e-9, 2.0966580e+2
-0.471, 1.7211922e-9, -3.7419481e-9, 2.0999913e+2
-0.470, 1.6458642e-9, -3.7516137e-9, 2.1033246e+2
-0.469, 1.5220483e-9, -3.7550483e-9, 2.1066579e+2
-0.468, 1.2352747e-9, -3.6960961e-9, 2.1099911e+2
-0.467, 1.1846299e-9, -3.6629453e-9, 2.1133244e+2
-0.466, 1.1348639e-9, -3.6732499e-9, 2.1166577e+2
-0.465, 8.0535373e-10, -3.6670194e-9, 2.1199910e+2
-0.464, 7.4041034e-10, -3.6408183e-9, 2.1233243e+2
-0.463, 6.9256145e-10, -3.6361054e-9, 2.1266576e+2
-0.462, 5.0364235e-10, -3.6258807e-9, 2.1299908e+2
-0.461, 4.0187365e-10, -3.6206083e-9, 2.1333241e+2
-0.460, 2.3420293e-10, -3.6214072e-9, 2.1366574e+2
-0.459, 1.9234515e-10, -3.6085461e-9, 2.1399907e+2
-0.458, 1.6326838e-10, -3.6138983e-9, 2.1433240e+2
-0.457, -1.4707013e-11, -3.5901737e-9, 2.1466573e+2
-0.456, -1.9156408e-10, -3.5991203e-9, 2.1499905e+2
-0.455, -2.6130040e-10, -3.5793897e-9, 2.1533238e+2
-0.454, -2.8846001e-10, -3.5569430e-9, 2.1566571e+2
-0.453, -3.3838579e-10, -3.5801087e-9, 2.1599904e+2
-0.452, -4.7865722e-10, -3.5610170e-9, 2.1633237e+2
-0.451, -5.6900296e-10, -3.5479162e-9, 2.1666570e+2
-0.450, -6.6454092e-10, -3.5661292e-9, 2.1699902e+2
-0.449, -7.7901069e-10, -3.5373722e-9, 2.1733235e+2
-0.448, -7.8851659e-10, -3.5277863e-9, 2.1766568e+2
-0.447, -8.0617035e-10, -3.5258692e-9, 2.1799901e+2
-0.446, -9.7280262e-10, -3.5309815e-9, 2.1833234e+2
-0.445, -9.4620212e-10, -3.5226739e-9, 2.1866566e+2
-0.444, -1.0887102e-9, -3.5034224e-9, 2.1899899e+2
-0.443, -1.2196356e-9, -3.5025436e-9, 2.1933232e+2
-0.442, -1.2340142e-9, -3.5026237e-9, 2.1966565e+2
-0.441, -1.2869755e-9, -3.4896828e-9, 2.1999898e+2
-0.440, -1.3071055e-9, -3.4860883e-9, 2.2033231e+2
-0.439, -1.3669366e-9, -3.4736269e-9, 2.2066563e+2
-0.438, -1.4020843e-9, -3.4689938e-9, 2.2099896e+2
-0.437, -1.5037732e-9, -3.4489434e-9, 2.2133229e+2
-0.436, -1.6935711e-9, -3.4661181e-9, 2.2166562e+2
-0.435, -1.7253637e-9, -3.4435117e-9, 2.2199895e+2
-0.434, -1.7236064e-9, -3.4260177e-9, 2.2233228e+2
-0.433, -1.8321651e-9, -3.4446299e-9, 2.2266560e+2
-0.432, -1.8042865e-9, -3.3822425e-9, 2.2299893e+2
-0.431, -1.8721855e-9, -3.4367216e-9, 2.2333226e+2
-0.430, -2.0015132e-9, -3.4027723e-9, 2.2366559e+2
-0.429, -1.9551023e-9, -3.3861571e-9, 2.2399892e+2
-0.428, -2.0804358e-9, -3.3759322e-9, 2.2433224e+2
-0.427, -2.2100031e-9, -3.3464558e-9, 2.2466557e+2
-0.426, -2.1873170e-9, -3.3446186e-9, 2.2499890e+2
-0.425, -2.2401183e-9, -3.3253673e-9, 2.2533223e+2
-0.424, -2.2589703e-9, -3.3301599e-9, 2.2566556e+2
-0.423, -2.2655207e-9, -3.2571488e-9, 2.2599889e+2
-0.422, -2.3168842e-9, -3.3135448e-9, 2.2633221e+2
-0.421, -2.3150470e-9, -3.3076335e-9, 2.2666554e+2
-0.420, -2.4168958e-9, -3.2799148e-9, 2.2699887e+2
-0.419, -2.4422979e-9, -3.2773584e-9, 2.2733220e+2
-0.418, -2.4793627e-9, -3.2547522e-9, 2.2766553e+2
-0.417, -2.6638884e-9, -3.2512375e-9, 2.2799886e+2
-0.416, -2.6023002e-9, -3.2184062e-9, 2.2833218e+2
-0.415, -2.6574181e-9, -3.2128946e-9, 2.2866551e+2
-0.414, -2.7399354e-9, -3.2065037e-9, 2.2899884e+2
-0.413, -2.7489619e-9, -3.1951606e-9, 2.2933217e+2
-0.412, -2.7031102e-9, -3.2032288e-9, 2.2966550e+2
-0.411, -2.8627927e-9, -3.2301490e-9, 2.2999883e+2
-0.410, -2.7544738e-9, -3.1977170e-9, 2.3033215e+2
-0.409, -2.9516207e-9, -3.2006726e-9, 2.3066548e+2
-0.408, -2.9465084e-9, -3.1811018e-9, 2.3099881e+2
-0.407, -2.8899523e-9, -3.1800631e-9, 2.3133214e+2
-0.406, -2.9537774e-9, -3.1596936e-9, 2.3166547e+2
-0.405, -3.0481970e-9, -3.1695191e-9, 2.3199879e+2
-0.404, -3.1443741e-9, -3.1482705e-9, 2.3233212e+2
-0.403, -3.0634544e-9, -3.1624094e-9, 2.3266545e+2
-0.402, -3.1193712e-9, -3.1505871e-9, 2.3299878e+2
-0.401, -3.2233767e-9, -3.1449956e-9, 2.3333211e+2
-0.400, -3.2501370e-9, -3.1514655e-9, 2.3366544e+2
-0.399, -3.2387939e-9, -3.1493887e-9, 2.3399876e+2
-0.398, -3.2738616e-9, -3.1304568e-9, 2.3433209e+2
-0.397, -3.2467820e-9, -3.1389245e-9, 2.3466542e+2
-0.396, -3.3087697e-9, -3.1247056e-9, 2.3499875e+2
-0.395, -3.3260241e-9, -3.1267025e-9, 2.3533208e+2
-0.394, -3.3393641e-9, -3.1167173e-9, 2.3566541e+2
-0.393, -3.3517458e-9, -3.1119247e-9, 2.3599873e+2
-0.392, -3.3744321e-9, -3.1213505e-9, 2.3633206e+2
-0.391, -3.3934437e-9, -3.1408414e-9, 2.3666539e+2
-0.390, -3.3619707e-9, -3.1193537e-9, 2.3699872e+2
-0.389, -3.6039307e-9, -3.1327736e-9, 2.3733205e+2
-0.388, -3.5056771e-9, -3.0851643e-9, 2.3766537e+2
-0.387, -3.6377208e-9, -3.1502676e-9, 2.3799870e+2
-0.386, -3.6004160e-9, -3.1136820e-9, 2.3833203e+2
-0.385, -3.6713508e-9, -3.0657532e-9, 2.3866536e+2
-0.384, -3.6640815e-9, -3.1213505e-9, 2.3899869e+2
-0.383, -3.6734276e-9, -3.0945104e-9, 2.3933202e+2
-0.382, -3.7531493e-9, -3.0852443e-9, 2.3966534e+2
-0.381, -3.7158445e-9, -3.0923537e-9, 2.3999867e+2
-0.380, -3.7661696e-9, -3.1006615e-9, 2.4033200e+2
-0.379, -3.7835042e-9, -3.0806910e-9, 2.4066533e+2
-0.378, -3.7454004e-9, -3.1035370e-9, 2.4099866e+2
-0.377, -3.7458796e-9, -3.0826082e-9, 2.4133199e+2
-0.376, -3.8123411e-9, -3.0440255e-9, 2.4166531e+2
-0.375, -3.7747170e-9, -3.0526526e-9, 2.4199864e+2
-0.374, -3.8562757e-9, -3.0827678e-9, 2.4233197e+2
-0.373, -3.9634767e-9, -3.1008209e-9, 2.4266530e+2
-0.372, -4.0381654e-9, -3.0814897e-9, 2.4299863e+2
-0.371, -3.9633963e-9, -3.0707057e-9, 2.4333195e+2
-0.370, -3.8741690e-9, -3.0711851e-9, 2.4366528e+2
-0.369, -4.1052655e-9, -3.0617591e-9, 2.4399861e+2
-0.368, -4.0622896e-9, -3.0471410e-9, 2.4433194e+2
-0.367, -4.1355404e-9, -3.0468212e-9, 2.4466527e+2
-0.366, -4.1836290e-9, -3.0597622e-9, 2.4499860e+2
-0.365, -4.1645376e-9, -3.0404310e-9, 2.4533192e+2
-0.364, -4.1792356e-9, -3.0451437e-9, 2.4566525e+2
-0.363, -4.1974486e-9, -3.0381144e-9, 2.4599858e+2
-0.362, -4.1557504e-9, -3.0286882e-9, 2.4633191e+2
-0.361, -4.2234096e-9, -3.0265315e-9, 2.4666524e+2
-0.360, -4.2136645e-9, -3.0437060e-9, 2.4699857e+2
-0.359, -4.2619126e-9, -3.0345195e-9, 2.4733189e+2
-0.358, -4.2447383e-9, -3.0352385e-9, 2.4766522e+2
-0.357, -4.2326760e-9, -3.0244547e-9, 2.4799855e+2
-0.356, -4.3131965e-9, -3.0297269e-9, 2.4833188e+2
-0.355, -4.2583181e-9, -3.0238956e-9, 2.4866521e+2
-0.354, -4.3167110e-9, -3.0201410e-9, 2.4899854e+2
-0.353, -4.4772728e-9, -3.0146292e-9, 2.4933186e+2
-0.352, -4.4080957e-9, -3.0100760e-9, 2.4966519e+2
-0.351, -4.3980299e-9, -3.0169458e-9, 2.4999852e+2
-0.350, -4.5021156e-9, -3.0076794e-9, 2.5033185e+2
-0.349, -4.4016248e-9, -3.0179841e-9, 2.5066518e+2
-0.348, -4.4842223e-9, -2.9928218e-9, 2.5099850e+2
-0.347, -4.5672985e-9, -2.9990523e-9, 2.5133183e+2
-0.346, -4.6066000e-9, -2.9948186e-9, 2.5166516e+2
-0.345, -4.6228159e-9, -3.0087979e-9, 2.5199849e+2
-0.344, -4.5940589e-9, -3.0009695e-9, 2.5233182e+2
-0.343, -4.6529314e-9, -2.9931411e-9, 2.5266515e+2
-0.342, -4.6860023e-9, -2.9875495e-9, 2.5299847e+2
-0.341, -4.6100355e-9, -2.9903453e-9, 2.5333180e+2
-0.340, -4.7033364e-9, -2.9860319e-9, 2.5366513e+2
-0.339, -4.6756177e-9, -2.9897063e-9, 2.5399846e+2
-0.338, -4.6885584e-9, -2.9789222e-9, 2.5433179e+2
-0.337, -4.7329722e-9, -2.9775644e-9, 2.5466512e+2
-0.336, -4.7362474e-9, -2.9710940e-9, 2.5499844e+2
-0.335, -4.7176352e-9, -2.9747687e-9, 2.5533177e+2
-0.334, -4.7995932e-9, -2.9758869e-9, 2.5566510e+2
-0.333, -4.7399218e-9, -2.9627865e-9, 2.5599843e+2
-0.332, -4.7625286e-9, -2.9569549e-9, 2.5633176e+2
-0.331, -4.8020694e-9, -2.9562359e-9, 2.5666510e+2
-0.330, -4.7859334e-9, -2.9435350e-9, 2.5699844e+2
-0.329, -4.8207620e-9, -2.9381828e-9, 2.5733179e+2
-0.328, -4.8226787e-9, -2.9417775e-9, 2.5766513e+2
-0.327, -4.8424096e-9, -2.9293161e-9, 2.5799847e+2
-0.326, -4.9097495e-9, -2.9292362e-9, 2.5833182e+2
-0.325, -4.8691700e-9, -2.9219671e-9, 2.5866516e+2
-0.324, -4.9432196e-9, -2.9347480e-9, 2.5899850e+2
-0.323, -4.9474536e-9, -2.8837039e-9, 2.5933185e+2
-0.322, -4.9074331e-9, -2.9086269e-9, 2.5966519e+2
-0.321, -5.0747841e-9, -2.9047127e-9, 2.5999854e+2
-0.320, -5.0896420e-9, -2.9034344e-9, 2.6033188e+2
-0.319, -5.0895621e-9, -2.8887364e-9, 2.6066522e+2
-0.318, -5.1412452e-9, -2.8837837e-9, 2.6099857e+2
-0.317, -5.1032218e-9, -2.8551064e-9, 2.6133191e+2
-0.316, -5.1416444e-9, -2.8957661e-9, 2.6166525e+2
-0.315, -5.2319105e-9, -2.8366538e-9, 2.6199860e+2
-0.314, -5.2025144e-9, -2.8348166e-9, 2.6233194e+2
-0.313, -5.2092242e-9, -2.8535887e-9, 2.6266528e+2
-0.312, -5.2459694e-9, -2.8293847e-9, 2.6299863e+2
-0.311, -5.1865379e-9, -2.8060594e-9, 2.6333197e+2
-0.310, -5.2674576e-9, -2.8035032e-9, 2.6366531e+2
-0.309, -5.2352656e-9, -2.8010267e-9, 2.6399866e+2
-0.308, -5.2671383e-9, -2.7825742e-9, 2.6433200e+2
-0.307, -5.3612381e-9, -2.7959144e-9, 2.6466534e+2
-0.306, -5.2760050e-9, -2.7701925e-9, 2.6499869e+2
-0.305, -5.3186615e-9, -2.7621245e-9, 2.6533203e+2
-0.304, -5.3108331e-9, -2.7630034e-9, 2.6566537e+2
-0.303, -5.3042828e-9, -2.7553346e-9, 2.6599872e+2
-0.302, -5.4522227e-9, -2.7887253e-9, 2.6633206e+2
-0.301, -5.3264899e-9, -2.7460685e-9, 2.6666541e+2
-0.300, -5.3553268e-9, -2.7324087e-9, 2.6699875e+2
-0.299, -5.4793028e-9, -2.7399976e-9, 2.6733209e+2
-0.298, -5.4038951e-9, -2.7195479e-9, 2.6766544e+2
-0.297, -5.4183533e-9, -2.7084444e-9, 2.6799878e+2
-0.296, -5.5050244e-9, -2.7103617e-9, 2.6833212e+2
-0.295, -5.5043059e-9, -2.7016545e-9, 2.6866547e+2
-0.294, -5.5484799e-9, -2.7220242e-9, 2.6899881e+2
-0.293, -5.5899383e-9, -2.6895126e-9, 2.6933215e+2
-0.292, -5.6281215e-9, -2.6879148e-9, 2.6966550e+2
-0.291, -5.5945715e-9, -2.6816043e-9, 2.6999884e+2
-0.290, -5.6332339e-9, -2.6913498e-9, 2.7033218e+2
-0.289, -5.7004139e-9, -2.6836013e-9, 2.7066553e+2
-0.288, -5.6838787e-9, -2.6787288e-9, 2.7099887e+2
-0.287, -5.6734937e-9, -2.6658677e-9, 2.7133221e+2
-0.286, -5.7432303e-9, -2.6652287e-9, 2.7166556e+2
-0.285, -5.7000942e-9, -2.6462970e-9, 2.7199890e+2
-0.284, -5.7173488e-9, -2.6450186e-9, 2.7233224e+2
-0.283, -5.7431504e-9, -2.6399862e-9, 2.7266559e+2
-0.282, -5.7358811e-9, -2.6362319e-9, 2.7299893e+2
-0.281, -5.7275735e-9, -2.6031610e-9, 2.7333228e+2
-0.280, -6.1330510e-9, -2.6355929e-9, 2.7366562e+2
-0.279, -5.7847687e-9, -2.6264064e-9, 2.7399896e+2
-0.278, -5.9736078e-9, -2.6276845e-9, 2.7433231e+2
-0.277, -5.9154539e-9, -2.5947735e-9, 2.7466565e+2
-0.276, -6.0631549e-9, -2.6335158e-9, 2.7499899e+2
-0.275, -6.0464593e-9, -2.5950930e-9, 2.7533234e+2
-0.274, -6.1246634e-9, -2.6261666e-9, 2.7566568e+2
-0.273, -6.0374328e-9, -2.5892615e-9, 2.7599902e+2
-0.272, -6.2015890e-9, -2.6088325e-9, 2.7633237e+2
-0.271, -6.1149179e-9, -2.5943740e-9, 2.7666571e+2
-0.270, -6.2292278e-9, -2.5921374e-9, 2.7699905e+2
-0.269, -6.2006302e-9, -2.5757616e-9, 2.7733240e+2
-0.268, -6.2138903e-9, -2.5595459e-9, 2.7766574e+2
-0.267, -6.3568777e-9, -2.5688918e-9, 2.7799908e+2
-0.266, -6.2334617e-9, -2.5415725e-9, 2.7833243e+2
-0.265, -6.2823489e-9, -2.5426907e-9, 2.7866577e+2
-0.264, -6.3468928e-9, -2.5364599e-9, 2.7899911e+2
-0.263, -6.3520051e-9, -2.5141733e-9, 2.7933246e+2
-0.262, -6.4404340e-9, -2.5196851e-9, 2.7966580e+2
-0.261, -6.5087318e-9, -2.5160904e-9, 2.7999915e+2
-0.260, -6.6196875e-9, -2.5044278e-9, 2.8033249e+2
-0.259, -6.5795072e-9, -2.4922058e-9, 2.8066583e+2
-0.258, -6.6228822e-9, -2.4823805e-9, 2.8099918e+2
-0.257, -6.6775212e-9, -2.4656055e-9, 2.8133252e+2
-0.256, -6.6599473e-9, -2.4312565e-9, 2.8166586e+2
-0.255, -6.6835120e-9, -2.4140820e-9, 2.8199921e+2
-0.254, -6.7635537e-9, -2.4100080e-9, 2.8233255e+2
-0.253, -6.7491750e-9, -2.3746207e-9, 2.8266589e+2
-0.252, -6.7574026e-9, -2.3846858e-9, 2.8299924e+2
-0.251, -6.8296151e-9, -2.3075204e-9, 2.8333258e+2
-0.250, -6.8469497e-9, -2.2968163e-9, 2.8366592e+2
-0.249, -7.0047945e-9, -2.2545592e-9, 2.8399927e+2
-0.248, -6.9811503e-9, -2.2405799e-9, 2.8433261e+2
-0.247, -7.0337118e-9, -2.2154971e-9, 2.8466595e+2
-0.246, -7.0513653e-9, -2.1968849e-9, 2.8499930e+2
-0.245, -7.0830786e-9, -2.1867401e-9, 2.8533264e+2
-0.244, -7.1839685e-9, -2.1878583e-9, 2.8566599e+2
-0.243, -7.1739032e-9, -2.1733200e-9, 2.8599933e+2
-0.242, -7.2322170e-9, -2.1579030e-9, 2.8633267e+2
-0.241, -7.2410034e-9, -2.1546278e-9, 2.8666602e+2
-0.240, -7.2635302e-9, -2.1524711e-9, 2.8699936e+2
-0.239, -7.2616131e-9, -2.1540687e-9, 2.8733270e+2
-0.238, -7.3934170e-9, -2.1277877e-9, 2.8766605e+2
-0.237, -7.3206450e-9, -2.1219564e-9, 2.8799939e+2
-0.236, -7.3655384e-9, -2.1214770e-9, 2.8833273e+2
-0.235, -7.5556557e-9, -2.1134090e-9, 2.8866608e+2
-0.234, -7.5161939e-9, -2.0983115e-9, 2.8899942e+2
-0.233, -7.5637239e-9, -2.1117315e-9, 2.8933276e+2
-0.232, -7.6108542e-9, -2.1063795e-9, 2.8966611e+2
-0.231, -7.6209989e-9, -2.0821755e-9, 2.8999945e+2
-0.230, -7.6610993e-9, -2.0757052e-9, 2.9033279e+2
-0.229, -7.6417681e-9, -2.0739477e-9, 2.9066614e+2
-0.228, -7.6815487e-9, -2.0550157e-9, 2.9099948e+2
-0.227, -7.6934512e-9, -2.0688353e-9, 2.9133282e+2
-0.226, -7.6885787e-9, -2.0519804e-9, 2.9166617e+2
-0.225, -7.8034477e-9, -2.0518207e-9, 2.9199951e+2
-0.224, -7.7504856e-9, -2.0295337e-9, 2.9233286e+2
-0.223, -7.7837967e-9, -2.0398385e-9, 2.9266620e+2
-0.222, -8.0066656e-9, -2.0445514e-9, 2.9299954e+2
-0.221, -7.8446654e-9, -2.0226640e-9, 2.9333289e+2
-0.220, -7.9675235e-9, -2.0330486e-9, 2.9366623e+2
-0.219, -8.0688132e-9, -2.0110014e-9, 2.9399957e+2
-0.218, -8.0037097e-9, -2.0264184e-9, 2.9433292e+2
-0.217, -8.0566709e-9, -2.0247410e-9, 2.9466626e+2
-0.216, -8.0877447e-9, -1.9989392e-9, 2.9499960e+2
-0.215, -8.1402263e-9, -1.9988593e-9, 2.9533295e+2
-0.214, -8.1311207e-9, -1.9963831e-9, 2.9566629e+2
-0.213, -8.1173805e-9, -1.9735371e-9, 2.9599963e+2
-0.212, -8.1942257e-9, -1.9548447e-9, 2.9633298e+2
-0.211, -8.2074072e-9, -1.9703419e-9, 2.9666632e+2
-0.210, -8.2042115e-9, -1.9566821e-9, 2.9699966e+2
-0.209, -8.2427940e-9, -1.9738566e-9, 2.9733301e+2
-0.208, -8.2348866e-9, -1.9616346e-9, 2.9766635e+2
-0.207, -8.2402378e-9, -1.9549247e-9, 2.9799969e+2
-0.206, -8.4845944e-9, -1.9347945e-9, 2.9833304e+2
-0.205, -8.2886462e-9, -1.9329573e-9, 2.9866638e+2
-0.204, -8.2509422e-9, -1.9272060e-9, 2.9899973e+2
-0.203, -8.4595921e-9, -1.9051587e-9, 2.9933307e+2
-0.202, -8.3821874e-9, -1.9123481e-9, 2.9966641e+2
-0.201, -8.4943403e-9, -1.9284840e-9, 2.9999976e+2
-0.200, -8.5556886e-9, -1.9079547e-9, 3.0033310e+2
-0.199, -8.5528935e-9, -1.9146646e-9, 3.0066644e+2
-0.198, -8.5629583e-9, -1.9427826e-9, 3.0099979e+2
-0.197, -8.5778167e-9, -1.8833510e-9, 3.0133313e+2
-0.196, -8.6163983e-9, -1.8888628e-9, 3.0166647e+2
-0.195, -8.6076115e-9, -1.8594666e-9, 3.0199982e+2
-0.194, -8.6065732e-9, -1.8289520e-9, 3.0233316e+2
-0.193, -8.6608924e-9, -1.8498808e-9, 3.0266650e+2
-0.192, -8.6271825e-9, -1.8426117e-9, 3.0299985e+2
-0.191, -8.6153609e-9, -1.8470850e-9, 3.0333319e+2
-0.190, -8.6991561e-9, -1.8791975e-9, 3.0366653e+2
-0.189, -8.6513872e-9, -1.8498808e-9, 3.0399988e+2
-0.188, -8.6723153e-9, -1.8460465e-9, 3.0433322e+2
-0.187, -8.7212833e-9, -1.8391768e-9, 3.0466656e+2
-0.186, -8.6626502e-9, -1.8532358e-9, 3.0499991e+2
-0.185, -8.7458867e-9, -1.8179285e-9, 3.0533325e+2
-0.184, -8.7682528e-9, -1.8242389e-9, 3.0566660e+2
-0.183, -8.7269543e-9, -1.8288721e-9, 3.0599994e+2
-0.182, -8.7447685e-9, -1.8078633e-9, 3.0633328e+2
-0.181, -8.7442880e-9, -1.7995557e-9, 3.0666663e+2
-0.180, -8.8036405e-9, -1.7806238e-9, 3.0699997e+2
-0.179, -8.8205745e-9, -1.7870143e-9, 3.0733331e+2
-0.178, -8.8075538e-9, -1.7707186e-9, 3.0766666e+2
-0.177, -8.9283345e-9, -1.8052273e-9, 3.0800000e+2
-0.176, -8.8774508e-9, -1.7825410e-9, 3.0833334e+2
-0.175, -8.8603560e-9, -1.7894108e-9, 3.0866669e+2
-0.174, -8.9913614e-9, -1.7688013e-9, 3.0900003e+2
-0.173, -8.8820835e-9, -1.7638488e-9, 3.0933337e+2
-0.172, -8.9916812e-9, -1.7494701e-9, 3.0966672e+2
-0.171, -9.0892156e-9, -1.7773487e-9, 3.1000006e+2
-0.170, -8.9900833e-9, -1.7801445e-9, 3.1033340e+2
-0.169, -8.9831342e-9, -1.7703989e-9, 3.1066675e+2
-0.168, -9.0495949e-9, -1.7775085e-9, 3.1100009e+2
-0.167, -9.0732399e-9, -1.7583370e-9, 3.1133344e+2
-0.166, -8.9364827e-9, -1.7334938e-9, 3.1166678e+2
-0.165, -9.0892955e-9, -1.7528251e-9, 3.1200012e+2
-0.164, -9.0960057e-9, -1.7454760e-9, 3.1233347e+2
-0.163, -9.0630952e-9, -1.7280620e-9, 3.1266681e+2
-0.162, -9.0842631e-9, -1.7279821e-9, 3.1300015e+2
-0.161, -9.1502450e-9, -1.7328550e-9, 3.1333350e+2
-0.160, -9.1021573e-9, -1.7516268e-9, 3.1366684e+2
-0.159, -9.1230055e-9, -1.7326951e-9, 3.1400018e+2
-0.158, -9.1679793e-9, -1.7481921e-9, 3.1433353e+2
-0.157, -9.1516830e-9, -1.7109674e-9, 3.1466687e+2
-0.156, -9.1386623e-9, -1.6945917e-9, 3.1500021e+2
-0.155, -9.1967358e-9, -1.7203136e-9, 3.1533356e+2
-0.154, -9.1627870e-9, -1.7119259e-9, 3.1566690e+2
-0.153, -9.1564765e-9, -1.7080117e-9, 3.1600024e+2
-0.152, -9.1857917e-9, -1.7071331e-9, 3.1633359e+2
-0.151, -9.1799608e-9, -1.7097691e-9, 3.1666693e+2
-0.150, -9.1815586e-9, -1.7080917e-9, 3.1700027e+2
-0.149, -9.2012096e-9, -1.6974675e-9, 3.1733362e+2
-0.148, -9.1912238e-9, -1.7092100e-9, 3.1766696e+2
-0.147, -9.2065608e-9, -1.7104881e-9, 3.1800031e+2
-0.146, -9.2127124e-9, -1.6952308e-9, 3.1833365e+2
-0.145, -9.2449843e-9, -1.6869233e-9, 3.1866699e+2
-0.144, -9.2358778e-9, -1.6866036e-9, 3.1900034e+2
-0.143, -9.2246148e-9, -1.6932337e-9, 3.1933368e+2
-0.142, -9.3141619e-9, -1.7040975e-9, 3.1966702e+2
-0.141, -9.2422683e-9, -1.6869233e-9, 3.2000037e+2
-0.140, -9.2356380e-9, -1.6809321e-9, 3.2033371e+2
-0.139, -9.4376578e-9, -1.6849261e-9, 3.2066705e+2
-0.138, -9.2624788e-9, -1.6892396e-9, 3.2100040e+2
-0.137, -9.2817292e-9, -1.6854054e-9, 3.2133374e+2
-0.136, -9.3262233e-9, -1.6739026e-9, 3.2166708e+2
-0.135, -9.3975574e-9, -1.6746213e-9, 3.2200043e+2
-0.134, -9.3310959e-9, -1.6825297e-9, 3.2233377e+2
-0.133, -9.3660839e-9, -1.6782961e-9, 3.2266711e+2
-0.132, -9.5003641e-9, -1.6738226e-9, 3.2300046e+2
-0.131, -9.4621813e-9, -1.6693493e-9, 3.2333380e+2
-0.130, -9.3621706e-9, -1.6856451e-9, 3.2366714e+2
-0.129, -9.5674650e-9, -1.6743019e-9, 3.2400049e+2
-0.128, -9.5369508e-9, -1.6670327e-9, 3.2433383e+2
-0.127, -9.5511687e-9, -1.6737428e-9, 3.2466718e+2
-0.126, -9.5732160e-9, -1.6704677e-9, 3.2500052e+2
-0.125, -9.5749737e-9, -1.6699085e-9, 3.2533386e+2
-0.124, -9.5846397e-9, -1.6505772e-9, 3.2566721e+2
-0.123, -9.6106803e-9, -1.6626391e-9, 3.2600055e+2
-0.122, -9.6025330e-9, -1.6611215e-9, 3.2633389e+2
-0.121, -9.6197867e-9, -1.6661540e-9, 3.2666724e+2
-0.120, -9.6152339e-9, -1.6639973e-9, 3.2700058e+2
-0.119, -9.6344053e-9, -1.6531333e-9, 3.2733392e+2
-0.118, -9.6495825e-9, -1.6644764e-9, 3.2766727e+2
-0.117, -9.6590087e-9, -1.6528139e-9, 3.2800061e+2
-0.116, -9.6559738e-9, -1.6560890e-9, 3.2833395e+2
-0.115, -9.6952748e-9, -1.6469026e-9, 3.2866730e+2
-0.114, -9.6876063e-9, -1.6538524e-9, 3.2900064e+2
-0.113, -9.9036850e-9, -1.6514559e-9, 3.2933398e+2
-0.112, -9.7677271e-9, -1.6544914e-9, 3.2966733e+2
-0.111, -9.7915311e-9, -1.6528139e-9, 3.3000067e+2
-0.110, -9.9449835e-9, -1.6481009e-9, 3.3033401e+2
-0.109, -9.8273185e-9, -1.6463435e-9, 3.3066736e+2
-0.108, -9.9744595e-9, -1.6516156e-9, 3.3100070e+2
-0.107, -1.0053622e-8, -1.6442666e-9, 3.3133405e+2
-0.106, -9.9611190e-9, -1.6449057e-9, 3.3166739e+2
-0.105, -1.0065764e-8, -1.6455447e-9, 3.3200073e+2
-0.104, -1.0075509e-8, -1.6412310e-9, 3.3233408e+2
-0.103, -1.0094522e-8, -1.6425092e-9, 3.3266742e+2
-0.102, -1.0205476e-8, -1.6544914e-9, 3.3300076e+2
-0.101, -1.0138456e-8, -1.6365979e-9, 3.3333411e+2
-0.100, -1.0186784e-8, -1.6365979e-9, 3.3366745e+2
-0.099, -1.0186864e-8, -1.6437074e-9, 3.3400079e+2
-0.098, -1.0179035e-8, -1.6280506e-9, 3.3433414e+2
-0.097, -1.0307645e-8, -1.6456245e-9, 3.3466748e+2
-0.096, -1.0328733e-8, -1.6369974e-9, 3.3500082e+2
-0.095, -1.0336562e-8, -1.6307667e-9, 3.3533417e+2
-0.094, -1.0527956e-8, -1.6346808e-9, 3.3566751e+2
-0.093, -1.0445520e-8, -1.6247755e-9, 3.3600085e+2
-0.092, -1.0516614e-8, -1.6401127e-9, 3.3633420e+2
-0.091, -1.0580599e-8, -1.6318051e-9, 3.3666754e+2
-0.090, -1.0566380e-8, -1.6262135e-9, 3.3700089e+2
-0.089, -1.0605442e-8, -1.6208613e-9, 3.3733423e+2
-0.088, -1.0591703e-8, -1.6236572e-9, 3.3766757e+2
-0.087, -1.0649137e-8, -1.6125538e-9, 3.3800092e+2
-0.086, -1.0659361e-8, -1.6291689e-9, 3.3833426e+2
-0.085, -1.0696906e-8, -1.6246956e-9, 3.3866760e+2
-0.084, -1.0907073e-8, -1.6288495e-9, 3.3900095e+2
-0.083, -1.0951487e-8, -1.6211010e-9, 3.3933429e+2
-0.082, -1.0890617e-8, -1.6211810e-9, 3.3966763e+2
-0.081, -1.1052138e-8, -1.6080804e-9, 3.4000098e+2
-0.080, -1.1051179e-8, -1.6304471e-9, 3.4033432e+2
-0.079, -1.1075223e-8, -1.6091988e-9, 3.4066766e+2
-0.078, -1.1157421e-8, -1.6099175e-9, 3.4100101e+2
-0.077, -1.1168764e-8, -1.6165478e-9, 3.4133435e+2
-0.076, -1.1194405e-8, -1.5972965e-9, 3.4166769e+2
-0.075, -1.1352971e-8, -1.6119946e-9, 3.4200104e+2
-0.074, -1.1290264e-8, -1.6261336e-9, 3.4233438e+2
-0.073, -1.1355047e-8, -1.6026485e-9, 3.4266772e+2
-0.072, -1.1471194e-8, -1.6080804e-9, 3.4300107e+2
-0.071, -1.1547082e-8, -1.5942609e-9, 3.4333441e+2
-0.070, -1.1541090e-8, -1.6141514e-9, 3.4366776e+2
-0.069, -1.1591256e-8, -1.5832372e-9, 3.4400110e+2
-0.068, -1.1673853e-8, -1.5845154e-9, 3.4433444e+2
-0.067, -1.1683838e-8, -1.5920243e-9, 3.4466779e+2
-0.066, -1.1684318e-8, -1.5896278e-9, 3.4500113e+2
-0.065, -1.1909263e-8, -1.5865125e-9, 3.4533447e+2
-0.064, -1.1966058e-8, -1.6110359e-9, 3.4566782e+2
-0.063, -1.2004801e-8, -1.5759680e-9, 3.4600116e+2
-0.062, -1.2081487e-8, -1.5865922e-9, 3.4633450e+2
-0.061, -1.2066150e-8, -1.5892284e-9, 3.4666785e+2
-0.060, -1.2118711e-8, -1.5816396e-9, 3.4700119e+2
-0.059, -1.2223196e-8, -1.6008910e-9, 3.4733453e+2
-0.058, -1.2278794e-8, -1.5893883e-9, 3.4766788e+2
-0.057, -1.2388231e-8, -1.5812402e-9, 3.4800122e+2
-0.056, -1.2463399e-8, -1.5919444e-9, 3.4833456e+2
-0.055, -1.2518997e-8, -1.5817995e-9, 3.4866791e+2
-0.054, -1.2535613e-8, -1.5733320e-9, 3.4900125e+2
-0.053, -1.2548234e-8, -1.5856337e-9, 3.4933459e+2
-0.052, -1.2598320e-8, -1.5799622e-9, 3.4966794e+2
-0.051, -1.2614215e-8, -1.5752493e-9, 3.5000128e+2
-0.050, -1.2661505e-8, -1.5661428e-9, 3.5033463e+2
-0.049, -1.2899632e-8, -1.5831575e-9, 3.5066797e+2
-0.048, -1.2833968e-8, -1.5788438e-9, 3.5100131e+2
-0.047, -1.2995568e-8, -1.5655037e-9, 3.5133466e+2
-0.046, -1.3078805e-8, -1.5714947e-9, 3.5166800e+2
-0.045, -1.3065304e-8, -1.5790835e-9, 3.5200134e+2
-0.044, -1.3119224e-8, -1.5825984e-9, 3.5233469e+2
-0.043, -1.3178976e-8, -1.5755687e-9, 3.5266803e+2
-0.042, -1.3165955e-8, -1.5587137e-9, 3.5300137e+2
-0.041, -1.3283940e-8, -1.5591132e-9, 3.5333472e+2
-0.040, -1.3372767e-8, -1.5782047e-9, 3.5366806e+2
-0.039, -1.3446417e-8, -1.5663824e-9, 3.5400140e+2
-0.038, -1.3500497e-8, -1.5518440e-9, 3.5433475e+2
-0.037, -1.3521187e-8, -1.5599120e-9, 3.5466809e+2
-0.036, -1.3543154e-8, -1.5659830e-9, 3.5500143e+2
-0.035, -1.3548905e-8, -1.5627876e-9, 3.5533478e+2
-0.034, -1.3669686e-8, -1.5635865e-9, 3.5566812e+2
-0.033, -1.3815390e-8, -1.5486488e-9, 3.5600146e+2
-0.032, -1.3734549e-8, -1.5732521e-9, 3.5633481e+2
-0.031, -1.3856368e-8, -1.5486488e-9, 3.5666815e+2
-0.030, -1.3982341e-8, -1.5563971e-9, 3.5700150e+2
-0.029, -1.3948232e-8, -1.5704563e-9, 3.5733484e+2
-0.028, -1.4010060e-8, -1.5599120e-9, 3.5766818e+2
-0.027, -1.4066136e-8, -1.5409801e-9, 3.5800153e+2
-0.026, -1.4031309e-8, -1.5581546e-9, 3.5833487e+2
-0.025, -1.4106717e-8, -1.5414594e-9, 3.5866821e+2
-0.024, -1.4148895e-8, -1.5517641e-9, 3.5900156e+2
-0.023, -1.4208165e-8, -1.5480895e-9, 3.5933490e+2
-0.022, -1.4204171e-8, -1.5264418e-9, 3.5966824e+2
-0.021, -1.4203214e-8, -1.5512049e-9, 3.6000159e+2
-0.020, -1.4452362e-8, -1.5498470e-9, 3.6033493e+2
-0.019, -1.4300507e-8, -1.5331517e-9, 3.6066827e+2
-0.018, -1.4484954e-8, -1.5478500e-9, 3.6100162e+2
-0.017, -1.4545104e-8, -1.5287583e-9, 3.6133496e+2
-0.016, -1.4472413e-8, -1.5486488e-9, 3.6166830e+2
-0.015, -1.4576338e-8, -1.5587137e-9, 3.6200165e+2
-0.014, -1.4597826e-8, -1.5436162e-9, 3.6233499e+2
-0.013, -1.4531126e-8, -1.5398618e-9, 3.6266833e+2
-0.012, -1.4553971e-8, -1.5261222e-9, 3.6300168e+2
-0.011, -1.4692965e-8, -1.5349091e-9, 3.6333502e+2
-0.010, -1.4599344e-8, -1.5377849e-9, 3.6366837e+2
-0.009, -1.4667723e-8, -1.5170157e-9, 3.6400171e+2
-0.008, -1.4612204e-8, -1.5169359e-9, 3.6433505e+2
-0.007, -1.4726594e-8, -1.5177347e-9, 3.6466840e+2
-0.006, -1.4776441e-8, -1.5151785e-9, 3.6500174e+2
-0.005, -1.4778358e-8, -1.5198116e-9, 3.6533508e+2
-0.004, -1.4874135e-8, -1.5285186e-9, 3.6566843e+2
-0.003, -1.4873816e-8, -1.5157376e-9, 3.6600177e+2
-0.002, -1.4881166e-8, -1.5256429e-9, 3.6633511e+2
-0.001, -1.4976543e-8, -1.5309950e-9, 3.6666846e+2
-0.000, -1.4933647e-8, -1.5196518e-9, 3.6700180e+2
0.001, -1.4956253e-8, -1.5051933e-9, 3.6733514e+2
0.002, -1.5002344e-8, -1.5123827e-9, 3.6766849e+2
0.003, -1.4989244e-8, -1.4900159e-9, 3.6800183e+2
0.004, -1.5018081e-8, -1.5116637e-9, 3.6833517e+2
0.005, -1.5029345e-8, -1.5206902e-9, 3.6866852e+2
0.006, -1.5018880e-8, -1.5189330e-9, 3.6900186e+2
0.007, -1.5088057e-8, -1.4818680e-9, 3.6933521e+2
0.008, -1.5069284e-8, -1.5039152e-9, 3.6966855e+2
0.009, -1.5094686e-8, -1.5036755e-9, 3.7000189e+2
0.010, -1.5120570e-8, -1.5180542e-9, 3.7033524e+2
0.011, -1.5175207e-8, -1.4726816e-9, 3.7066858e+2
0.012, -1.5278095e-8, -1.5004005e-9, 3.7100192e+2
0.013, -1.5278573e-8, -1.5056726e-9, 3.7133527e+2
0.014, -1.5322508e-8, -1.5007200e-9, 3.7166861e+2
0.015, -1.5465258e-8, -1.4706847e-9, 3.7200195e+2
0.016, -1.5459346e-8, -1.4884183e-9, 3.7233530e+2
0.017, -1.5476040e-8, -1.4888976e-9, 3.7266864e+2
0.018, -1.5496569e-8, -1.4844241e-9, 3.7300198e+2
0.019, -1.5535951e-8, -1.4827467e-9, 3.7333533e+2
0.020, -1.5552805e-8, -1.4872999e-9, 3.7366867e+2
0.021, -1.5671830e-8, -1.4845840e-9, 3.7400201e+2
0.022, -1.5629492e-8, -1.4710840e-9, 3.7433536e+2
0.023, -1.5774157e-8, -1.4537499e-9, 3.7466870e+2
0.024, -1.5904602e-8, -1.4726816e-9, 3.7500204e+2
0.025, -1.5950455e-8, -1.4514333e-9, 3.7533539e+2
0.026, -1.5971384e-8, -1.4622971e-9, 3.7566873e+2
0.027, -1.6019074e-8, -1.4682882e-9, 3.7600208e+2
0.028, -1.6167093e-8, -1.4562261e-9, 3.7633542e+2
0.029, -1.6194571e-8, -1.4575042e-9, 3.7666876e+2
0.030, -1.6296022e-8, -1.4553474e-9, 3.7700211e+2
0.031, -1.6460417e-8, -1.4063802e-9, 3.7733545e+2
0.032, -1.6449553e-8, -1.4743592e-9, 3.7766879e+2
0.033, -1.6519529e-8, -1.4464007e-9, 3.7800214e+2
0.034, -1.6714919e-8, -1.4382529e-9, 3.7833548e+2
0.035, -1.6676735e-8, -1.4440842e-9, 3.7866882e+2
0.036, -1.6816127e-8, -1.4503948e-9, 3.7900217e+2
0.037, -1.6961671e-8, -1.4401700e-9, 3.7933551e+2
0.038, -1.7013514e-8, -1.4302647e-9, 3.7966885e+2
0.039, -1.7057209e-8, -1.4094956e-9, 3.8000220e+2
0.040, -1.7243812e-8, -1.4360162e-9, 3.8033554e+2
0.041, -1.7389915e-8, -1.4317025e-9, 3.8066888e+2
0.042, -1.7430894e-8, -1.4057412e-9, 3.8100223e+2
0.043, -1.7495678e-8, -1.4051021e-9, 3.8133557e+2
0.044, -1.7653203e-8, -1.4502350e-9, 3.8166891e+2
0.045, -1.7741472e-8, -1.4327410e-9, 3.8200226e+2
0.046, -1.7911699e-8, -1.3975134e-9, 3.8233560e+2
0.047, -1.8041266e-8, -1.4396108e-9, 3.8266895e+2
0.048, -1.8037433e-8, -1.3888862e-9, 3.8300229e+2
0.049, -1.8189047e-8, -1.3904840e-9, 3.8333563e+2
0.050, -1.8427492e-8, -1.4203594e-9, 3.8366898e+2
0.051, -1.8461282e-8, -1.3964750e-9, 3.8400232e+2
0.052, -1.8565608e-8, -1.3722710e-9, 3.8433566e+2
0.053, -1.8849505e-8, -1.3664395e-9, 3.8466901e+2
0.054, -1.8919401e-8, -1.3772236e-9, 3.8500235e+2
0.055, -1.9025324e-8, -1.3939986e-9, 3.8533569e+2
0.056, -1.9180213e-8, -1.4036643e-9, 3.8566904e+2
0.057, -1.9361863e-8, -1.3250611e-9, 3.8600238e+2
0.058, -1.9447656e-8, -1.3840135e-9, 3.8633572e+2
0.059, -1.9520668e-8, -1.3566941e-9, 3.8666907e+2
0.060, -1.9882370e-8, -1.3519811e-9, 3.8700241e+2
0.061, -1.9917278e-8, -1.3360049e-9, 3.8733575e+2
0.062, -2.0018886e-8, -1.3397593e-9, 3.8766910e+2
0.063, -2.0381627e-8, -1.3706734e-9, 3.8800244e+2
0.064, -2.0390495e-8, -1.3379220e-9, 3.8833578e+2
0.065, -2.0533641e-8, -1.3142771e-9, 3.8866913e+2
0.066, -2.0835273e-8, -1.3614870e-9, 3.8900247e+2
0.067, -2.0920426e-8, -1.3408776e-9, 3.8933582e+2
0.068, -2.0999188e-8, -1.3487859e-9, 3.8966916e+2
0.069, -2.1304734e-8, -1.3659603e-9, 3.9000250e+2
0.070, -2.1376946e-8, -1.3208274e-9, 3.9033585e+2
0.071, -2.1604370e-8, -1.3427148e-9, 3.9066919e+2
0.072, -2.1804553e-8, -1.3259398e-9, 3.9100253e+2
0.073, -2.2013202e-8, -1.3158749e-9, 3.9133588e+2
0.074, -2.2128630e-8, -1.3174724e-9, 3.9166922e+2
0.075, -2.2337840e-8, -1.2932685e-9, 3.9200256e+2
0.076, -2.2460137e-8, -1.3222653e-9, 3.9233591e+2
0.077, -2.2705931e-8, -1.3002180e-9, 3.9266925e+2
0.078, -2.2833740e-8, -1.3201085e-9, 3.9300259e+2
0.079, -2.3080096e-8, -1.3111617e-9, 3.9333594e+2
0.080, -2.3228994e-8, -1.3074872e-9, 3.9366928e+2
0.081, -2.3365752e-8, -1.2912714e-9, 3.9400262e+2
0.082, -2.3582468e-8, -1.3205878e-9, 3.9433597e+2
0.083, -2.3711875e-8, -1.2971026e-9, 3.9466931e+2
0.084, -2.3829301e-8, -1.3129192e-9, 3.9500266e+2
0.085, -2.4203146e-8, -1.2829637e-9, 3.9533600e+2
0.086, -2.4219361e-8, -1.3046115e-9, 3.9566934e+2
0.087, -2.4358595e-8, -1.2720199e-9, 3.9600269e+2
0.088, -2.4438716e-8, -1.2602774e-9, 3.9633603e+2
0.089, -2.4669333e-8, -1.2689045e-9, 3.9666937e+2
0.090, -2.4874229e-8, -1.2820850e-9, 3.9700272e+2
0.091, -2.4942366e-8, -1.2728987e-9, 3.9733606e+2
0.092, -2.5206134e-8, -1.2566029e-9, 3.9766940e+2
0.093, -2.5266683e-8, -1.2621146e-9, 3.9800275e+2
0.094, -2.5291849e-8, -1.2533278e-9, 3.9833609e+2
0.095, -2.5547626e-8, -1.2497331e-9, 3.9866943e+2
0.096, -2.5688216e-8, -1.2398278e-9, 3.9900278e+2
0.097, -2.5763468e-8, -1.2460586e-9, 3.9933612e+2
0.098, -2.5917238e-8, -1.2430231e-9, 3.9966946e+2
0.099, -2.5922349e-8, -1.2548456e-9, 4.0000281e+2
