Dec. 21, 2005   00:53:49
Cyclic Voltammetry
File: d:\ida_biofilms\12_10_18_dphzstar\a_760b\25um_pyo\a_25um_pyo_gc_4.txt
Data Source:  Experiment
Instrument Model:  CHI760E
Header: 
Note: 

Init E (V) = 0.1
High E (V) = 0.1
Low E (V) = -0.5
Init P/N = N
Scan Rate (V/s) = 0.003
Segment = 1
Sample Interval (V) = 0.001
Quiet Time (sec) = 2
Sensitivity (A/V) = 1e-7
2nd E (V) = 0.1
Sens 2 (A/V) = 1e-7

Potential/V, i1/A, i2/A, Time/s

0.100, -9.9725341e-8, -8.0393193e-8, 3.3333334e-1
0.099, -8.0567347e-8, -7.1387696e-8, 6.6666669e-1
0.098, -6.8561121e-8, -6.4327956e-8, 1.0000000e+0
0.097, -5.9650766e-8, -5.8688261e-8, 1.3333334e+0
0.096, -5.2821719e-8, -5.4073997e-8, 1.6666667e+0
0.095, -4.7277162e-8, -5.0084413e-8, 2.0000000e+0
0.094, -4.2652356e-8, -4.6811117e-8, 2.3333333e+0
0.093, -3.8764057e-8, -4.3904478e-8, 2.6666665e+0
0.092, -3.5408728e-8, -4.1417533e-8, 2.9999998e+0
0.091, -3.2213396e-8, -3.9164405e-8, 3.3333330e+0
0.090, -2.9798427e-8, -3.7178879e-8, 3.6666663e+0
0.089, -2.7462780e-8, -3.5347600e-8, 3.9999995e+0
0.088, -2.5322921e-8, -3.3767787e-8, 4.3333330e+0
0.087, -2.3482936e-8, -3.2265060e-8, 4.6666665e+0
0.086, -2.1769404e-8, -3.0918265e-8, 5.0000000e+0
0.085, -2.0285610e-8, -2.9645594e-8, 5.3333335e+0
0.084, -1.8735992e-8, -2.8427246e-8, 5.6666670e+0
0.083, -1.7461089e-8, -2.7218803e-8, 6.0000005e+0
0.082, -1.6315752e-8, -2.6280919e-8, 6.3333340e+0
0.081, -1.5126879e-8, -2.5343752e-8, 6.6666675e+0
0.080, -1.4139148e-8, -2.4512508e-8, 7.0000010e+0
0.079, -1.3201502e-8, -2.3662651e-8, 7.3333344e+0
0.078, -1.2209616e-8, -2.2944599e-8, 7.6666679e+0
0.077, -1.1428138e-8, -2.2225429e-8, 8.0000010e+0
0.076, -1.0609435e-8, -2.1609065e-8, 8.3333340e+0
0.075, -9.7196384e-9, -2.0987349e-8, 8.6666670e+0
0.074, -9.1959373e-9, -2.0355090e-8, 9.0000000e+0
0.073, -8.6415612e-9, -1.9784737e-8, 9.3333330e+0
0.072, -7.8526545e-9, -1.9304810e-8, 9.6666660e+0
0.071, -7.2932460e-9, -1.8790615e-8, 9.9999990e+0
0.070, -6.7026837e-9, -1.8368283e-8, 1.0333332e+1
0.069, -6.2691683e-9, -1.7901456e-8, 1.0666665e+1
0.068, -5.7134346e-9, -1.7506844e-8, 1.0999998e+1
0.067, -5.2893454e-9, -1.7193470e-8, 1.1333331e+1
0.066, -4.8641371e-9, -1.6795180e-8, 1.1666664e+1
0.065, -4.3571311e-9, -1.6374846e-8, 1.1999997e+1
0.064, -4.1149311e-9, -1.6058996e-8, 1.2333330e+1
0.063, -3.7159242e-9, -1.5760321e-8, 1.2666663e+1
0.062, -3.2570069e-9, -1.5401973e-8, 1.2999996e+1
0.061, -2.9092035e-9, -1.5160012e-8, 1.3333329e+1
0.060, -2.6253857e-9, -1.4871721e-8, 1.3666662e+1
0.059, -2.1957045e-9, -1.4587264e-8, 1.3999995e+1
0.058, -1.9061350e-9, -1.4366393e-8, 1.4333328e+1
0.057, -1.6430062e-9, -1.4046309e-8, 1.4666661e+1
0.056, -1.2879341e-9, -1.3847084e-8, 1.4999994e+1
0.055, -1.1214616e-9, -1.3553362e-8, 1.5333327e+1
0.054, -8.0529161e-10, -1.3382735e-8, 1.5666660e+1
0.053, -6.7300832e-10, -1.3167215e-8, 1.5999993e+1
0.052, -3.0180020e-10, -1.2922619e-8, 1.6333326e+1
0.051, -1.1503785e-10, -1.2773720e-8, 1.6666660e+1
0.050, 1.4992822e-10, -1.2491181e-8, 1.6999994e+1
0.049, 3.0497771e-10, -1.2386057e-8, 1.7333328e+1
0.048, 6.7051426e-10, -1.2221901e-8, 1.7666662e+1
0.047, 6.9447864e-10, -1.1945271e-8, 1.7999996e+1
0.046, 9.7949482e-10, -1.1843983e-8, 1.8333330e+1
0.045, 1.0707192e-9, -1.1532765e-8, 1.8666664e+1
0.044, 1.2457391e-9, -1.1484198e-8, 1.8999998e+1
0.043, 1.4634154e-9, -1.1367012e-8, 1.9333332e+1
0.042, 1.6248555e-9, -1.1209726e-8, 1.9666666e+1
0.041, 1.7168786e-9, -1.1000357e-8, 2.0000000e+1
0.040, 1.9341557e-9, -1.0922233e-8, 2.0333334e+1
0.039, 2.1128499e-9, -1.0824698e-8, 2.0666668e+1
0.038, 2.1703643e-9, -1.0679873e-8, 2.1000002e+1
0.037, 2.3115145e-9, -1.0504134e-8, 2.1333336e+1
0.036, 2.5978089e-9, -1.0419780e-8, 2.1666670e+1
0.035, 2.6507703e-9, -1.0323682e-8, 2.2000004e+1
0.034, 2.7923197e-9, -1.0136601e-8, 2.2333338e+1
0.033, 2.8949672e-9, -1.0013344e-8, 2.2666672e+1
0.032, 3.1009808e-9, -9.9443263e-9, 2.3000006e+1
0.031, 3.0999425e-9, -9.8538218e-9, 2.3333340e+1
0.030, 3.2805541e-9, -9.6771240e-9, 2.3666674e+1
0.029, 3.4479850e-9, -9.5592192e-9, 2.4000008e+1
0.028, 3.5236325e-9, -9.4820534e-9, 2.4333342e+1
0.027, 3.6359455e-9, -9.4310897e-9, 2.4666676e+1
0.026, 3.6641434e-9, -9.3566408e-9, 2.5000010e+1
0.025, 3.7930721e-9, -9.2265937e-9, 2.5333344e+1
0.024, 3.9522754e-9, -9.0601215e-9, 2.5666677e+1
0.023, 4.0655470e-9, -9.0081187e-9, 2.6000011e+1
0.022, 4.1086028e-9, -8.9605097e-9, 2.6333345e+1
0.021, 4.1864867e-9, -8.8964445e-9, 2.6666679e+1
0.020, 4.2010257e-9, -8.8323002e-9, 2.7000013e+1
0.019, 4.5075299e-9, -8.6579997e-9, 2.7333347e+1
0.018, 4.4965862e-9, -8.5465652e-9, 2.7666681e+1
0.017, 4.6234372e-9, -8.5510381e-9, 2.8000015e+1
0.016, 4.6263131e-9, -8.4904084e-9, 2.8333349e+1
0.015, 4.6661737e-9, -8.4377660e-9, 2.8666683e+1
0.014, 4.8113979e-9, -8.3872012e-9, 2.9000017e+1
0.013, 4.8555719e-9, -8.2875093e-9, 2.9333351e+1
0.012, 4.9478355e-9, -8.1827860e-9, 2.9666685e+1
0.011, 5.1028048e-9, -8.0848519e-9, 3.0000019e+1
0.010, 5.0869082e-9, -8.0266176e-9, 3.0333353e+1
0.009, 5.1402687e-9, -7.9966620e-9, 3.0666687e+1
0.008, 5.2612092e-9, -7.9505709e-9, 3.1000021e+1
0.007, 5.2037747e-9, -7.9120683e-9, 3.1333355e+1
0.006, 5.5026899e-9, -7.8603852e-9, 3.1666689e+1
0.005, 5.5159508e-9, -7.7853759e-9, 3.2000023e+1
0.004, 5.5609233e-9, -7.6094775e-9, 3.2333355e+1
0.003, 5.5950329e-9, -7.5720941e-9, 3.2666687e+1
0.002, 5.6046185e-9, -7.5308746e-9, 3.3000019e+1
0.001, 5.7035918e-9, -7.5264017e-9, 3.3333351e+1
-0.000, 5.7792389e-9, -7.4844637e-9, 3.3666683e+1
-0.001, 5.9147975e-9, -7.4273490e-9, 3.4000015e+1
-0.002, 5.8482565e-9, -7.4301445e-9, 3.4333347e+1
-0.003, 5.9893268e-9, -7.3743873e-9, 3.4666679e+1
-0.004, 6.0636163e-9, -7.2902724e-9, 3.5000011e+1
-0.005, 6.1133822e-9, -7.1903408e-9, 3.5333344e+1
-0.006, 6.1053940e-9, -7.1425723e-9, 3.5666676e+1
-0.007, 6.2686714e-9, -7.0981585e-9, 3.6000008e+1
-0.008, 6.3412831e-9, -7.0661255e-9, 3.6333340e+1
-0.009, 6.3909695e-9, -7.0260255e-9, 3.6666672e+1
-0.010, 6.4896226e-9, -6.9854456e-9, 3.7000004e+1
-0.011, 6.5542469e-9, -6.9842474e-9, 3.7333336e+1
-0.012, 6.5557644e-9, -6.9328836e-9, 3.7666668e+1
-0.013, 6.6289361e-9, -6.9064430e-9, 3.8000000e+1
-0.014, 6.6601693e-9, -6.8308759e-9, 3.8333332e+1
-0.015, 6.7314230e-9, -6.6775030e-9, 3.8666664e+1
-0.016, 6.6007377e-9, -6.8489285e-9, 3.8999996e+1
-0.017, 6.6330896e-9, -6.6612880e-9, 3.9333328e+1
-0.018, 6.8416597e-9, -6.6725510e-9, 3.9666660e+1
-0.019, 6.8688988e-9, -6.5988206e-9, 3.9999992e+1
-0.020, 6.8574759e-9, -6.5968240e-9, 4.0333324e+1
-0.021, 7.0352115e-9, -6.5561636e-9, 4.0666656e+1
-0.022, 6.9895192e-9, -6.5380306e-9, 4.0999989e+1
-0.023, 7.0568591e-9, -6.5109513e-9, 4.1333321e+1
-0.024, 7.0878534e-9, -6.4878658e-9, 4.1666653e+1
-0.025, 7.0606943e-9, -6.4552741e-9, 4.1999985e+1
-0.026, 7.1432114e-9, -6.4386585e-9, 4.2333317e+1
-0.027, 7.1353830e-9, -6.3999961e-9, 4.2666649e+1
-0.028, 7.2632722e-9, -6.3448780e-9, 4.2999981e+1
-0.029, 7.2821247e-9, -6.3030208e-9, 4.3333313e+1
-0.030, 7.3704736e-9, -6.2244170e-9, 4.3666645e+1
-0.031, 7.3790209e-9, -6.1850360e-9, 4.3999977e+1
-0.032, 7.4786328e-9, -6.1322343e-9, 4.4333309e+1
-0.033, 7.3961153e-9, -6.1029177e-9, 4.4666641e+1
-0.034, 7.5252036e-9, -6.0775953e-9, 4.4999973e+1
-0.035, 7.5052329e-9, -6.0659326e-9, 4.5333305e+1
-0.036, 7.5296764e-9, -6.0528325e-9, 4.5666637e+1
-0.037, 7.5517237e-9, -6.0327019e-9, 4.5999969e+1
-0.038, 7.5443749e-9, -6.0127316e-9, 4.6333302e+1
-0.039, 7.5551583e-9, -5.9970753e-9, 4.6666634e+1
-0.040, 7.6399127e-9, -5.9447531e-9, 4.6999966e+1
-0.041, 7.5692181e-9, -5.9223861e-9, 4.7333298e+1
-0.042, 7.6602031e-9, -5.8858807e-9, 4.7666630e+1
-0.043, 7.6955899e-9, -5.8754961e-9, 4.7999962e+1
-0.044, 7.7615718e-9, -5.8317213e-9, 4.8333294e+1
-0.045, 7.8211633e-9, -5.8975433e-9, 4.8666626e+1
-0.046, 7.7305780e-9, -5.7140559e-9, 4.8999958e+1
-0.047, 7.9026421e-9, -5.7853899e-9, 4.9333290e+1
-0.048, 7.7682021e-9, -5.7468070e-9, 4.9666622e+1
-0.049, 7.8497608e-9, -5.6396066e-9, 4.9999954e+1
-0.050, 7.9472153e-9, -5.6320979e-9, 5.0333286e+1
-0.051, 7.8840303e-9, -5.6003850e-9, 5.0666618e+1
-0.052, 7.8947338e-9, -5.5948730e-9, 5.0999950e+1
-0.053, 7.9877962e-9, -5.5873643e-9, 5.1333282e+1
-0.054, 7.9938669e-9, -5.5714677e-9, 5.1666615e+1
-0.055, 7.9758937e-9, -5.5554117e-9, 5.1999947e+1
-0.056, 8.0058484e-9, -5.5463851e-9, 5.2333279e+1
-0.057, 7.9873956e-9, -5.5434293e-9, 5.2666611e+1
-0.058, 8.0300522e-9, -5.5142730e-9, 5.2999943e+1
-0.059, 8.0389988e-9, -5.4849565e-9, 5.3333275e+1
-0.060, 8.0324494e-9, -5.5031695e-9, 5.3666607e+1
-0.061, 8.0266176e-9, -5.4766489e-9, 5.3999939e+1
-0.062, 8.0342062e-9, -5.4671432e-9, 5.4333271e+1
-0.063, 8.1052205e-9, -5.4350306e-9, 5.4666603e+1
-0.064, 8.0337275e-9, -5.4069926e-9, 5.4999935e+1
-0.065, 8.0522602e-9, -5.3866227e-9, 5.5333267e+1
-0.066, 8.1093745e-9, -5.3843858e-9, 5.5666599e+1
-0.067, 8.0590494e-9, -5.3007501e-9, 5.5999931e+1
-0.068, 8.0810967e-9, -5.2924429e-9, 5.6333263e+1
-0.069, 8.2119422e-9, -5.2674398e-9, 5.6666595e+1
-0.070, 8.0639220e-9, -5.2172742e-9, 5.6999928e+1
-0.071, 8.1267890e-9, -5.1677480e-9, 5.7333260e+1
-0.072, 8.1749576e-9, -5.1650324e-9, 5.7666592e+1
-0.073, 8.1109723e-9, -5.1477778e-9, 5.7999924e+1
-0.074, 8.1136085e-9, -5.1238134e-9, 5.8333256e+1
-0.075, 8.1409279e-9, -5.1104734e-9, 5.8666588e+1
-0.076, 8.1211970e-9, -5.0976126e-9, 5.8999920e+1
-0.077, 8.2058715e-9, -5.0893849e-9, 5.9333252e+1
-0.078, 8.1970839e-9, -5.0810769e-9, 5.9666584e+1
-0.079, 8.1923721e-9, -5.0766036e-9, 5.9999916e+1
-0.080, 8.2416580e-9, -5.0671773e-9, 6.0333248e+1
-0.081, 8.1687261e-9, -5.0505622e-9, 6.0666580e+1
-0.082, 8.2965368e-9, -5.0440123e-9, 6.0999912e+1
-0.083, 8.2278389e-9, -5.0210862e-9, 6.1333244e+1
-0.084, 8.2308738e-9, -5.0194888e-9, 6.1666576e+1
-0.085, 8.3130720e-9, -5.0068674e-9, 6.1999908e+1
-0.086, 8.2967757e-9, -4.9876960e-9, 6.2333241e+1
-0.087, 8.2562757e-9, -4.9888937e-9, 6.2666573e+1
-0.088, 8.2855927e-9, -4.9708406e-9, 6.2999905e+1
-0.089, 8.2754479e-9, -4.9641309e-9, 6.3333237e+1
-0.090, 8.3397520e-9, -4.9614948e-9, 6.3666569e+1
-0.091, 8.3039655e-9, -4.9364122e-9, 6.3999901e+1
-0.092, 8.3317637e-9, -4.9300217e-9, 6.4333237e+1
-0.093, 8.3538909e-9, -4.9058975e-9, 6.4666573e+1
-0.094, 8.2457321e-9, -4.8832911e-9, 6.4999908e+1
-0.095, 8.4416012e-9, -4.8341642e-9, 6.5333244e+1
-0.096, 8.2870306e-9, -4.8070046e-9, 6.5666580e+1
-0.097, 8.2761673e-9, -4.7990962e-9, 6.5999916e+1
-0.098, 8.4368876e-9, -4.7875934e-9, 6.6333252e+1
-0.099, 8.4243466e-9, -4.7565196e-9, 6.6666588e+1
-0.100, 8.2323117e-9, -4.7248068e-9, 6.6999924e+1
-0.101, 8.4570182e-9, -4.7077120e-9, 6.7333260e+1
-0.102, 8.3617993e-9, -4.7187361e-9, 6.7666595e+1
-0.103, 8.4658849e-9, -4.7042774e-9, 6.7999931e+1
-0.104, 8.4333731e-9, -4.6621000e-9, 6.8333267e+1
-0.105, 8.3959089e-9, -4.6484403e-9, 6.8666603e+1
-0.106, 8.4169978e-9, -4.6594639e-9, 6.8999939e+1
-0.107, 8.4587750e-9, -4.6206416e-9, 6.9333275e+1
-0.108, 8.4350509e-9, -4.6116950e-9, 6.9666611e+1
-0.109, 8.4546219e-9, -4.6178457e-9, 6.9999947e+1
-0.110, 8.4324148e-9, -4.6046651e-9, 7.0333282e+1
-0.111, 8.4651655e-9, -4.6010706e-9, 7.0666618e+1
-0.112, 8.4677216e-9, -4.5976356e-9, 7.0999954e+1
-0.113, 8.4595744e-9, -4.5901269e-9, 7.1333290e+1
-0.114, 8.4953609e-9, -4.5936419e-9, 7.1666626e+1
-0.115, 8.5015115e-9, -4.5882897e-9, 7.1999962e+1
-0.116, 8.4511873e-9, -4.5641655e-9, 7.2333298e+1
-0.117, 8.5230001e-9, -4.5713549e-9, 7.2666634e+1
-0.118, 8.4472722e-9, -4.5626476e-9, 7.2999969e+1
-0.119, 8.4958405e-9, -4.5660027e-9, 7.3333305e+1
-0.120, 8.5187661e-9, -4.5433164e-9, 7.3666641e+1
-0.121, 8.5083816e-9, -4.5304556e-9, 7.3999977e+1
-0.122, 8.4961593e-9, -4.5525828e-9, 7.4333313e+1
-0.123, 8.5087013e-9, -4.5307753e-9, 7.4666649e+1
-0.124, 8.4962402e-9, -4.5143196e-9, 7.4999985e+1
-0.125, 8.5035881e-9, -4.5128821e-9, 7.5333321e+1
-0.126, 8.5118170e-9, -4.5224673e-9, 7.5666656e+1
-0.127, 8.5134140e-9, -4.4930712e-9, 7.5999992e+1
-0.128, 8.5179677e-9, -4.4854822e-9, 7.6333328e+1
-0.129, 8.5164498e-9, -4.4945887e-9, 7.6666664e+1
-0.130, 8.5633394e-9, -4.4736601e-9, 7.7000000e+1
-0.131, 8.5228402e-9, -4.4743791e-9, 7.7333336e+1
-0.132, 8.5361807e-9, -4.4651127e-9, 7.7666672e+1
-0.133, 8.5737248e-9, -4.4663908e-9, 7.8000008e+1
-0.134, 8.5343430e-9, -4.4342787e-9, 7.8333344e+1
-0.135, 8.5715675e-9, -4.4221369e-9, 7.8666679e+1
-0.136, 8.5908987e-9, -4.3991308e-9, 7.9000015e+1
-0.137, 8.5678131e-9, -4.4324415e-9, 7.9333351e+1
-0.138, 8.5303489e-9, -4.4255715e-9, 7.9666687e+1
-0.139, 8.5587866e-9, -4.3885864e-9, 8.0000023e+1
-0.140, 8.5672545e-9, -4.3317110e-9, 8.0333359e+1
-0.141, 8.5871443e-9, -4.3521604e-9, 8.0666695e+1
-0.142, 8.6127070e-9, -4.3528794e-9, 8.1000031e+1
-0.143, 8.6215737e-9, -4.3110218e-9, 8.1333366e+1
-0.144, 8.6313188e-9, -4.3136579e-9, 8.1666702e+1
-0.145, 8.5670147e-9, -4.2696437e-9, 8.2000038e+1
-0.146, 8.6923482e-9, -4.2692436e-9, 8.2333374e+1
-0.147, 8.6894723e-9, -4.2872967e-9, 8.2666710e+1
-0.148, 8.6222922e-9, -4.2236317e-9, 8.3000046e+1
-0.149, 8.7143954e-9, -4.2076556e-9, 8.3333382e+1
-0.150, 8.6873149e-9, -4.2268269e-9, 8.3666718e+1
-0.151, 8.7791783e-9, -4.1901616e-9, 8.4000053e+1
-0.152, 8.7834131e-9, -4.2064574e-9, 8.4333389e+1
-0.153, 8.6945047e-9, -4.1642001e-9, 8.4666725e+1
-0.154, 8.7816554e-9, -4.1552535e-9, 8.5000061e+1
-0.155, 8.7795780e-9, -4.1502206e-9, 8.5333397e+1
-0.156, 8.7965129e-9, -4.1508601e-9, 8.5666733e+1
-0.157, 8.8605780e-9, -4.1511794e-9, 8.6000069e+1
-0.158, 8.8845429e-9, -4.1570107e-9, 8.6333405e+1
-0.159, 8.9558769e-9, -4.1197064e-9, 8.6666740e+1
-0.160, 8.9321519e-9, -4.1256176e-9, 8.7000076e+1
-0.161, 8.8829442e-9, -4.1300909e-9, 8.7333412e+1
-0.162, 9.0107548e-9, -4.1153130e-9, 8.7666748e+1
-0.163, 8.9740890e-9, -4.1050883e-9, 8.8000084e+1
-0.164, 8.9669001e-9, -4.1181090e-9, 8.8333420e+1
-0.165, 9.0484580e-9, -4.0987773e-9, 8.8666756e+1
-0.166, 9.0115533e-9, -4.1210644e-9, 8.9000092e+1
-0.167, 9.0168255e-9, -4.1075645e-9, 8.9333427e+1
-0.168, 9.0382342e-9, -4.0982182e-9, 8.9666763e+1
-0.169, 9.0497370e-9, -4.0944634e-9, 9.0000099e+1
-0.170, 9.0455030e-9, -4.0863162e-9, 9.0333435e+1
-0.171, 9.0672305e-9, -4.0932657e-9, 9.0666771e+1
-0.172, 9.1036565e-9, -4.0882333e-9, 9.1000107e+1
-0.173, 9.1497485e-9, -4.0776889e-9, 9.1333443e+1
-0.174, 9.1515853e-9, -4.0820023e-9, 9.1666779e+1
-0.175, 9.2042267e-9, -4.0689017e-9, 9.2000114e+1
-0.176, 9.3099093e-9, -4.0768899e-9, 9.2333450e+1
-0.177, 9.2615018e-9, -4.0814432e-9, 9.2666786e+1
-0.178, 9.4009742e-9, -4.0565200e-9, 9.3000122e+1
-0.179, 9.3543244e-9, -4.0594759e-9, 9.3333458e+1
-0.180, 9.4282937e-9, -4.0391064e-9, 9.3666794e+1
-0.181, 9.4865271e-9, -4.0658663e-9, 9.4000130e+1
-0.182, 9.4569712e-9, -4.0504493e-9, 9.4333466e+1
-0.183, 9.4691135e-9, -4.0446979e-9, 9.4666801e+1
-0.184, 9.5182404e-9, -4.0333545e-9, 9.5000137e+1
-0.185, 9.4961132e-9, -4.0362305e-9, 9.5333473e+1
-0.186, 9.5249506e-9, -4.0417421e-9, 9.5666809e+1
-0.187, 9.5231929e-9, -4.0226507e-9, 9.6000145e+1
-0.188, 9.5735979e-9, -4.0110679e-9, 9.6333481e+1
-0.189, 9.5835828e-9, -4.0095500e-9, 9.6666817e+1
-0.190, 9.5770334e-9, -4.0020409e-9, 9.7000153e+1
-0.191, 9.7170645e-9, -3.9938937e-9, 9.7333488e+1
-0.192, 9.6481276e-9, -4.0105883e-9, 9.7666824e+1
-0.193, 9.6740083e-9, -3.9962900e-9, 9.8000160e+1
-0.194, 9.8735518e-9, -4.0001238e-9, 9.8333496e+1
-0.195, 9.8509458e-9, -3.9855061e-9, 9.8666832e+1
-0.196, 9.8865724e-9, -3.9885415e-9, 9.9000168e+1
-0.197, 9.9658948e-9, -3.9913370e-9, 9.9333504e+1
-0.198, 9.9313855e-9, -3.9922159e-9, 9.9666840e+1
-0.199, 9.9551105e-9, -3.9914969e-9, 1.0000018e+2
-0.200, 1.0000483e-8, -3.9638581e-9, 1.0033351e+2
-0.201, 9.9899387e-9, -3.9873429e-9, 1.0066685e+2
-0.202, 1.0010309e-8, -3.9796744e-9, 1.0100018e+2
-0.203, 1.0024208e-8, -3.9749617e-9, 1.0133352e+2
-0.204, 1.0039545e-8, -3.9819112e-9, 1.0166685e+2
-0.205, 9.8820996e-9, -3.9715267e-9, 1.0200019e+2
-0.206, 1.0067823e-8, -3.9844674e-9, 1.0233353e+2
-0.207, 1.0174785e-8, -3.9607424e-9, 1.0266686e+2
-0.208, 1.0275834e-8, -3.9682515e-9, 1.0300020e+2
-0.209, 1.0242443e-8, -3.9629793e-9, 1.0333353e+2
-0.210, 1.0415786e-8, -3.9763193e-9, 1.0366687e+2
-0.211, 1.0367218e-8, -3.9717665e-9, 1.0400021e+2
-0.212, 1.0420259e-8, -3.9540327e-9, 1.0433354e+2
-0.213, 1.0481049e-8, -3.9689705e-9, 1.0466688e+2
-0.214, 1.0408757e-8, -3.9694497e-9, 1.0500021e+2
-0.215, 1.0497185e-8, -3.9703285e-9, 1.0533355e+2
-0.216, 1.0524025e-8, -3.9491597e-9, 1.0566689e+2
-0.217, 1.0524345e-8, -3.9748813e-9, 1.0600022e+2
-0.218, 1.0563327e-8, -3.9827102e-9, 1.0633356e+2
-0.219, 1.0567480e-8, -3.9534731e-9, 1.0666689e+2
-0.220, 1.0608219e-8, -3.9655355e-9, 1.0700023e+2
-0.221, 1.0653912e-8, -3.9754404e-9, 1.0733356e+2
-0.222, 1.0703918e-8, -3.9883816e-9, 1.0766690e+2
-0.223, 1.0860005e-8, -3.9680916e-9, 1.0800024e+2
-0.224, 1.0809839e-8, -3.9812722e-9, 1.0833357e+2
-0.225, 1.0850339e-8, -3.9904582e-9, 1.0866691e+2
-0.226, 1.0954904e-8, -3.9866244e-9, 1.0900024e+2
-0.227, 1.0951310e-8, -3.9855856e-9, 1.0933358e+2
-0.228, 1.0946197e-8, -3.9815116e-9, 1.0966692e+2
-0.229, 1.0995883e-8, -4.0044377e-9, 1.1000025e+2
-0.230, 1.1011380e-8, -4.0109880e-9, 1.1033359e+2
-0.231, 1.1032469e-8, -4.0173784e-9, 1.1066692e+2
-0.232, 1.1239760e-8, -4.0220116e-9, 1.1100026e+2
-0.233, 1.1099569e-8, -4.0331951e-9, 1.1133360e+2
-0.234, 1.1293521e-8, -4.0463752e-9, 1.1166693e+2
-0.235, 1.1302308e-8, -4.0446979e-9, 1.1200027e+2
-0.236, 1.1377716e-8, -4.0564405e-9, 1.1233360e+2
-0.237, 1.1454641e-8, -4.0588368e-9, 1.1266694e+2
-0.238, 1.1435549e-8, -4.0809640e-9, 1.1300027e+2
-0.239, 1.1479484e-8, -4.0824815e-9, 1.1333361e+2
-0.240, 1.1500254e-8, -4.0850381e-9, 1.1366695e+2
-0.241, 1.1522380e-8, -4.0951029e-9, 1.1400028e+2
-0.242, 1.1718408e-8, -4.1050079e-9, 1.1433362e+2
-0.243, 1.1669202e-8, -4.1042889e-9, 1.1466695e+2
-0.244, 1.1626626e-8, -4.1212238e-9, 1.1500029e+2
-0.245, 1.1942157e-8, -4.1217829e-9, 1.1533363e+2
-0.246, 1.1851252e-8, -4.1501411e-9, 1.1566696e+2
-0.247, 1.1948227e-8, -4.1404755e-9, 1.1600030e+2
-0.248, 1.1990324e-8, -4.1715493e-9, 1.1633363e+2
-0.249, 1.2029626e-8, -4.2114898e-9, 1.1666697e+2
-0.250, 1.2136108e-8, -4.2213952e-9, 1.1700031e+2
-0.251, 1.2079792e-8, -4.2706021e-9, 1.1733364e+2
-0.252, 1.2281652e-8, -4.3000781e-9, 1.1766698e+2
-0.253, 1.2325907e-8, -4.3678972e-9, 1.1800031e+2
-0.254, 1.2360894e-8, -4.3770836e-9, 1.1833365e+2
-0.255, 1.2438458e-8, -4.4217372e-9, 1.1866698e+2
-0.256, 1.2433027e-8, -4.4254116e-9, 1.1900032e+2
-0.257, 1.2475204e-8, -4.4595212e-9, 1.1933366e+2
-0.258, 1.2521776e-8, -4.4790118e-9, 1.1966699e+2
-0.259, 1.2539029e-8, -4.5120032e-9, 1.2000033e+2
-0.260, 1.2582724e-8, -4.5180739e-9, 1.2033366e+2
-0.261, 1.2767249e-8, -4.5169557e-9, 1.2066700e+2
-0.262, 1.2790495e-8, -4.5271005e-9, 1.2100034e+2
-0.263, 1.2861990e-8, -4.5631272e-9, 1.2133367e+2
-0.264, 1.2880841e-8, -4.5618491e-9, 1.2166701e+2
-0.265, 1.2906802e-8, -4.5739910e-9, 1.2200034e+2
-0.266, 1.2917027e-8, -4.5888489e-9, 1.2233368e+2
-0.267, 1.2937237e-8, -4.5914850e-9, 1.2266702e+2
-0.268, 1.2990197e-8, -4.6100972e-9, 1.2300035e+2
-0.269, 1.3013842e-8, -4.6168069e-9, 1.2333369e+2
-0.270, 1.3020952e-8, -4.6165676e-9, 1.2366702e+2
-0.271, 1.3186307e-8, -4.6458042e-9, 1.2400036e+2
-0.272, 1.3170729e-8, -4.6316648e-9, 1.2433369e+2
-0.273, 1.3165298e-8, -4.6422892e-9, 1.2466703e+2
-0.274, 1.3390882e-8, -4.6534727e-9, 1.2500037e+2
-0.275, 1.3315076e-8, -4.6647357e-9, 1.2533370e+2
-0.276, 1.3382095e-8, -4.6847863e-9, 1.2566704e+2
-0.277, 1.3427229e-8, -4.7216115e-9, 1.2600037e+2
-0.278, 1.3415806e-8, -4.7887116e-9, 1.2633371e+2
-0.279, 1.3431703e-8, -4.7807234e-9, 1.2666705e+2
-0.280, 1.3462855e-8, -4.7871138e-9, 1.2700038e+2
-0.281, 1.3442806e-8, -4.8396758e-9, 1.2733372e+2
-0.282, 1.3540101e-8, -4.8405546e-9, 1.2766705e+2
-0.283, 1.3477634e-8, -4.8410338e-9, 1.2800038e+2
-0.284, 1.3564705e-8, -4.8791371e-9, 1.2833371e+2
-0.285, 1.3590665e-8, -4.8900808e-9, 1.2866704e+2
-0.286, 1.3636278e-8, -4.9193973e-9, 1.2900037e+2
-0.287, 1.3762570e-8, -4.9154831e-9, 1.2933369e+2
-0.288, 1.3782860e-8, -4.9224327e-9, 1.2966702e+2
-0.289, 1.3760014e-8, -4.9441606e-9, 1.3000035e+2
-0.290, 1.3860904e-8, -4.9414446e-9, 1.3033368e+2
-0.291, 1.3875443e-8, -4.9634119e-9, 1.3066701e+2
-0.292, 1.3849801e-8, -4.9586988e-9, 1.3100034e+2
-0.293, 1.3918179e-8, -4.9585394e-9, 1.3133366e+2
-0.294, 1.3906757e-8, -4.9658082e-9, 1.3166699e+2
-0.295, 1.3924969e-8, -4.9741162e-9, 1.3200032e+2
-0.296, 1.3942222e-8, -4.9767519e-9, 1.3233365e+2
-0.297, 1.3951730e-8, -4.9948854e-9, 1.3266698e+2
-0.298, 1.3977531e-8, -4.9760329e-9, 1.3300031e+2
-0.299, 1.3970181e-8, -4.9990390e-9, 1.3333363e+2
-0.300, 1.4012438e-8, -4.9920095e-9, 1.3366696e+2
-0.301, 1.4067157e-8, -5.0028737e-9, 1.3400029e+2
-0.302, 1.4093597e-8, -5.0060684e-9, 1.3433362e+2
-0.303, 1.4369987e-8, -4.9960036e-9, 1.3466695e+2
-0.304, 1.4073308e-8, -5.0266782e-9, 1.3500027e+2
-0.305, 1.4102385e-8, -5.0145359e-9, 1.3533360e+2
-0.306, 1.4330925e-8, -5.0334679e-9, 1.3566693e+2
-0.307, 1.4305683e-8, -5.0187698e-9, 1.3600026e+2
-0.308, 1.4332123e-8, -5.0316307e-9, 1.3633359e+2
-0.309, 1.4402180e-8, -5.0218851e-9, 1.3666692e+2
-0.310, 1.4390037e-8, -5.0161337e-9, 1.3700024e+2
-0.311, 1.4391156e-8, -5.0370623e-9, 1.3733357e+2
-0.312, 1.4442839e-8, -4.9999178e-9, 1.3766690e+2
-0.313, 1.4386842e-8, -5.0482458e-9, 1.3800023e+2
-0.314, 1.4415280e-8, -5.0319500e-9, 1.3833356e+2
-0.315, 1.4402739e-8, -5.0589497e-9, 1.3866689e+2
-0.316, 1.4441560e-8, -5.0527191e-9, 1.3900021e+2
-0.317, 1.4456178e-8, -5.0413762e-9, 1.3933354e+2
-0.318, 1.4461051e-8, -5.0516809e-9, 1.3966687e+2
-0.319, 1.4484777e-8, -5.0500031e-9, 1.4000020e+2
-0.320, 1.4518567e-8, -5.0527991e-9, 1.4033353e+2
-0.321, 1.4514172e-8, -5.0601483e-9, 1.4066685e+2
-0.322, 1.4555710e-8, -5.0542370e-9, 1.4100018e+2
-0.323, 1.4577279e-8, -5.0689350e-9, 1.4133351e+2
-0.324, 1.4624569e-8, -5.0650208e-9, 1.4166684e+2
-0.325, 1.4716671e-8, -5.0631037e-9, 1.4200017e+2
-0.326, 1.4632318e-8, -5.0644617e-9, 1.4233350e+2
-0.327, 1.4674893e-8, -5.0708522e-9, 1.4266682e+2
-0.328, 1.4734565e-8, -5.0541571e-9, 1.4300015e+2
-0.329, 1.4719866e-8, -5.0593494e-9, 1.4333348e+2
-0.330, 1.4696382e-8, -5.0684559e-9, 1.4366681e+2
-0.331, 1.4801425e-8, -5.0687752e-9, 1.4400014e+2
-0.332, 1.4821635e-8, -5.0787605e-9, 1.4433347e+2
-0.333, 1.4850153e-8, -5.0658198e-9, 1.4466679e+2
-0.334, 1.4784570e-8, -5.0718909e-9, 1.4500012e+2
-0.335, 1.4879229e-8, -5.0887454e-9, 1.4533345e+2
-0.336, 1.4821396e-8, -5.0756452e-9, 1.4566678e+2
-0.337, 1.4786248e-8, -5.0792397e-9, 1.4600011e+2
-0.338, 1.4900558e-8, -5.0808375e-9, 1.4633344e+2
-0.339, 1.4869644e-8, -5.0780415e-9, 1.4666676e+2
-0.340, 1.4858941e-8, -5.0877071e-9, 1.4700009e+2
-0.341, 1.4907428e-8, -5.0933786e-9, 1.4733342e+2
-0.342, 1.4876275e-8, -5.0801185e-9, 1.4766675e+2
-0.343, 1.4914058e-8, -5.0825948e-9, 1.4800008e+2
-0.344, 1.4904952e-8, -5.0974527e-9, 1.4833340e+2
-0.345, 1.4906069e-8, -5.0881064e-9, 1.4866673e+2
-0.346, 1.4903515e-8, -5.0904232e-9, 1.4900006e+2
-0.347, 1.4912938e-8, -5.0922604e-9, 1.4933339e+2
-0.348, 1.4918372e-8, -5.0865889e-9, 1.4966672e+2
-0.349, 1.4935226e-8, -5.0944173e-9, 1.5000005e+2
-0.350, 1.4934347e-8, -5.0877871e-9, 1.5033337e+2
-0.351, 1.4953679e-8, -5.0940181e-9, 1.5066670e+2
-0.352, 1.4974528e-8, -5.0952962e-9, 1.5100003e+2
-0.353, 1.4924522e-8, -5.0950559e-9, 1.5133336e+2
-0.354, 1.5064236e-8, -5.0901039e-9, 1.5166669e+2
-0.355, 1.5031164e-8, -5.1042428e-9, 1.5200002e+2
-0.356, 1.4986590e-8, -5.1034434e-9, 1.5233334e+2
-0.357, 1.5096107e-8, -5.0936984e-9, 1.5266667e+2
-0.358, 1.4992263e-8, -5.1043223e-9, 1.5300000e+2
-0.359, 1.5055848e-8, -5.1189408e-9, 1.5333333e+2
-0.360, 1.5111286e-8, -5.1101536e-9, 1.5366666e+2
-0.361, 1.5040191e-8, -5.1084763e-9, 1.5399998e+2
-0.362, 1.5121589e-8, -5.1098343e-9, 1.5433331e+2
-0.363, 1.5101380e-8, -5.1202989e-9, 1.5466664e+2
-0.364, 1.5131816e-8, -5.1194200e-9, 1.5499997e+2
-0.365, 1.5197717e-8, -5.1100737e-9, 1.5533330e+2
-0.366, 1.5201310e-8, -5.1344378e-9, 1.5566663e+2
-0.367, 1.5226634e-8, -5.1056004e-9, 1.5599995e+2
-0.368, 1.5256989e-8, -5.1107927e-9, 1.5633328e+2
-0.369, 1.5305476e-8, -5.1345976e-9, 1.5666661e+2
-0.370, 1.5354443e-8, -5.1140678e-9, 1.5699994e+2
-0.371, 1.5293335e-8, -5.1278075e-9, 1.5733327e+2
-0.372, 1.5253553e-8, -5.1277276e-9, 1.5766660e+2
-0.373, 1.5354763e-8, -5.1236535e-9, 1.5799992e+2
-0.374, 1.5345577e-8, -5.1209375e-9, 1.5833325e+2
-0.375, 1.5340463e-8, -5.1540887e-9, 1.5866658e+2
-0.376, 1.5371377e-8, -5.1381921e-9, 1.5899991e+2
-0.377, 1.5356120e-8, -5.1459406e-9, 1.5933324e+2
-0.378, 1.5358358e-8, -5.1341980e-9, 1.5966656e+2
-0.379, 1.5369940e-8, -5.1444231e-9, 1.5999989e+2
-0.380, 1.5389030e-8, -5.1278874e-9, 1.6033322e+2
-0.381, 1.5395901e-8, -5.1696651e-9, 1.6066655e+2
-0.382, 1.5374495e-8, -5.1577627e-9, 1.6099988e+2
-0.383, 1.5448704e-8, -5.1609583e-9, 1.6133321e+2
-0.384, 1.5444469e-8, -5.1586415e-9, 1.6166653e+2
-0.385, 1.5402213e-8, -5.1621565e-9, 1.6199986e+2
-0.386, 1.5453816e-8, -5.1618367e-9, 1.6233319e+2
-0.387, 1.5455493e-8, -5.1762159e-9, 1.6266652e+2
-0.388, 1.5495672e-8, -5.1691860e-9, 1.6299985e+2
-0.389, 1.5588816e-8, -5.1628755e-9, 1.6333318e+2
-0.390, 1.5462044e-8, -5.1766946e-9, 1.6366650e+2
-0.391, 1.5527945e-8, -5.1812483e-9, 1.6399983e+2
-0.392, 1.5594487e-8, -5.2062510e-9, 1.6433316e+2
-0.393, 1.5565410e-8, -5.1742184e-9, 1.6466649e+2
-0.394, 1.5640737e-8, -5.2393219e-9, 1.6499982e+2
-0.395, 1.5627398e-8, -5.2159166e-9, 1.6533315e+2
-0.396, 1.5621247e-8, -5.1907540e-9, 1.6566647e+2
-0.397, 1.5660309e-8, -5.2479487e-9, 1.6599980e+2
-0.398, 1.5673569e-8, -5.2434754e-9, 1.6633313e+2
-0.399, 1.5814640e-8, -5.2433160e-9, 1.6666646e+2
-0.400, 1.5830215e-8, -5.2293365e-9, 1.6699979e+2
-0.401, 1.5764154e-8, -5.2556972e-9, 1.6733311e+2
-0.402, 1.5860172e-8, -5.2623275e-9, 1.6766644e+2
-0.403, 1.5853141e-8, -5.2558571e-9, 1.6799977e+2
-0.404, 1.5850267e-8, -5.2984337e-9, 1.6833310e+2
-0.405, 1.5895878e-8, -5.2870908e-9, 1.6866643e+2
-0.406, 1.5887013e-8, -5.2914042e-9, 1.6899976e+2
-0.407, 1.5877266e-8, -5.2882090e-9, 1.6933308e+2
-0.408, 1.5914091e-8, -5.2716738e-9, 1.6966641e+2
-0.409, 1.5913212e-8, -5.3193627e-9, 1.6999974e+2
-0.410, 1.6068022e-8, -5.2985136e-9, 1.7033307e+2
-0.411, 1.5973203e-8, -5.3244751e-9, 1.7066640e+2
-0.412, 1.6017617e-8, -5.3092974e-9, 1.7099973e+2
-0.413, 1.6016420e-8, -5.3529128e-9, 1.7133305e+2
-0.414, 1.6068022e-8, -5.3973270e-9, 1.7166638e+2
-0.415, 1.6182012e-8, -5.3617799e-9, 1.7199971e+2
-0.416, 1.6232658e-8, -5.3831077e-9, 1.7233304e+2
-0.417, 1.6072576e-8, -5.3680105e-9, 1.7266637e+2
-0.418, 1.6261255e-8, -5.4028386e-9, 1.7299969e+2
-0.419, 1.6316692e-8, -5.3968474e-9, 1.7333302e+2
-0.420, 1.6342653e-8, -5.4061138e-9, 1.7366635e+2
-0.421, 1.6356633e-8, -5.4181757e-9, 1.7399968e+2
-0.422, 1.6357511e-8, -5.4160991e-9, 1.7433301e+2
-0.423, 1.6342973e-8, -5.4307971e-9, 1.7466634e+2
-0.424, 1.6419021e-8, -5.4494893e-9, 1.7499966e+2
-0.425, 1.6383153e-8, -5.4322347e-9, 1.7533299e+2
-0.426, 1.6437154e-8, -5.4661844e-9, 1.7566632e+2
-0.427, 1.6422296e-8, -5.4543619e-9, 1.7599965e+2
-0.428, 1.6468626e-8, -5.4678622e-9, 1.7633298e+2
-0.429, 1.6524863e-8, -5.4578768e-9, 1.7666631e+2
-0.430, 1.6532452e-8, -5.4864744e-9, 1.7699963e+2
-0.431, 1.6663698e-8, -5.4788059e-9, 1.7733296e+2
-0.432, 1.6679833e-8, -5.4826397e-9, 1.7766629e+2
-0.433, 1.6664256e-8, -5.4887912e-9, 1.7799962e+2
-0.434, 1.6835921e-8, -5.4850364e-9, 1.7833295e+2
-0.435, 1.6837518e-8, -5.5024505e-9, 1.7866628e+2
-0.436, 1.6826974e-8, -5.5099592e-9, 1.7899960e+2
-0.437, 1.6915083e-8, -5.5039684e-9, 1.7933293e+2
-0.438, 1.6884888e-8, -5.5273737e-9, 1.7966626e+2
-0.439, 1.6876340e-8, -5.5255360e-9, 1.7999959e+2
-0.440, 1.6997122e-8, -5.5396749e-9, 1.8033292e+2
-0.441, 1.7003034e-8, -5.5275331e-9, 1.8066624e+2
-0.442, 1.7094896e-8, -5.5463851e-9, 1.8099957e+2
-0.443, 1.7150574e-8, -5.5479026e-9, 1.8133290e+2
-0.444, 1.7266162e-8, -5.5533351e-9, 1.8166623e+2
-0.445, 1.7260170e-8, -5.5527760e-9, 1.8199956e+2
-0.446, 1.7299790e-8, -5.5652372e-9, 1.8233289e+2
-0.447, 1.7348359e-8, -5.5648379e-9, 1.8266621e+2
-0.448, 1.7343567e-8, -5.5745835e-9, 1.8299954e+2
-0.449, 1.7374321e-8, -5.5780180e-9, 1.8333287e+2
-0.450, 1.7413543e-8, -5.5768199e-9, 1.8366620e+2
-0.451, 1.7456358e-8, -5.5832903e-9, 1.8399953e+2
-0.452, 1.7582252e-8, -5.5896012e-9, 1.8433286e+2
-0.453, 1.7712857e-8, -5.5919176e-9, 1.8466618e+2
-0.454, 1.7691608e-8, -5.6048584e-9, 1.8499951e+2
-0.455, 1.7771971e-8, -5.6130860e-9, 1.8533284e+2
-0.456, 1.7830841e-8, -5.6249885e-9, 1.8566617e+2
-0.457, 1.7842664e-8, -5.6384084e-9, 1.8599950e+2
-0.458, 1.7851610e-8, -5.6678848e-9, 1.8633282e+2
-0.459, 1.7929656e-8, -5.6654081e-9, 1.8666615e+2
-0.460, 1.8033500e-8, -5.7104614e-9, 1.8699948e+2
-0.461, 1.8054349e-8, -5.6821836e-9, 1.8733281e+2
-0.462, 1.8152683e-8, -5.7126983e-9, 1.8766614e+2
-0.463, 1.8290319e-8, -5.7619847e-9, 1.8799947e+2
-0.464, 1.8316520e-8, -5.8056799e-9, 1.8833279e+2
-0.465, 1.8336889e-8, -5.7901031e-9, 1.8866612e+2
-0.466, 1.8415971e-8, -5.8213363e-9, 1.8899945e+2
-0.467, 1.8404229e-8, -5.8312417e-9, 1.8933278e+2
-0.468, 1.8426835e-8, -5.8827649e-9, 1.8966611e+2
-0.469, 1.8588914e-8, -5.8881171e-9, 1.8999944e+2
-0.470, 1.8681257e-8, -5.8880376e-9, 1.9033276e+2
-0.471, 1.8698591e-8, -5.9390017e-9, 1.9066609e+2
-0.472, 1.8829278e-8, -5.9445933e-9, 1.9099942e+2
-0.473, 1.8830157e-8, -5.9378031e-9, 1.9133275e+2
-0.474, 1.8856516e-8, -5.9617675e-9, 1.9166608e+2
-0.475, 1.8933443e-8, -5.9863710e-9, 1.9199940e+2
-0.476, 1.9024347e-8, -5.9981935e-9, 1.9233273e+2
-0.477, 1.9173086e-8, -6.0234360e-9, 1.9266606e+2
-0.478, 1.9258559e-8, -6.0390128e-9, 1.9299939e+2
-0.479, 1.9294426e-8, -6.0408500e-9, 1.9333272e+2
-0.480, 1.9331171e-8, -6.0430865e-9, 1.9366605e+2
-0.481, 1.9372310e-8, -6.0591430e-9, 1.9399937e+2
-0.482, 1.9573212e-8, -6.0713647e-9, 1.9433270e+2
-0.483, 1.9544535e-8, -6.0776753e-9, 1.9466603e+2
-0.484, 1.9711726e-8, -6.1133023e-9, 1.9499936e+2
-0.485, 1.9814134e-8, -6.1239267e-9, 1.9533269e+2
-0.486, 1.9797838e-8, -6.1616308e-9, 1.9566602e+2
-0.487, 1.9965668e-8, -6.1679413e-9, 1.9599934e+2
-0.488, 2.0045469e-8, -6.2230590e-9, 1.9633267e+2
-0.489, 2.0131980e-8, -6.3104495e-9, 1.9666600e+2
-0.490, 2.0234788e-8, -6.3357719e-9, 1.9699933e+2
-0.491, 2.0298053e-8, -6.3316175e-9, 1.9733266e+2
-0.492, 2.0364036e-8, -6.4041497e-9, 1.9766599e+2
-0.493, 2.0467482e-8, -6.4346648e-9, 1.9799931e+2
-0.494, 2.0492886e-8, -6.4518391e-9, 1.9833264e+2
-0.495, 2.0704409e-8, -6.4627828e-9, 1.9866597e+2
-0.496, 2.0784212e-8, -6.4762027e-9, 1.9899930e+2
-0.497, 2.0795794e-8, -6.5092736e-9, 1.9933263e+2
-0.498, 2.0960748e-8, -6.5381109e-9, 1.9966595e+2
-0.499, 2.1093351e-8, -6.5455401e-9, 1.9999928e+2
