Dec. 21, 2005   01:02:24
Cyclic Voltammetry
File: d:\ida_biofilms\12_10_18_dphzstar\a_760b\25um_pyo\a_25um_pyo_gc_5.txt
Data Source:  Experiment
Instrument Model:  CHI760E
Header: 
Note: 

Init E (V) = 0.1
High E (V) = 0.1
Low E (V) = -0.5
Init P/N = N
Scan Rate (V/s) = 0.003
Segment = 1
Sample Interval (V) = 0.001
Quiet Time (sec) = 2
Sensitivity (A/V) = 1e-7
2nd E (V) = 0.1
Sens 2 (A/V) = 1e-7

Potential/V, i1/A, i2/A, Time/s

0.100, -9.8925810e-8, -7.9686082e-8, 3.3333334e-1
0.099, -7.9851453e-8, -7.0810472e-8, 6.6666669e-1
0.098, -6.7743450e-8, -6.3712548e-8, 1.0000000e+0
0.097, -5.9005725e-8, -5.8151137e-8, 1.3333334e+0
0.096, -5.2185541e-8, -5.3491188e-8, 1.6666667e+0
0.095, -4.6694510e-8, -4.9591144e-8, 2.0000000e+0
0.094, -4.2121627e-8, -4.6238370e-8, 2.3333333e+0
0.093, -3.8261124e-8, -4.3387807e-8, 2.6666665e+0
0.092, -3.4923609e-8, -4.0825295e-8, 2.9999998e+0
0.091, -3.1853773e-8, -3.8656118e-8, 3.3333330e+0
0.090, -2.9317382e-8, -3.6630173e-8, 3.6666663e+0
0.089, -2.7068007e-8, -3.4849780e-8, 3.9999995e+0
0.088, -2.4932222e-8, -3.3220442e-8, 4.3333330e+0
0.087, -2.3151030e-8, -3.1723069e-8, 4.6666665e+0
0.086, -2.1453953e-8, -3.0368842e-8, 5.0000000e+0
0.085, -1.9889718e-8, -2.9135556e-8, 5.3333335e+0
0.084, -1.8481972e-8, -2.7855299e-8, 5.6666670e+0
0.083, -1.7259469e-8, -2.6749900e-8, 6.0000005e+0
0.082, -1.6020351e-8, -2.5762251e-8, 6.3333340e+0
0.081, -1.4871100e-8, -2.4825882e-8, 6.6666675e+0
0.080, -1.3835280e-8, -2.4031143e-8, 7.0000010e+0
0.079, -1.2972722e-8, -2.3181046e-8, 7.3333344e+0
0.078, -1.1937062e-8, -2.2449015e-8, 7.6666679e+0
0.077, -1.1153187e-8, -2.1745981e-8, 8.0000010e+0
0.076, -1.0400786e-8, -2.1140481e-8, 8.3333340e+0
0.075, -9.6181889e-9, -2.0475950e-8, 8.6666670e+0
0.074, -8.9733874e-9, -1.9873005e-8, 9.0000000e+0
0.073, -8.3202787e-9, -1.9321426e-8, 9.3333330e+0
0.072, -7.5551760e-9, -1.8802357e-8, 9.6666660e+0
0.071, -7.1883619e-9, -1.8335053e-8, 9.9999990e+0
0.070, -6.6478054e-9, -1.7870942e-8, 1.0333332e+1
0.069, -6.0645124e-9, -1.7411944e-8, 1.0666665e+1
0.068, -5.5952101e-9, -1.7063023e-8, 1.0999998e+1
0.067, -5.2020348e-9, -1.6700922e-8, 1.1333331e+1
0.066, -4.7169961e-9, -1.6323003e-8, 1.1666664e+1
0.065, -4.2255666e-9, -1.5898515e-8, 1.1999997e+1
0.064, -3.7846224e-9, -1.5647128e-8, 1.2333330e+1
0.063, -3.4756416e-9, -1.5317458e-8, 1.2666663e+1
0.062, -2.9938778e-9, -1.4987149e-8, 1.2999996e+1
0.061, -2.7809943e-9, -1.4754935e-8, 1.3333329e+1
0.060, -2.3544287e-9, -1.4406413e-8, 1.3666662e+1
0.059, -1.9920874e-9, -1.4152870e-8, 1.3999995e+1
0.058, -1.8022094e-9, -1.3863860e-8, 1.4333328e+1
0.057, -1.4225340e-9, -1.3619823e-8, 1.4666661e+1
0.056, -1.1698696e-9, -1.3399750e-8, 1.4999994e+1
0.055, -8.3652524e-10, -1.3195972e-8, 1.5333327e+1
0.054, -6.1357663e-10, -1.2925655e-8, 1.5666660e+1
0.053, -2.7400152e-10, -1.2801360e-8, 1.5999993e+1
0.052, -3.3622902e-10, -1.2494215e-8, 1.6333326e+1
0.051, 7.7635696e-11, -1.2357619e-8, 1.6666660e+1
0.050, 1.8827122e-10, -1.2130756e-8, 1.6999994e+1
0.049, 5.5884031e-10, -1.1945991e-8, 1.7333328e+1
0.048, 6.9128336e-10, -1.1793338e-8, 1.7666662e+1
0.047, 7.6333623e-10, -1.1506005e-8, 1.7999996e+1
0.046, 1.1677750e-9, -1.1400641e-8, 1.8333330e+1
0.045, 1.2085144e-9, -1.1300710e-8, 1.8666664e+1
0.044, 1.4403297e-9, -1.1040696e-8, 1.8999998e+1
0.043, 1.6584055e-9, -1.0927425e-8, 1.9333332e+1
0.042, 1.6929942e-9, -1.0843470e-8, 1.9666666e+1
0.041, 1.9217739e-9, -1.0641211e-8, 2.0000000e+1
0.040, 2.1367343e-9, -1.0503816e-8, 2.0333334e+1
0.039, 2.1814679e-9, -1.0413229e-8, 2.0666668e+1
0.038, 2.3209406e-9, -1.0311701e-8, 2.1000002e+1
0.037, 2.5597056e-9, -1.0079167e-8, 2.1333336e+1
0.036, 2.6613944e-9, -9.9812318e-9, 2.1666670e+1
0.035, 2.7727489e-9, -9.8912860e-9, 2.2000004e+1
0.034, 2.8136482e-9, -9.8106057e-9, 2.2333338e+1
0.033, 3.1331731e-9, -9.5739976e-9, 2.2666672e+1
0.032, 3.1588947e-9, -9.4737462e-9, 2.3000006e+1
0.031, 3.3586778e-9, -9.4635215e-9, 2.3333340e+1
0.030, 3.5499133e-9, -9.3579189e-9, 2.3666674e+1
0.029, 3.5371324e-9, -9.2374579e-9, 2.4000008e+1
0.028, 3.6132592e-9, -9.0717842e-9, 2.4333342e+1
0.027, 3.7051227e-9, -8.9974144e-9, 2.4666676e+1
0.026, 3.7321226e-9, -8.9521217e-9, 2.5000010e+1
0.025, 3.9413313e-9, -8.8701633e-9, 2.5333344e+1
0.024, 4.0642685e-9, -8.7519396e-9, 2.5666677e+1
0.023, 4.0722568e-9, -8.6196561e-9, 2.6000011e+1
0.022, 4.1483039e-9, -8.5342631e-9, 2.6333345e+1
0.021, 4.2058983e-9, -8.4701179e-9, 2.6666679e+1
0.020, 4.4796513e-9, -8.4483904e-9, 2.7000013e+1
0.019, 4.5517039e-9, -8.3852845e-9, 2.7333347e+1
0.018, 4.5428372e-9, -8.2791223e-9, 2.7666681e+1
0.017, 4.6787152e-9, -8.1641733e-9, 2.8000015e+1
0.016, 4.6945314e-9, -8.0580911e-9, 2.8333349e+1
0.015, 4.7280819e-9, -8.0240614e-9, 2.8666683e+1
0.014, 4.9484741e-9, -7.9834024e-9, 2.9000017e+1
0.013, 4.9918496e-9, -7.9168609e-9, 2.9333351e+1
0.012, 5.0632636e-9, -7.8440889e-9, 2.9666685e+1
0.011, 5.1306031e-9, -7.7316962e-9, 3.0000019e+1
0.010, 5.1475380e-9, -7.6240161e-9, 3.0333353e+1
0.009, 5.1701448e-9, -7.5560376e-9, 3.0666687e+1
0.008, 5.3752793e-9, -7.5343891e-9, 3.1000021e+1
0.007, 5.4577169e-9, -7.4945286e-9, 3.1333355e+1
0.006, 5.5117169e-9, -7.4394109e-9, 3.1666689e+1
0.005, 5.5889617e-9, -7.4124107e-9, 3.2000023e+1
0.004, 5.6012635e-9, -7.3783815e-9, 3.2333355e+1
0.003, 5.6224319e-9, -7.2732576e-9, 3.2666687e+1
0.002, 5.6342548e-9, -7.2103115e-9, 3.3000019e+1
0.001, 5.8945075e-9, -7.1164510e-9, 3.3333351e+1
-0.000, 5.8531291e-9, -7.0638091e-9, 3.3666683e+1
-0.001, 5.8935492e-9, -7.0404038e-9, 3.4000015e+1
-0.002, 6.0712848e-9, -7.0113271e-9, 3.4333347e+1
-0.003, 6.0653735e-9, -6.9616406e-9, 3.4666679e+1
-0.004, 6.0739209e-9, -6.9446267e-9, 3.5000011e+1
-0.005, 6.2147514e-9, -6.9052453e-9, 3.5333344e+1
-0.006, 6.1716157e-9, -6.8613106e-9, 3.5666676e+1
-0.007, 6.3494312e-9, -6.7707249e-9, 3.6000008e+1
-0.008, 6.4838717e-9, -6.7040244e-9, 3.6333340e+1
-0.009, 6.4399370e-9, -6.6583321e-9, 3.6666672e+1
-0.010, 6.5246106e-9, -6.6072881e-9, 3.7000004e+1
-0.011, 6.5671877e-9, -6.5646315e-9, 3.7333336e+1
-0.012, 6.6127992e-9, -6.5536878e-9, 3.7666668e+1
-0.013, 6.6159154e-9, -6.5157444e-9, 3.8000000e+1
-0.014, 6.6564150e-9, -6.4909011e-9, 3.8333332e+1
-0.015, 6.7645742e-9, -6.4486438e-9, 3.8666664e+1
-0.016, 6.8101862e-9, -6.4404957e-9, 3.8999996e+1
-0.017, 6.8257631e-9, -6.3823427e-9, 3.9333328e+1
-0.018, 6.9524551e-9, -6.3364105e-9, 3.9666660e+1
-0.019, 6.9875226e-9, -6.2495800e-9, 3.9999992e+1
-0.020, 6.9991852e-9, -6.2078818e-9, 4.0333324e+1
-0.021, 7.0400841e-9, -6.1189738e-9, 4.0666656e+1
-0.022, 7.0575781e-9, -6.1164975e-9, 4.0999989e+1
-0.023, 7.0785875e-9, -6.0817493e-9, 4.1333321e+1
-0.024, 7.1199655e-9, -6.0616192e-9, 4.1666653e+1
-0.025, 7.1192465e-9, -6.0486784e-9, 4.1999985e+1
-0.026, 7.2788491e-9, -6.0373351e-9, 4.2333317e+1
-0.027, 7.3274173e-9, -5.9658416e-9, 4.2666649e+1
-0.028, 7.2909119e-9, -5.9638445e-9, 4.2999981e+1
-0.029, 7.5252835e-9, -5.9310934e-9, 4.3333313e+1
-0.030, 7.4433255e-9, -5.8892353e-9, 4.3666645e+1
-0.031, 7.4922921e-9, -5.8019252e-9, 4.3999977e+1
-0.032, 7.2813258e-9, -5.9020961e-9, 4.4333309e+1
-0.033, 7.6564488e-9, -5.8584813e-9, 4.4666641e+1
-0.034, 7.1046284e-9, -5.6923284e-9, 4.4999973e+1
-0.035, 7.5557178e-9, -5.6930474e-9, 4.5333305e+1
-0.036, 7.5441351e-9, -5.6388076e-9, 4.5666637e+1
-0.037, 7.6009306e-9, -5.6195564e-9, 4.5999969e+1
-0.038, 7.5701765e-9, -5.5937548e-9, 4.6333302e+1
-0.039, 7.5978157e-9, -5.5837694e-9, 4.6666634e+1
-0.040, 7.6649149e-9, -5.5651572e-9, 4.6999966e+1
-0.041, 7.6103568e-9, -5.5451870e-9, 4.7333298e+1
-0.042, 7.6839273e-9, -5.5353615e-9, 4.7666630e+1
-0.043, 7.5961371e-9, -5.5725864e-9, 4.7999962e+1
-0.044, 7.6960696e-9, -5.5232996e-9, 4.8333294e+1
-0.045, 7.7312174e-9, -5.4968590e-9, 4.8666626e+1
-0.046, 7.7011020e-9, -5.4823204e-9, 4.8999958e+1
-0.047, 7.8329858e-9, -5.4245661e-9, 4.9333290e+1
-0.048, 7.8226012e-9, -5.4380664e-9, 4.9666622e+1
-0.049, 7.8732461e-9, -5.3855844e-9, 4.9999954e+1
-0.050, 8.0110407e-9, -5.3720846e-9, 5.0333286e+1
-0.051, 7.9143048e-9, -5.2686384e-9, 5.0666618e+1
-0.052, 8.0076061e-9, -5.2931619e-9, 5.0999950e+1
-0.053, 7.9861975e-9, -5.2403601e-9, 5.1333282e+1
-0.054, 7.9881950e-9, -5.1908335e-9, 5.1666615e+1
-0.055, 8.0033722e-9, -5.1594404e-9, 5.1999947e+1
-0.056, 8.0219049e-9, -5.1290856e-9, 5.2333279e+1
-0.057, 8.0249398e-9, -5.1083169e-9, 5.2666611e+1
-0.058, 8.0337275e-9, -5.1150266e-9, 5.2999943e+1
-0.059, 8.0307716e-9, -5.0940181e-9, 5.3333275e+1
-0.060, 8.0476266e-9, -5.0825948e-9, 5.3666607e+1
-0.061, 8.0428340e-9, -5.0756452e-9, 5.3999939e+1
-0.062, 8.0394793e-9, -5.0651807e-9, 5.4333271e+1
-0.063, 8.0868485e-9, -5.0574323e-9, 5.4666603e+1
-0.064, 8.0469880e-9, -5.0360240e-9, 5.4999935e+1
-0.065, 8.0759843e-9, -5.0216453e-9, 5.5333267e+1
-0.066, 8.1263094e-9, -5.0061484e-9, 5.5666599e+1
-0.067, 8.0718312e-9, -4.9992783e-9, 5.5999931e+1
-0.068, 8.0781408e-9, -4.9714002e-9, 5.6333263e+1
-0.069, 8.2197706e-9, -4.9455187e-9, 5.6666595e+1
-0.070, 8.0792590e-9, -4.9145243e-9, 5.6999928e+1
-0.071, 8.2433358e-9, -4.9208353e-9, 5.7333260e+1
-0.072, 8.1276674e-9, -4.8586877e-9, 5.7666592e+1
-0.073, 8.1176825e-9, -4.8832911e-9, 5.7999924e+1
-0.074, 8.0766229e-9, -4.8221818e-9, 5.8333256e+1
-0.075, 8.2062703e-9, -4.8279336e-9, 5.8666588e+1
-0.076, 8.1840632e-9, -4.7859161e-9, 5.8999920e+1
-0.077, 8.2600309e-9, -4.7111470e-9, 5.9333252e+1
-0.078, 8.2843146e-9, -4.6702477e-9, 5.9666584e+1
-0.079, 8.2670599e-9, -4.6374167e-9, 5.9999916e+1
-0.080, 8.2156166e-9, -4.7239279e-9, 6.0333248e+1
-0.081, 8.3014893e-9, -4.6686499e-9, 6.0666580e+1
-0.082, 8.1374933e-9, -4.7090700e-9, 6.0999912e+1
-0.083, 8.3244149e-9, -4.6211208e-9, 6.1333244e+1
-0.084, 8.3035667e-9, -4.6126534e-9, 6.1666576e+1
-0.085, 8.3170661e-9, -4.6275912e-9, 6.1999908e+1
-0.086, 8.2177740e-9, -4.6215205e-9, 6.2333241e+1
-0.087, 8.2408596e-9, -4.6116950e-9, 6.2666573e+1
-0.088, 8.3759382e-9, -4.6005915e-9, 6.2999905e+1
-0.089, 8.2903062e-9, -4.5975561e-9, 6.3333237e+1
-0.090, 8.3343199e-9, -4.5772661e-9, 6.3666569e+1
-0.091, 8.2728917e-9, -4.5664019e-9, 6.3999901e+1
-0.092, 8.3371168e-9, -4.5501065e-9, 6.4333237e+1
-0.093, 8.3085983e-9, -4.5734319e-9, 6.4666573e+1
-0.094, 8.3252143e-9, -4.5518638e-9, 6.4999908e+1
-0.095, 8.2811189e-9, -4.5280593e-9, 6.5333244e+1
-0.096, 8.4068521e-9, -4.5063313e-9, 6.5666580e+1
-0.097, 8.3107556e-9, -4.5045740e-9, 6.5999916e+1
-0.098, 8.4190743e-9, -4.5048139e-9, 6.6333252e+1
-0.099, 8.3758582e-9, -4.4687076e-9, 6.6666588e+1
-0.100, 8.3260128e-9, -4.4828465e-9, 6.6999924e+1
-0.101, 8.4669232e-9, -4.4587223e-9, 6.7333260e+1
-0.102, 8.4186746e-9, -4.4647135e-9, 6.7666595e+1
-0.103, 8.5190059e-9, -4.4238941e-9, 6.7999931e+1
-0.104, 8.4361691e-9, -4.4262105e-9, 6.8333267e+1
-0.105, 8.4290592e-9, -4.3826751e-9, 6.8666603e+1
-0.106, 8.4989553e-9, -4.3064690e-9, 6.8999939e+1
-0.107, 8.1014662e-9, -4.4246926e-9, 6.9333275e+1
-0.108, 8.3733820e-9, -4.3685362e-9, 6.9666611e+1
-0.109, 8.4963991e-9, -4.3324300e-9, 6.9999947e+1
-0.110, 8.3911953e-9, -4.3277173e-9, 7.0333282e+1
-0.111, 8.4911269e-9, -4.2713211e-9, 7.0666618e+1
-0.112, 8.4927247e-9, -4.2650901e-9, 7.0999954e+1
-0.113, 8.4424796e-9, -4.2324988e-9, 7.1333290e+1
-0.114, 8.5047871e-9, -4.2303419e-9, 7.1666626e+1
-0.115, 8.4840979e-9, -4.2077355e-9, 7.1999962e+1
-0.116, 8.4193941e-9, -4.1745047e-9, 7.2333298e+1
-0.117, 8.5183665e-9, -4.1594870e-9, 7.2666634e+1
-0.118, 8.5002334e-9, -4.1695523e-9, 7.2999969e+1
-0.119, 8.4883309e-9, -4.1702712e-9, 7.3333305e+1
-0.120, 8.5218819e-9, -4.1344044e-9, 7.3666641e+1
-0.121, 8.5056655e-9, -4.1272155e-9, 7.3999977e+1
-0.122, 8.5216421e-9, -4.1337653e-9, 7.4333313e+1
-0.123, 8.5093399e-9, -4.1147539e-9, 7.4666649e+1
-0.124, 8.4948022e-9, -4.1225823e-9, 7.4999985e+1
-0.125, 8.5100593e-9, -4.1031707e-9, 7.5333321e+1
-0.126, 8.4991152e-9, -4.1081236e-9, 7.5666656e+1
-0.127, 8.5340233e-9, -4.1013335e-9, 7.5999992e+1
-0.128, 8.5420115e-9, -4.0971000e-9, 7.6333328e+1
-0.129, 8.5350615e-9, -4.0943839e-9, 7.6666664e+1
-0.130, 8.5858662e-9, -4.0772097e-9, 7.7000000e+1
-0.131, 8.5326661e-9, -4.0897508e-9, 7.7333336e+1
-0.132, 8.5266736e-9, -4.0716976e-9, 7.7666672e+1
-0.133, 8.5650180e-9, -4.0781680e-9, 7.8000008e+1
-0.134, 8.5381773e-9, -4.0532453e-9, 7.8333344e+1
-0.135, 8.5435294e-9, -4.0487720e-9, 7.8666679e+1
-0.136, 8.5571896e-9, -4.0399049e-9, 7.9000015e+1
-0.137, 8.5504785e-9, -4.0297601e-9, 7.9333351e+1
-0.138, 8.5776390e-9, -4.0375085e-9, 7.9666687e+1
-0.139, 8.5654168e-9, -4.0395056e-9, 8.0000023e+1
-0.140, 8.5868246e-9, -3.9952512e-9, 8.0333359e+1
-0.141, 8.5498399e-9, -4.0010026e-9, 8.0666695e+1
-0.142, 8.5977687e-9, -4.0055559e-9, 8.1000031e+1
-0.143, 8.6345944e-9, -3.9954111e-9, 8.1333366e+1
-0.144, 8.6117478e-9, -3.9938133e-9, 8.1666702e+1
-0.145, 8.5734841e-9, -3.9922958e-9, 8.2000038e+1
-0.146, 8.6487333e-9, -3.9870236e-9, 8.2333374e+1
-0.147, 8.6220524e-9, -3.9870236e-9, 8.2666710e+1
-0.148, 8.6102299e-9, -3.9838284e-9, 8.3000046e+1
-0.149, 8.6622327e-9, -3.9648165e-9, 8.3333382e+1
-0.150, 8.6430614e-9, -3.9459644e-9, 8.3666718e+1
-0.151, 8.7007361e-9, -3.9208818e-9, 8.4000053e+1
-0.152, 8.7810159e-9, -3.9387751e-9, 8.4333389e+1
-0.153, 8.7701526e-9, -3.9124943e-9, 8.4666725e+1
-0.154, 8.7783798e-9, -3.9446864e-9, 8.5000061e+1
-0.155, 8.7826937e-9, -3.9180064e-9, 8.5333397e+1
-0.156, 8.7907619e-9, -3.8900478e-9, 8.5666733e+1
-0.157, 8.8288648e-9, -3.8922048e-9, 8.6000069e+1
-0.158, 8.7899625e-9, -3.8562580e-9, 8.6333405e+1
-0.159, 8.9731307e-9, -3.8370862e-9, 8.6666740e+1
-0.160, 8.9389411e-9, -3.8739918e-9, 8.7000076e+1
-0.161, 8.9177732e-9, -3.7794923e-9, 8.7333412e+1
-0.162, 8.9631458e-9, -3.8306958e-9, 8.7666748e+1
-0.163, 8.9766452e-9, -3.7604804e-9, 8.8000084e+1
-0.164, 8.9779233e-9, -3.7881995e-9, 8.8333420e+1
-0.165, 9.0203409e-9, -3.7534509e-9, 8.8666756e+1
-0.166, 8.9942995e-9, -3.7769361e-9, 8.9000092e+1
-0.167, 9.0050829e-9, -3.7183829e-9, 8.9333427e+1
-0.168, 9.0383132e-9, -3.7305248e-9, 8.9666763e+1
-0.169, 9.0335206e-9, -3.6956169e-9, 9.0000099e+1
-0.170, 9.0489385e-9, -3.7335606e-9, 9.0333435e+1
-0.171, 9.0662722e-9, -3.7041643e-9, 9.0666771e+1
-0.172, 9.0566870e-9, -3.6821168e-9, 9.1000107e+1
-0.173, 9.1130827e-9, -3.6966552e-9, 9.1333443e+1
-0.174, 9.0887191e-9, -3.6622263e-9, 9.1666779e+1
-0.175, 9.1930437e-9, -3.6668595e-9, 9.2000114e+1
-0.176, 9.2238777e-9, -3.6795604e-9, 9.2333450e+1
-0.177, 9.2153307e-9, -3.6590313e-9, 9.2666786e+1
-0.178, 9.2695700e-9, -3.6732499e-9, 9.3000122e+1
-0.179, 9.3538448e-9, -3.6570340e-9, 9.3333458e+1
-0.180, 9.3893915e-9, -3.6634249e-9, 9.3666794e+1
-0.181, 9.4778203e-9, -3.6369838e-9, 9.4000130e+1
-0.182, 9.4159924e-9, -3.6506438e-9, 9.4333466e+1
-0.183, 9.4540953e-9, -3.6385817e-9, 9.4666801e+1
-0.184, 9.5010657e-9, -3.6412175e-9, 9.5000137e+1
-0.185, 9.4874064e-9, -3.6341881e-9, 9.5333473e+1
-0.186, 9.5078558e-9, -3.6245225e-9, 9.5666809e+1
-0.187, 9.5088941e-9, -3.6221259e-9, 9.6000145e+1
-0.188, 9.5295833e-9, -3.6249217e-9, 9.6333481e+1
-0.189, 9.5178407e-9, -3.6313124e-9, 9.6666817e+1
-0.190, 9.5234327e-9, -3.6241230e-9, 9.7000153e+1
-0.191, 9.6169730e-9, -3.6181320e-9, 9.7333488e+1
-0.192, 9.5958050e-9, -3.6238035e-9, 9.7666824e+1
-0.193, 9.6166541e-9, -3.6067092e-9, 9.8000160e+1
-0.194, 9.7896766e-9, -3.6107031e-9, 9.8333496e+1
-0.195, 9.7212984e-9, -3.6118213e-9, 9.8666832e+1
-0.196, 9.9277910e-9, -3.5982415e-9, 9.9000168e+1
-0.197, 9.6809583e-9, -3.6210877e-9, 9.9333504e+1
-0.198, 9.7993418e-9, -3.5975225e-9, 9.9666840e+1
-0.199, 9.9469624e-9, -3.5964842e-9, 1.0000018e+2
-0.200, 9.9294688e-9, -3.6107031e-9, 1.0033351e+2
-0.201, 1.0003679e-8, -3.5759546e-9, 1.0066685e+2
-0.202, 9.8781845e-9, -3.6131793e-9, 1.0100018e+2
-0.203, 9.9903383e-9, -3.5941676e-9, 1.0133352e+2
-0.204, 9.9981667e-9, -3.5829046e-9, 1.0166685e+2
-0.205, 9.8427178e-9, -3.5845020e-9, 1.0200019e+2
-0.206, 1.0052486e-8, -3.5704431e-9, 1.0233353e+2
-0.207, 1.0044099e-8, -3.5895344e-9, 1.0266686e+2
-0.208, 1.0087394e-8, -3.5815464e-9, 1.0300020e+2
-0.209, 1.0118149e-8, -3.5561443e-9, 1.0333353e+2
-0.210, 1.0240686e-8, -3.5731589e-9, 1.0366687e+2
-0.211, 1.0168154e-8, -3.5654903e-9, 1.0400021e+2
-0.212, 1.0246757e-8, -3.5912120e-9, 1.0433354e+2
-0.213, 1.0386709e-8, -3.5698839e-9, 1.0466688e+2
-0.214, 1.0364102e-8, -3.5782715e-9, 1.0500021e+2
-0.215, 1.0350443e-8, -3.5976027e-9, 1.0533355e+2
-0.216, 1.0430883e-8, -3.5724399e-9, 1.0566689e+2
-0.217, 1.0426570e-8, -3.5784309e-9, 1.0600022e+2
-0.218, 1.0476575e-8, -3.5575021e-9, 1.0633356e+2
-0.219, 1.0444543e-8, -3.5850611e-9, 1.0666689e+2
-0.220, 1.0517635e-8, -3.5773124e-9, 1.0700023e+2
-0.221, 1.0555338e-8, -3.5596590e-9, 1.0733356e+2
-0.222, 1.0543835e-8, -3.5753955e-9, 1.0766690e+2
-0.223, 1.0596238e-8, -3.5566234e-9, 1.0800024e+2
-0.224, 1.0602788e-8, -3.5722003e-9, 1.0833357e+2
-0.225, 1.0636578e-8, -3.5690051e-9, 1.0866691e+2
-0.226, 1.0711346e-8, -3.5845020e-9, 1.0900024e+2
-0.227, 1.0691297e-8, -3.5823453e-9, 1.0933358e+2
-0.228, 1.0811038e-8, -3.5750758e-9, 1.0966692e+2
-0.229, 1.0878778e-8, -3.5790702e-9, 1.1000025e+2
-0.230, 1.0880295e-8, -3.5625347e-9, 1.1033359e+2
-0.231, 1.0917200e-8, -3.5827448e-9, 1.1066692e+2
-0.232, 1.0986137e-8, -3.5974428e-9, 1.1100026e+2
-0.233, 1.0983901e-8, -3.5647714e-9, 1.1133360e+2
-0.234, 1.0973756e-8, -3.5931293e-9, 1.1166693e+2
-0.235, 1.1011380e-8, -3.5965642e-9, 1.1200027e+2
-0.236, 1.1039658e-8, -3.6054311e-9, 1.1233360e+2
-0.237, 1.1124811e-8, -3.5996794e-9, 1.1266694e+2
-0.238, 1.1075046e-8, -3.6091052e-9, 1.1300027e+2
-0.239, 1.1248548e-8, -3.6194101e-9, 1.1333361e+2
-0.240, 1.1303026e-8, -3.6124603e-9, 1.1366695e+2
-0.241, 1.1250544e-8, -3.6301941e-9, 1.1400028e+2
-0.242, 1.1431875e-8, -3.6389012e-9, 1.1433362e+2
-0.243, 1.1420532e-8, -3.6541585e-9, 1.1466695e+2
-0.244, 1.1452006e-8, -3.6514425e-9, 1.1500029e+2
-0.245, 1.1523340e-8, -3.6428951e-9, 1.1533363e+2
-0.246, 1.1493464e-8, -3.6525607e-9, 1.1566696e+2
-0.247, 1.1537318e-8, -3.6591910e-9, 1.1600030e+2
-0.248, 1.1459674e-8, -3.6902648e-9, 1.1633363e+2
-0.249, 1.1633975e-8, -3.7185428e-9, 1.1666697e+2
-0.250, 1.1774246e-8, -3.7339598e-9, 1.1700031e+2
-0.251, 1.1761386e-8, -3.7490575e-9, 1.1733364e+2
-0.252, 1.1805399e-8, -3.7427466e-9, 1.1766698e+2
-0.253, 1.1874577e-8, -3.7636756e-9, 1.1800031e+2
-0.254, 1.1948946e-8, -3.8112851e-9, 1.1833365e+2
-0.255, 1.1979301e-8, -3.8688790e-9, 1.1866698e+2
-0.256, 1.1985931e-8, -3.8596131e-9, 1.1900032e+2
-0.257, 1.1974429e-8, -3.8835770e-9, 1.1933366e+2
-0.258, 1.2195620e-8, -3.9304680e-9, 1.1966699e+2
-0.259, 1.2106711e-8, -3.9399737e-9, 1.2000033e+2
-0.260, 1.2144416e-8, -3.9295891e-9, 1.2033366e+2
-0.261, 1.2370640e-8, -3.9830295e-9, 1.2066700e+2
-0.262, 1.2255451e-8, -3.9867838e-9, 1.2100034e+2
-0.263, 1.2370400e-8, -3.9833492e-9, 1.2133367e+2
-0.264, 1.2424000e-8, -3.9867039e-9, 1.2166701e+2
-0.265, 1.2435663e-8, -4.0112278e-9, 1.2200034e+2
-0.266, 1.2458908e-8, -4.0391859e-9, 1.2233368e+2
-0.267, 1.2434944e-8, -4.0283221e-9, 1.2266702e+2
-0.268, 1.2496293e-8, -4.0499697e-9, 1.2300035e+2
-0.269, 1.2532959e-8, -4.0585975e-9, 1.2333369e+2
-0.270, 1.2494935e-8, -4.0566799e-9, 1.2366702e+2
-0.271, 1.2721958e-8, -4.0658663e-9, 1.2400036e+2
-0.272, 1.2653099e-8, -4.0590762e-9, 1.2433369e+2
-0.273, 1.2672511e-8, -4.0825614e-9, 1.2466703e+2
-0.274, 1.2775796e-8, -4.0896713e-9, 1.2500037e+2
-0.275, 1.2804315e-8, -4.1005346e-9, 1.2533370e+2
-0.276, 1.2822528e-8, -4.0955825e-9, 1.2566704e+2
-0.277, 1.2924695e-8, -4.1128363e-9, 1.2600037e+2
-0.278, 1.2742886e-8, -4.1083630e-9, 1.2633371e+2
-0.279, 1.2922619e-8, -4.1105199e-9, 1.2666705e+2
-0.280, 1.2951616e-8, -4.1119579e-9, 1.2700038e+2
-0.281, 1.2951535e-8, -4.1264161e-9, 1.2733372e+2
-0.282, 1.2994271e-8, -4.1358423e-9, 1.2766705e+2
-0.283, 1.2951456e-8, -4.1317683e-9, 1.2800038e+2
-0.284, 1.3029021e-8, -4.1348036e-9, 1.2833371e+2
-0.285, 1.3020234e-8, -4.1434309e-9, 1.2866704e+2
-0.286, 1.3062730e-8, -4.1489425e-9, 1.2900037e+2
-0.287, 1.3206357e-8, -4.1462269e-9, 1.2933369e+2
-0.288, 1.3239907e-8, -4.1694723e-9, 1.2966702e+2
-0.289, 1.3146447e-8, -4.1741854e-9, 1.3000035e+2
-0.290, 1.3296622e-8, -4.1559725e-9, 1.3033368e+2
-0.291, 1.3355735e-8, -4.1422328e-9, 1.3066701e+2
-0.292, 1.3187745e-8, -4.2250696e-9, 1.3100034e+2
-0.293, 1.3574450e-8, -4.1946349e-9, 1.3133366e+2
-0.294, 1.3057858e-8, -4.2344159e-9, 1.3166699e+2
-0.295, 1.3418521e-8, -4.1929575e-9, 1.3200032e+2
-0.296, 1.3393998e-8, -4.2191584e-9, 1.3233365e+2
-0.297, 1.3403504e-8, -4.2260284e-9, 1.3266698e+2
-0.298, 1.3436415e-8, -4.2204364e-9, 1.3300031e+2
-0.299, 1.3444244e-8, -4.2147650e-9, 1.3333363e+2
-0.300, 1.3451353e-8, -4.2380104e-9, 1.3366696e+2
-0.301, 1.3471963e-8, -4.2648507e-9, 1.3400029e+2
-0.302, 1.3489057e-8, -4.2455195e-9, 1.3433362e+2
-0.303, 1.3520689e-8, -4.3114210e-9, 1.3466695e+2
-0.304, 1.3506789e-8, -4.2947259e-9, 1.3500027e+2
-0.305, 1.3584994e-8, -4.2955248e-9, 1.3533360e+2
-0.306, 1.3665913e-8, -4.2406465e-9, 1.3566693e+2
-0.307, 1.3661280e-8, -4.2604569e-9, 1.3600026e+2
-0.308, 1.3699144e-8, -4.2892143e-9, 1.3633359e+2
-0.309, 1.3810499e-8, -4.3122199e-9, 1.3666692e+2
-0.310, 1.3730058e-8, -4.3493649e-9, 1.3700024e+2
-0.311, 1.3779904e-8, -4.3126196e-9, 1.3733357e+2
-0.312, 1.3794922e-8, -4.3466488e-9, 1.3766690e+2
-0.313, 1.3825037e-8, -4.3326693e-9, 1.3800023e+2
-0.314, 1.3831908e-8, -4.3029540e-9, 1.3833356e+2
-0.315, 1.3895412e-8, -4.3525601e-9, 1.3866689e+2
-0.316, 1.3892538e-8, -4.3428945e-9, 1.3900021e+2
-0.317, 1.3884867e-8, -4.3536783e-9, 1.3933354e+2
-0.318, 1.3890300e-8, -4.3636637e-9, 1.3966687e+2
-0.319, 1.3931359e-8, -4.3285158e-9, 1.4000020e+2
-0.320, 1.3899486e-8, -4.3313917e-9, 1.4033353e+2
-0.321, 1.3900365e-8, -4.3851518e-9, 1.4066685e+2
-0.322, 1.3967306e-8, -4.3478470e-9, 1.4100018e+2
-0.323, 1.3980566e-8, -4.3610275e-9, 1.4133351e+2
-0.324, 1.3945657e-8, -4.3227644e-9, 1.4166684e+2
-0.325, 1.4137372e-8, -4.3019153e-9, 1.4200017e+2
-0.326, 1.3991190e-8, -4.3580717e-9, 1.4233350e+2
-0.327, 1.3959397e-8, -4.3923407e-9, 1.4266682e+2
-0.328, 1.4020268e-8, -4.3249213e-9, 1.4300015e+2
-0.329, 1.4039678e-8, -4.4012873e-9, 1.4333348e+2
-0.330, 1.4058132e-8, -4.3710924e-9, 1.4366681e+2
-0.331, 1.4064841e-8, -4.3777226e-9, 1.4400014e+2
-0.332, 1.4197124e-8, -4.4271693e-9, 1.4433347e+2
-0.333, 1.4099829e-8, -4.4192610e-9, 1.4466679e+2
-0.334, 1.4135217e-8, -4.3821959e-9, 1.4500012e+2
-0.335, 1.4155266e-8, -4.4092756e-9, 1.4533345e+2
-0.336, 1.4185462e-8, -4.4192610e-9, 1.4566678e+2
-0.337, 1.4174438e-8, -4.3925805e-9, 1.4600011e+2
-0.338, 1.4302887e-8, -4.4304440e-9, 1.4633344e+2
-0.339, 1.4259752e-8, -4.3844328e-9, 1.4666676e+2
-0.340, 1.4295217e-8, -4.4036041e-9, 1.4700009e+2
-0.341, 1.4286671e-8, -4.4042432e-9, 1.4733342e+2
-0.342, 1.4242257e-8, -4.4418673e-9, 1.4766675e+2
-0.343, 1.4282358e-8, -4.4222963e-9, 1.4800008e+2
-0.344, 1.4357925e-8, -4.4239736e-9, 1.4833340e+2
-0.345, 1.4264464e-8, -4.3746868e-9, 1.4866673e+2
-0.346, 1.4316947e-8, -4.4203792e-9, 1.4900006e+2
-0.347, 1.4353692e-8, -4.4278083e-9, 1.4933339e+2
-0.348, 1.4354490e-8, -4.4265303e-9, 1.4966672e+2
-0.349, 1.4360242e-8, -4.4177431e-9, 1.5000005e+2
-0.350, 1.4356408e-8, -4.4054413e-9, 1.5033337e+2
-0.351, 1.4397706e-8, -4.4422670e-9, 1.5066670e+2
-0.352, 1.4361280e-8, -4.4301252e-9, 1.5100003e+2
-0.353, 1.4392114e-8, -4.4161452e-9, 1.5133336e+2
-0.354, 1.4419194e-8, -4.4319619e-9, 1.5166669e+2
-0.355, 1.4401940e-8, -4.4402695e-9, 1.5200002e+2
-0.356, 1.4371905e-8, -4.4256514e-9, 1.5233334e+2
-0.357, 1.4409928e-8, -4.4089563e-9, 1.5266667e+2
-0.358, 1.4415360e-8, -4.4034443e-9, 1.5300000e+2
-0.359, 1.4402020e-8, -4.4380331e-9, 1.5333333e+2
-0.360, 1.4474232e-8, -4.4427457e-9, 1.5366666e+2
-0.361, 1.4420872e-8, -4.4607193e-9, 1.5399998e+2
-0.362, 1.4454182e-8, -4.4242139e-9, 1.5433331e+2
-0.363, 1.4401141e-8, -4.4365951e-9, 1.5466664e+2
-0.364, 1.4446354e-8, -4.4377937e-9, 1.5499997e+2
-0.365, 1.4483099e-8, -4.4631157e-9, 1.5533330e+2
-0.366, 1.4502910e-8, -4.4258113e-9, 1.5566663e+2
-0.367, 1.4511137e-8, -4.4477781e-9, 1.5599995e+2
-0.368, 1.4473353e-8, -4.4721422e-9, 1.5633328e+2
-0.369, 1.4455700e-8, -4.4339590e-9, 1.5666661e+2
-0.370, 1.4547004e-8, -4.4738999e-9, 1.5699994e+2
-0.371, 1.4526474e-8, -4.4461008e-9, 1.5733327e+2
-0.372, 1.4484137e-8, -4.4921924e-9, 1.5766660e+2
-0.373, 1.4548122e-8, -4.4673496e-9, 1.5799992e+2
-0.374, 1.4497638e-8, -4.4610391e-9, 1.5833325e+2
-0.375, 1.4613705e-8, -4.4731809e-9, 1.5866658e+2
-0.376, 1.4632157e-8, -4.4810893e-9, 1.5899991e+2
-0.377, 1.4576240e-8, -4.4686277e-9, 1.5933324e+2
-0.378, 1.4619935e-8, -4.4740593e-9, 1.5966656e+2
-0.379, 1.4669542e-8, -4.4759765e-9, 1.5999989e+2
-0.380, 1.4694944e-8, -4.4814086e-9, 1.6033322e+2
-0.381, 1.4740158e-8, -4.4793316e-9, 1.6066655e+2
-0.382, 1.4727615e-8, -4.4925916e-9, 1.6099988e+2
-0.383, 1.4777301e-8, -4.4813286e-9, 1.6133321e+2
-0.384, 1.4812608e-8, -4.4629558e-9, 1.6166653e+2
-0.385, 1.4657399e-8, -4.4975446e-9, 1.6199986e+2
-0.386, 1.4820518e-8, -4.4944293e-9, 1.6233319e+2
-0.387, 1.4819479e-8, -4.4965862e-9, 1.6266652e+2
-0.388, 1.4614185e-8, -4.4909942e-9, 1.6299985e+2
-0.389, 1.4916056e-8, -4.4902753e-9, 1.6333318e+2
-0.390, 1.4878191e-8, -4.4864410e-9, 1.6366650e+2
-0.391, 1.4899120e-8, -4.5017785e-9, 1.6399983e+2
-0.392, 1.4899041e-8, -4.4937103e-9, 1.6433316e+2
-0.393, 1.4900957e-8, -4.4967456e-9, 1.6466649e+2
-0.394, 1.4921326e-8, -4.5227870e-9, 1.6499982e+2
-0.395, 1.4914857e-8, -4.4945092e-9, 1.6533315e+2
-0.396, 1.4916775e-8, -4.5130415e-9, 1.6566647e+2
-0.397, 1.4943055e-8, -4.5111244e-9, 1.6599980e+2
-0.398, 1.4954958e-8, -4.5161568e-9, 1.6633313e+2
-0.399, 1.5067750e-8, -4.5260622e-9, 1.6666646e+2
-0.400, 1.5057125e-8, -4.5299759e-9, 1.6699979e+2
-0.401, 1.4979321e-8, -4.5259823e-9, 1.6733311e+2
-0.402, 1.5174951e-8, -4.5354880e-9, 1.6766644e+2
-0.403, 1.5159454e-8, -4.5278994e-9, 1.6799977e+2
-0.404, 1.5189011e-8, -4.5362070e-9, 1.6833310e+2
-0.405, 1.5237418e-8, -4.5390030e-9, 1.6866643e+2
-0.406, 1.5284147e-8, -4.5309352e-9, 1.6899976e+2
-0.407, 1.5274082e-8, -4.5401212e-9, 1.6933308e+2
-0.408, 1.5287583e-8, -4.5399613e-9, 1.6966641e+2
-0.409, 1.5287823e-8, -4.5536215e-9, 1.6999974e+2
-0.410, 1.5381522e-8, -4.5640856e-9, 1.7033307e+2
-0.411, 1.5352846e-8, -4.5560178e-9, 1.7066640e+2
-0.412, 1.5375612e-8, -4.5571360e-9, 1.7099973e+2
-0.413, 1.5375292e-8, -4.5590531e-9, 1.7133305e+2
-0.414, 1.5380804e-8, -4.5680797e-9, 1.7166638e+2
-0.415, 1.5409322e-8, -4.5654436e-9, 1.7199971e+2
-0.416, 1.5414194e-8, -4.5740709e-9, 1.7233304e+2
-0.417, 1.5446387e-8, -4.5465116e-9, 1.7266637e+2
-0.418, 1.5442792e-8, -4.5887689e-9, 1.7299969e+2
-0.419, 1.5502783e-8, -4.5635264e-9, 1.7333302e+2
-0.420, 1.5504220e-8, -4.5877306e-9, 1.7366635e+2
-0.421, 1.5580028e-8, -4.5662425e-9, 1.7399968e+2
-0.422, 1.5546558e-8, -4.5958783e-9, 1.7433301e+2
-0.423, 1.5549753e-8, -4.5890087e-9, 1.7466634e+2
-0.424, 1.5723415e-8, -4.5936419e-9, 1.7499966e+2
-0.425, 1.5645931e-8, -4.6030677e-9, 1.7533299e+2
-0.426, 1.5790436e-8, -4.5905262e-9, 1.7566632e+2
-0.427, 1.5773500e-8, -4.6052242e-9, 1.7599965e+2
-0.428, 1.5821669e-8, -4.6035469e-9, 1.7633298e+2
-0.429, 1.5873752e-8, -4.5993129e-9, 1.7666631e+2
-0.430, 1.5873832e-8, -4.5862127e-9, 1.7699963e+2
-0.431, 1.5891246e-8, -4.6047455e-9, 1.7733296e+2
-0.432, 1.5905623e-8, -4.6092188e-9, 1.7766629e+2
-0.433, 1.5897237e-8, -4.6089790e-9, 1.7799962e+2
-0.434, 1.6132327e-8, -4.6313460e-9, 1.7833295e+2
-0.435, 1.5921042e-8, -4.6305466e-9, 1.7866628e+2
-0.436, 1.6265648e-8, -4.6034674e-9, 1.7899960e+2
-0.437, 1.6163801e-8, -4.6733635e-9, 1.7933293e+2
-0.438, 1.6030878e-8, -4.6421298e-9, 1.7966626e+2
-0.439, 1.6207416e-8, -4.6625792e-9, 1.7999959e+2
-0.440, 1.6315974e-8, -4.6479611e-9, 1.8033292e+2
-0.441, 1.6355754e-8, -4.6842272e-9, 1.8066624e+2
-0.442, 1.6297761e-8, -4.6771973e-9, 1.8099957e+2
-0.443, 1.6368217e-8, -4.6732831e-9, 1.8133290e+2
-0.444, 1.6398809e-8, -4.6740820e-9, 1.8166623e+2
-0.445, 1.6444343e-8, -4.6826294e-9, 1.8199956e+2
-0.446, 1.6459680e-8, -4.7318363e-9, 1.8233289e+2
-0.447, 1.6669610e-8, -4.6164876e-9, 1.8266621e+2
-0.448, 1.6537244e-8, -4.8311288e-9, 1.8299954e+2
-0.449, 1.6574390e-8, -4.7419011e-9, 1.8333287e+2
-0.450, 1.6821861e-8, -4.8613238e-9, 1.8366620e+2
-0.451, 1.6686942e-8, -4.8427915e-9, 1.8399953e+2
-0.452, 1.6843110e-8, -4.8683533e-9, 1.8433286e+2
-0.453, 1.6872747e-8, -4.8321671e-9, 1.8466618e+2
-0.454, 1.6841193e-8, -4.7748925e-9, 1.8499951e+2
-0.455, 1.6977790e-8, -4.9316191e-9, 1.8533284e+2
-0.456, 1.7044572e-8, -4.7942232e-9, 1.8566617e+2
-0.457, 1.6942963e-8, -4.9225126e-9, 1.8599950e+2
-0.458, 1.7028915e-8, -4.9401665e-9, 1.8633282e+2
-0.459, 1.7150574e-8, -4.9337761e-9, 1.8666615e+2
-0.460, 1.7254898e-8, -4.9380100e-9, 1.8699948e+2
-0.461, 1.7277745e-8, -4.9483946e-9, 1.8733281e+2
-0.462, 1.7331743e-8, -4.9726783e-9, 1.8766614e+2
-0.463, 1.7370327e-8, -4.9833022e-9, 1.8799947e+2
-0.464, 1.7374241e-8, -4.9749147e-9, 1.8833279e+2
-0.465, 1.7452845e-8, -4.9819442e-9, 1.8866612e+2
-0.466, 1.7592477e-8, -5.0005569e-9, 1.8899945e+2
-0.467, 1.7565077e-8, -5.0070272e-9, 1.8933278e+2
-0.468, 1.7736422e-8, -5.0197282e-9, 1.8966611e+2
-0.469, 1.7798410e-8, -5.0177311e-9, 1.8999944e+2
-0.470, 1.7814786e-8, -5.0411364e-9, 1.9033276e+2
-0.471, 1.7879330e-8, -5.0349853e-9, 1.9066609e+2
-0.472, 1.7973269e-8, -5.0702931e-9, 1.9099942e+2
-0.473, 1.7939879e-8, -5.0600684e-9, 1.9133275e+2
-0.474, 1.8256289e-8, -5.0676570e-9, 1.9166608e+2
-0.475, 1.8050994e-8, -5.0964939e-9, 1.9199940e+2
-0.476, 1.8292395e-8, -5.0868283e-9, 1.9233273e+2
-0.477, 1.8297509e-8, -5.1304436e-9, 1.9266606e+2
-0.478, 1.8318039e-8, -5.1151861e-9, 1.9299939e+2
-0.479, 1.8391608e-8, -5.1218967e-9, 1.9333272e+2
-0.480, 1.8461185e-8, -5.1536091e-9, 1.9366605e+2
-0.481, 1.8502003e-8, -5.1686269e-9, 1.9399937e+2
-0.482, 1.8732701e-8, -5.2184728e-9, 1.9433270e+2
-0.483, 1.8768647e-8, -5.2711941e-9, 1.9466603e+2
-0.484, 1.8813301e-8, -5.2531410e-9, 1.9499936e+2
-0.485, 1.8861549e-8, -5.3320641e-9, 1.9533269e+2
-0.486, 1.8938874e-8, -5.3225579e-9, 1.9566602e+2
-0.487, 1.9095681e-8, -5.4024389e-9, 1.9599934e+2
-0.488, 1.9182272e-8, -5.4136224e-9, 1.9633267e+2
-0.489, 1.9260556e-8, -5.4468532e-9, 1.9666600e+2
-0.490, 1.9306327e-8, -5.4612315e-9, 1.9699933e+2
-0.491, 1.9338360e-8, -5.4768887e-9, 1.9733266e+2
-0.492, 1.9490773e-8, -5.4930243e-9, 1.9766599e+2
-0.493, 1.9531353e-8, -5.5248170e-9, 1.9799931e+2
-0.494, 1.9693911e-8, -5.5436695e-9, 1.9833264e+2
-0.495, 1.9789290e-8, -5.5567697e-9, 1.9866597e+2
-0.496, 1.9817008e-8, -5.5608438e-9, 1.9899930e+2
-0.497, 1.9846805e-8, -5.5789768e-9, 1.9933263e+2
-0.498, 2.0166731e-8, -5.6000653e-9, 1.9966595e+2
-0.499, 2.0162576e-8, -5.6237104e-9, 1.9999928e+2
