Dec. 21, 2005   00:27:40
Cyclic Voltammetry
File: d:\ida_biofilms\12_10_18_dphzstar\a_760b\25um_pyo\a_25um_pyo_gc_1.txt
Data Source:  Experiment
Instrument Model:  CHI760E
Header: 
Note: 

Init E (V) = 0.1
High E (V) = 0.1
Low E (V) = -0.5
Init P/N = N
Scan Rate (V/s) = 0.003
Segment = 1
Sample Interval (V) = 0.001
Quiet Time (sec) = 2
Sensitivity (A/V) = 1e-7
2nd E (V) = 0.1
Sens 2 (A/V) = 1e-7

Potential/V, i1/A, i2/A, Time/s

0.100, -1.0388828e-7, -8.4620183e-8, 3.3333334e-1
0.099, -8.4483844e-8, -7.5411634e-8, 6.6666669e-1
0.098, -7.2188044e-8, -6.8257229e-8, 1.0000000e+0
0.097, -6.3076790e-8, -6.2437167e-8, 1.3333334e+0
0.096, -5.6043010e-8, -5.7780724e-8, 1.6666667e+0
0.095, -5.0299466e-8, -5.3771330e-8, 2.0000000e+0
0.094, -4.5487742e-8, -5.0418549e-8, 2.3333333e+0
0.093, -4.1414754e-8, -4.7503526e-8, 2.6666665e+0
0.092, -3.7937447e-8, -4.4994536e-8, 2.9999998e+0
0.091, -3.4690114e-8, -4.2643872e-8, 3.3333330e+0
0.090, -3.2066655e-8, -4.0672482e-8, 3.6666663e+0
0.089, -2.9578274e-8, -3.8828823e-8, 3.9999995e+0
0.088, -2.7403027e-8, -3.7206835e-8, 4.3333330e+0
0.087, -2.5529973e-8, -3.5691407e-8, 4.6666665e+0
0.086, -2.3728731e-8, -3.4313135e-8, 5.0000000e+0
0.085, -2.2103627e-8, -3.3029128e-8, 5.3333335e+0
0.084, -2.0565993e-8, -3.1907433e-8, 5.6666670e+0
0.083, -1.9259934e-8, -3.0841498e-8, 6.0000005e+0
0.082, -1.8152541e-8, -2.9818139e-8, 6.3333340e+0
0.081, -1.6835699e-8, -2.8908772e-8, 6.6666675e+0
0.080, -1.5892221e-8, -2.7982390e-8, 7.0000010e+0
0.079, -1.4907526e-8, -2.7068788e-8, 7.3333344e+0
0.078, -1.3900702e-8, -2.6352174e-8, 7.6666679e+0
0.077, -1.3103807e-8, -2.5618064e-8, 8.0000010e+0
0.076, -1.2272962e-8, -2.4987083e-8, 8.3333340e+0
0.075, -1.1421188e-8, -2.4350189e-8, 8.6666670e+0
0.074, -1.0806422e-8, -2.3758748e-8, 9.0000000e+0
0.073, -1.0101950e-8, -2.3204214e-8, 9.3333330e+0
0.072, -9.4004333e-9, -2.2719414e-8, 9.6666660e+0
0.071, -8.9243404e-9, -2.2198348e-8, 9.9999990e+0
0.070, -8.2925604e-9, -2.1750214e-8, 1.0333332e+1
0.069, -7.8052853e-9, -2.1252633e-8, 1.0666665e+1
0.068, -7.2250268e-9, -2.0852749e-8, 1.0999998e+1
0.067, -6.7634733e-9, -2.0509818e-8, 1.1333331e+1
0.066, -6.3515260e-9, -2.0157621e-8, 1.1666664e+1
0.065, -5.8303806e-9, -1.9743119e-8, 1.1999997e+1
0.064, -5.5336220e-9, -1.9324620e-8, 1.2333330e+1
0.063, -5.1892539e-9, -1.9066764e-8, 1.2666663e+1
0.062, -4.6958277e-9, -1.8753390e-8, 1.2999996e+1
0.061, -4.3591282e-9, -1.8353026e-8, 1.3333329e+1
0.060, -4.0173163e-9, -1.8156438e-8, 1.3666662e+1
0.059, -3.7001879e-9, -1.7803602e-8, 1.3999995e+1
0.058, -3.3697192e-9, -1.7566036e-8, 1.4333328e+1
0.057, -3.0108127e-9, -1.7318802e-8, 1.4666661e+1
0.056, -2.7813138e-9, -1.7042254e-8, 1.4999994e+1
0.055, -2.5130726e-9, -1.6816511e-8, 1.5333327e+1
0.054, -2.2425148e-9, -1.6539241e-8, 1.5666660e+1
0.053, -1.9393656e-9, -1.6345052e-8, 1.5999993e+1
0.052, -1.6545890e-9, -1.6130089e-8, 1.6333326e+1
0.051, -1.3238007e-9, -1.5877905e-8, 1.6666660e+1
0.050, -1.2394462e-9, -1.5763115e-8, 1.6999994e+1
0.049, -8.2717910e-10, -1.5460207e-8, 1.7333328e+1
0.048, -7.4482154e-10, -1.5347254e-8, 1.7666662e+1
0.047, -5.6940236e-10, -1.5188290e-8, 1.7999996e+1
0.046, -2.6801042e-10, -1.4917093e-8, 1.8333330e+1
0.045, -1.8237774e-10, -1.4823232e-8, 1.8666664e+1
0.044, 2.6032419e-11, -1.4643661e-8, 1.8999998e+1
0.043, 2.7014949e-10, -1.4408011e-8, 1.9333332e+1
0.042, 3.7926726e-10, -1.4327171e-8, 1.9666666e+1
0.041, 6.7075390e-10, -1.4159021e-8, 2.0000000e+1
0.040, 7.4017065e-10, -1.3939187e-8, 2.0333334e+1
0.039, 8.0862894e-10, -1.3857550e-8, 2.0666668e+1
0.038, 1.1431716e-9, -1.3734132e-8, 2.1000002e+1
0.037, 1.1743252e-9, -1.3501598e-8, 2.1333336e+1
0.036, 1.4091761e-9, -1.3399430e-8, 2.1666670e+1
0.035, 1.5373856e-9, -1.3317153e-8, 2.2000004e+1
0.034, 1.6596837e-9, -1.3192538e-8, 2.2333338e+1
0.033, 1.8668156e-9, -1.2960004e-8, 2.2666672e+1
0.032, 2.0303326e-9, -1.2900890e-8, 2.3000006e+1
0.031, 1.9892736e-9, -1.2821010e-8, 2.3333340e+1
0.030, 2.3508162e-9, -1.2750155e-8, 2.3666674e+1
0.029, 2.2079885e-9, -1.2536472e-8, 2.4000008e+1
0.028, 2.3231772e-9, -1.2441334e-8, 2.4333342e+1
0.027, 2.6370306e-9, -1.2374714e-8, 2.4666676e+1
0.026, 2.6567613e-9, -1.2286764e-8, 2.5000010e+1
0.025, 2.7578910e-9, -1.2160632e-8, 2.5333344e+1
0.024, 2.9960170e-9, -1.1976665e-8, 2.5666677e+1
0.023, 3.0010494e-9, -1.1939201e-8, 2.6000011e+1
0.022, 3.1223890e-9, -1.1853888e-8, 2.6333345e+1
0.021, 3.1497882e-9, -1.1753557e-8, 2.6666679e+1
0.020, 3.2261547e-9, -1.1601463e-8, 2.7000013e+1
0.019, 3.4406358e-9, -1.1495700e-8, 2.7333347e+1
0.018, 3.5494343e-9, -1.1446414e-8, 2.7666681e+1
0.017, 3.6149368e-9, -1.1382828e-8, 2.8000015e+1
0.016, 3.6436141e-9, -1.1321799e-8, 2.8333349e+1
0.015, 3.6739689e-9, -1.1231533e-8, 2.8666683e+1
0.014, 3.9386152e-9, -1.1141028e-8, 2.9000017e+1
0.013, 3.9597841e-9, -1.0984939e-8, 2.9333351e+1
0.012, 4.0272834e-9, -1.0968244e-8, 2.9666685e+1
0.011, 4.1230610e-9, -1.0918159e-8, 3.0000019e+1
0.010, 4.1871262e-9, -1.0886606e-8, 3.0333353e+1
0.009, 4.1431916e-9, -1.0793944e-8, 3.0666687e+1
0.008, 4.4994617e-9, -1.0791787e-8, 3.1000021e+1
0.007, 4.3170130e-9, -1.0634740e-8, 3.1333355e+1
0.006, 4.5755084e-9, -1.0536486e-8, 3.1666689e+1
0.005, 4.5886090e-9, -1.0494788e-8, 3.2000023e+1
0.004, 4.6740820e-9, -1.0455887e-8, 3.2333355e+1
0.003, 4.6648161e-9, -1.0403484e-8, 3.2666687e+1
0.002, 4.8133151e-9, -1.0376484e-8, 3.3000019e+1
0.001, 4.9198765e-9, -1.0306429e-8, 3.3333351e+1
-0.000, 4.9055777e-9, -1.0237091e-8, 3.3666683e+1
-0.001, 5.0075863e-9, -1.0091468e-8, 3.4000015e+1
-0.002, 5.1290057e-9, -1.0021572e-8, 3.4333347e+1
-0.003, 5.1376330e-9, -1.0000803e-8, 3.4666679e+1
-0.004, 5.1390709e-9, -9.9818704e-9, 3.5000011e+1
-0.005, 5.2942801e-9, -9.9124549e-9, 3.5333344e+1
-0.006, 5.4158593e-9, -9.8803419e-9, 3.5666676e+1
-0.007, 5.4920659e-9, -9.8622888e-9, 3.6000008e+1
-0.008, 5.5619620e-9, -9.7166648e-9, 3.6333340e+1
-0.009, 5.5739440e-9, -9.6597095e-9, 3.6666672e+1
-0.010, 5.5856066e-9, -9.5879766e-9, 3.7000004e+1
-0.011, 5.6387282e-9, -9.5226333e-9, 3.7333336e+1
-0.012, 5.6779497e-9, -9.5079358e-9, 3.7666668e+1
-0.013, 5.8108722e-9, -9.4872457e-9, 3.8000000e+1
-0.014, 5.7380203e-9, -9.4631218e-9, 3.8333332e+1
-0.015, 6.0521930e-9, -9.4069650e-9, 3.8666664e+1
-0.016, 6.0263918e-9, -9.3935455e-9, 3.8999996e+1
-0.017, 5.9979541e-9, -9.3544834e-9, 3.9333328e+1
-0.018, 6.1125038e-9, -9.3123864e-9, 3.9666660e+1
-0.019, 6.0965273e-9, -9.1981560e-9, 3.9999992e+1
-0.020, 6.1176157e-9, -9.1608516e-9, 4.0333324e+1
-0.021, 6.3944041e-9, -9.1225090e-9, 4.0666656e+1
-0.022, 6.2804140e-9, -9.0330419e-9, 4.0999989e+1
-0.023, 6.3821024e-9, -9.0294465e-9, 4.1333321e+1
-0.024, 6.4900219e-9, -9.0048431e-9, 4.1666653e+1
-0.025, 6.4954544e-9, -8.9732106e-9, 4.1999985e+1
-0.026, 6.5467383e-9, -8.9506846e-9, 4.2333317e+1
-0.027, 6.5742971e-9, -8.9188914e-9, 4.2666649e+1
-0.028, 6.6282171e-9, -8.8986818e-9, 4.2999981e+1
-0.029, 6.6103234e-9, -8.8738386e-9, 4.3333313e+1
-0.030, 6.6529804e-9, -8.8434033e-9, 4.3666645e+1
-0.031, 6.7149677e-9, -8.7809360e-9, 4.3999977e+1
-0.032, 6.7004295e-9, -8.7464276e-9, 4.4333309e+1
-0.033, 6.7184831e-9, -8.6361123e-9, 4.4666641e+1
-0.034, 6.9280111e-9, -8.5901002e-9, 4.4999973e+1
-0.035, 6.7509944e-9, -8.5790761e-9, 4.5333305e+1
-0.036, 6.8575563e-9, -8.5492804e-9, 4.5666637e+1
-0.037, 7.0123658e-9, -8.5132541e-9, 4.5999969e+1
-0.038, 6.9236177e-9, -8.5140535e-9, 4.6333302e+1
-0.039, 7.0189157e-9, -8.4818614e-9, 4.6666634e+1
-0.040, 7.0646080e-9, -8.4657250e-9, 4.6999966e+1
-0.041, 7.0459953e-9, -8.4440765e-9, 4.7333298e+1
-0.042, 7.0616522e-9, -8.4211518e-9, 4.7666630e+1
-0.043, 7.0650072e-9, -8.3997431e-9, 4.7999962e+1
-0.044, 7.0919275e-9, -8.3873619e-9, 4.8333294e+1
-0.045, 7.1381785e-9, -8.3573264e-9, 4.8666626e+1
-0.046, 7.1575896e-9, -8.3439859e-9, 4.8999958e+1
-0.047, 7.2446600e-9, -8.2765661e-9, 4.9333290e+1
-0.048, 7.2039210e-9, -8.2033944e-9, 4.9666622e+1
-0.049, 7.1583881e-9, -8.1871789e-9, 4.9999954e+1
-0.050, 7.3991506e-9, -8.1531493e-9, 5.0333286e+1
-0.051, 7.3465887e-9, -8.0965137e-9, 5.0666618e+1
-0.052, 7.3106423e-9, -8.0676763e-9, 5.0999950e+1
-0.053, 7.4793514e-9, -8.0488247e-9, 5.1333282e+1
-0.054, 7.4073787e-9, -8.0263778e-9, 5.1666615e+1
-0.055, 7.4609785e-9, -8.0296534e-9, 5.1999947e+1
-0.056, 7.4933304e-9, -8.0167126e-9, 5.2333279e+1
-0.057, 7.4374937e-9, -7.9861184e-9, 5.2666611e+1
-0.058, 7.5089073e-9, -7.9691835e-9, 5.2999943e+1
-0.059, 7.5038749e-9, -7.9496125e-9, 5.3333275e+1
-0.060, 7.5361468e-9, -7.9265270e-9, 5.3666607e+1
-0.061, 7.5204900e-9, -7.9055180e-9, 5.3999939e+1
-0.062, 7.5326323e-9, -7.8924973e-9, 5.4333271e+1
-0.063, 7.5725728e-9, -7.8674942e-9, 5.4666603e+1
-0.064, 7.5466113e-9, -7.8325861e-9, 5.4999935e+1
-0.065, 7.5269604e-9, -7.7950419e-9, 5.5333267e+1
-0.066, 7.6280902e-9, -7.7631697e-9, 5.5666599e+1
-0.067, 7.5637852e-9, -7.7408027e-9, 5.5999931e+1
-0.068, 7.5868716e-9, -7.7258644e-9, 5.6333263e+1
-0.069, 7.6052444e-9, -7.6677908e-9, 5.6666595e+1
-0.070, 7.5760074e-9, -7.6265723e-9, 5.6999928e+1
-0.071, 7.6031670e-9, -7.5919839e-9, 5.7333260e+1
-0.072, 7.6737026e-9, -7.5756077e-9, 5.7666592e+1
-0.073, 7.6509368e-9, -7.5859932e-9, 5.7999924e+1
-0.074, 7.6186639e-9, -7.5551583e-9, 5.8333256e+1
-0.075, 7.6761788e-9, -7.5393425e-9, 5.8666588e+1
-0.076, 7.6849656e-9, -7.5318338e-9, 5.8999920e+1
-0.077, 7.7238678e-9, -7.5220079e-9, 5.9333252e+1
-0.078, 7.6979063e-9, -7.5061113e-9, 5.9666584e+1
-0.079, 7.7192341e-9, -7.5040347e-9, 5.9999916e+1
-0.080, 7.7697200e-9, -7.4888575e-9, 6.0333248e+1
-0.081, 7.6888798e-9, -7.4722415e-9, 6.0666580e+1
-0.082, 7.7815425e-9, -7.4595405e-9, 6.0999912e+1
-0.083, 7.8728464e-9, -7.4491560e-9, 6.1333244e+1
-0.084, 7.7843385e-9, -7.4350970e-9, 6.1666576e+1
-0.085, 7.8982492e-9, -7.4201592e-9, 6.1999908e+1
-0.086, 7.7851370e-9, -7.4160851e-9, 6.2333241e+1
-0.087, 7.8605442e-9, -7.4090556e-9, 6.2666573e+1
-0.088, 7.9555234e-9, -7.3589708e-9, 6.2999905e+1
-0.089, 7.8228410e-9, -7.3783815e-9, 6.3333237e+1
-0.090, 7.8178886e-9, -7.3243025e-9, 6.3666569e+1
-0.091, 7.9221332e-9, -7.2800481e-9, 6.3999901e+1
-0.092, 7.9658280e-9, -7.2938673e-9, 6.4333237e+1
-0.093, 7.9082341e-9, -7.2540067e-9, 6.4666573e+1
-0.094, 7.8977695e-9, -7.1949744e-9, 6.4999908e+1
-0.095, 7.9801268e-9, -7.1846693e-9, 6.5333244e+1
-0.096, 7.9452187e-9, -7.1712494e-9, 6.5666580e+1
-0.097, 7.9287634e-9, -7.1360216e-9, 6.5999916e+1
-0.098, 8.0252596e-9, -7.0959221e-9, 6.6333252e+1
-0.099, 8.0064080e-9, -7.1102204e-9, 6.6666588e+1
-0.100, 8.0147950e-9, -7.0867352e-9, 6.6999924e+1
-0.101, 8.0405975e-9, -7.0761108e-9, 6.7333260e+1
-0.102, 7.9973814e-9, -7.0877739e-9, 6.7666595e+1
-0.103, 8.0393185e-9, -7.0628512e-9, 6.7999931e+1
-0.104, 8.0524192e-9, -7.0558213e-9, 6.8333267e+1
-0.105, 8.0233429e-9, -7.0455961e-9, 6.8666603e+1
-0.106, 8.0211056e-9, -7.0446382e-9, 6.8999939e+1
-0.107, 8.0400380e-9, -7.0285813e-9, 6.9333275e+1
-0.108, 8.0520195e-9, -7.0251467e-9, 6.9666611e+1
-0.109, 8.0929192e-9, -7.0146027e-9, 6.9999947e+1
-0.110, 8.0513010e-9, -7.0082122e-9, 7.0333282e+1
-0.111, 8.0702325e-9, -6.9824102e-9, 7.0666618e+1
-0.112, 8.0703124e-9, -6.9830492e-9, 7.0999954e+1
-0.113, 8.0504226e-9, -6.9750614e-9, 7.1333290e+1
-0.114, 8.1108933e-9, -6.9619603e-9, 7.1666626e+1
-0.115, 8.0737479e-9, -6.9514163e-9, 7.1999962e+1
-0.116, 8.1056202e-9, -6.9479817e-9, 7.2333298e+1
-0.117, 8.2283975e-9, -6.9354402e-9, 7.2666634e+1
-0.118, 8.0966736e-9, -6.9145112e-9, 7.2999969e+1
-0.119, 8.1200788e-9, -6.9306472e-9, 7.3333305e+1
-0.120, 8.2542000e-9, -6.9188246e-9, 7.3666641e+1
-0.121, 8.0973921e-9, -6.8959789e-9, 7.3999977e+1
-0.122, 8.2029157e-9, -6.8868720e-9, 7.4333313e+1
-0.123, 8.2220879e-9, -6.8747306e-9, 7.4666649e+1
-0.124, 8.2426963e-9, -6.8696178e-9, 7.4999985e+1
-0.125, 8.2181728e-9, -6.8933428e-9, 7.5333321e+1
-0.126, 8.2608302e-9, -6.7962072e-9, 7.5666656e+1
-0.127, 8.3330427e-9, -6.8256036e-9, 7.5999992e+1
-0.128, 8.2649834e-9, -6.7787136e-9, 7.6333328e+1
-0.129, 8.2582732e-9, -6.7855033e-9, 7.6666664e+1
-0.130, 8.3457437e-9, -6.7586630e-9, 7.7000000e+1
-0.131, 8.3282492e-9, -6.7122521e-9, 7.7333336e+1
-0.132, 8.2900655e-9, -6.7161658e-9, 7.7666672e+1
-0.133, 8.4424796e-9, -6.7364558e-9, 7.8000008e+1
-0.134, 8.3919947e-9, -6.6939592e-9, 7.8333344e+1
-0.135, 8.3971869e-9, -6.6824564e-9, 7.8666679e+1
-0.136, 8.4654053e-9, -6.6457106e-9, 7.9000015e+1
-0.137, 8.3955092e-9, -6.6469887e-9, 7.9333351e+1
-0.138, 8.4623704e-9, -6.6433943e-9, 7.9666687e+1
-0.139, 8.4352108e-9, -6.6216663e-9, 8.0000023e+1
-0.140, 8.4798639e-9, -6.6313319e-9, 8.0333359e+1
-0.141, 8.4900087e-9, -6.6003385e-9, 8.0666695e+1
-0.142, 8.4691596e-9, -6.6002586e-9, 8.1000031e+1
-0.143, 8.5228402e-9, -6.5829240e-9, 8.1333366e+1
-0.144, 8.5186862e-9, -6.5788499e-9, 8.1666702e+1
-0.145, 8.5104590e-9, -6.5941075e-9, 8.2000038e+1
-0.146, 8.5595060e-9, -6.5674275e-9, 8.2333374e+1
-0.147, 8.5267544e-9, -6.5661490e-9, 8.2666710e+1
-0.148, 8.5412930e-9, -6.5666281e-9, 8.3000046e+1
-0.149, 8.6032008e-9, -6.5598385e-9, 8.3333382e+1
-0.150, 8.5573486e-9, -6.5680661e-9, 8.3666718e+1
-0.151, 8.6145437e-9, -6.5429040e-9, 8.4000053e+1
-0.152, 8.6396259e-9, -6.5485755e-9, 8.4333389e+1
-0.153, 8.5883425e-9, -6.5499330e-9, 8.4666725e+1
-0.154, 8.6229308e-9, -6.5242114e-9, 8.5000061e+1
-0.155, 8.6448182e-9, -6.5425843e-9, 8.5333397e+1
-0.156, 8.7296526e-9, -6.5278858e-9, 8.5666733e+1
-0.157, 8.7391587e-9, -6.5348358e-9, 8.6000069e+1
-0.158, 8.7145553e-9, -6.5252497e-9, 8.6333405e+1
-0.159, 8.8942880e-9, -6.5096728e-9, 8.6666740e+1
-0.160, 8.8593799e-9, -6.4950547e-9, 8.7000076e+1
-0.161, 8.8498746e-9, -6.4900219e-9, 8.7333412e+1
-0.162, 9.0085184e-9, -6.5032824e-9, 8.7666748e+1
-0.163, 8.9812788e-9, -6.4963328e-9, 8.8000084e+1
-0.164, 8.9661008e-9, -6.4805965e-9, 8.8333420e+1
-0.165, 9.0238546e-9, -6.4752443e-9, 8.8666756e+1
-0.166, 9.0107548e-9, -6.4728476e-9, 8.9000092e+1
-0.167, 9.0418286e-9, -6.4823538e-9, 8.9333427e+1
-0.168, 9.0777750e-9, -6.4499224e-9, 8.9666763e+1
-0.169, 9.0937515e-9, -6.4734071e-9, 9.0000099e+1
-0.170, 9.1385646e-9, -6.4708510e-9, 9.0333435e+1
-0.171, 9.1482306e-9, -6.4619043e-9, 9.0666771e+1
-0.172, 9.2932950e-9, -6.4571912e-9, 9.1000107e+1
-0.173, 9.2572678e-9, -6.4513594e-9, 9.1333443e+1
-0.174, 9.2442480e-9, -6.4487233e-9, 9.1666779e+1
-0.175, 9.4460271e-9, -6.4508803e-9, 9.2000114e+1
-0.176, 9.4471453e-9, -6.4436914e-9, 9.2333450e+1
-0.177, 9.4239798e-9, -6.4469665e-9, 9.2666786e+1
-0.178, 9.5097725e-9, -6.4603864e-9, 9.3000122e+1
-0.179, 9.5199972e-9, -6.4513594e-9, 9.3333458e+1
-0.180, 9.5440420e-9, -6.4364216e-9, 9.3666794e+1
-0.181, 9.6191304e-9, -6.4452088e-9, 9.4000130e+1
-0.182, 9.5575414e-9, -6.4365016e-9, 9.4333466e+1
-0.183, 9.6323101e-9, -6.4396173e-9, 9.4666801e+1
-0.184, 9.7544488e-9, -6.4350645e-9, 9.5000137e+1
-0.185, 9.7617976e-9, -6.4427326e-9, 9.5333473e+1
-0.186, 9.8734727e-9, -6.4218835e-9, 9.5666809e+1
-0.187, 9.9356994e-9, -6.4356231e-9, 9.6000145e+1
-0.188, 9.9901794e-9, -6.4537562e-9, 9.6333481e+1
-0.189, 9.9980069e-9, -6.4305912e-9, 9.6666817e+1
-0.190, 1.0040184e-8, -6.4637415e-9, 9.7000153e+1
-0.191, 1.0136441e-8, -6.4474457e-9, 9.7333488e+1
-0.192, 1.0179417e-8, -6.4678951e-9, 9.7666824e+1
-0.193, 1.0284700e-8, -6.4535164e-9, 9.8000160e+1
-0.194, 1.0450694e-8, -6.4810752e-9, 9.8333496e+1
-0.195, 1.0452931e-8, -6.4888241e-9, 9.8666832e+1
-0.196, 1.0482407e-8, -6.4837113e-9, 9.9000168e+1
-0.197, 1.0551584e-8, -6.4878658e-9, 9.9333504e+1
-0.198, 1.0549667e-8, -6.5006467e-9, 9.9666840e+1
-0.199, 1.0652154e-8, -6.4931380e-9, 1.0000018e+2
-0.200, 1.0804568e-8, -6.5224546e-9, 1.0033351e+2
-0.201, 1.0721731e-8, -6.5221348e-9, 1.0066685e+2
-0.202, 1.0924150e-8, -6.5344365e-9, 1.0100018e+2
-0.203, 1.0956661e-8, -6.5538472e-9, 1.0133352e+2
-0.204, 1.1015374e-8, -6.5523298e-9, 1.0166685e+2
-0.205, 1.0942682e-8, -6.5752559e-9, 1.0200019e+2
-0.206, 1.1136475e-8, -6.5962644e-9, 1.0233353e+2
-0.207, 1.1390736e-8, -6.6139183e-9, 1.0266686e+2
-0.208, 1.1381550e-8, -6.6607284e-9, 1.0300020e+2
-0.209, 1.1451846e-8, -6.6620069e-9, 1.0333353e+2
-0.210, 1.1616081e-8, -6.7288677e-9, 1.0366687e+2
-0.211, 1.1698519e-8, -6.8308759e-9, 1.0400021e+2
-0.212, 1.1844861e-8, -6.8432571e-9, 1.0433354e+2
-0.213, 1.1961009e-8, -6.8699375e-9, 1.0466688e+2
-0.214, 1.2016526e-8, -6.9308075e-9, 1.0500021e+2
-0.215, 1.2119413e-8, -6.9456654e-9, 1.0533355e+2
-0.216, 1.2419287e-8, -6.9858457e-9, 1.0566689e+2
-0.217, 1.2459227e-8, -7.0157209e-9, 1.0600022e+2
-0.218, 1.2529443e-8, -7.0539841e-9, 1.0633356e+2
-0.219, 1.2725711e-8, -7.1115784e-9, 1.0666689e+2
-0.220, 1.2903447e-8, -7.1752435e-9, 1.0700023e+2
-0.221, 1.2989560e-8, -7.3275768e-9, 1.0733356e+2
-0.222, 1.3197729e-8, -7.4007480e-9, 1.0766690e+2
-0.223, 1.3436096e-8, -7.4462809e-9, 1.0800024e+2
-0.224, 1.3496006e-8, -7.5176141e-9, 1.0833357e+2
-0.225, 1.3739804e-8, -7.5573956e-9, 1.0866691e+2
-0.226, 1.3951649e-8, -7.6383948e-9, 1.0900024e+2
-0.227, 1.4122515e-8, -7.8242790e-9, 1.0933358e+2
-0.228, 1.4363517e-8, -7.9269258e-9, 1.0966692e+2
-0.229, 1.4604439e-8, -8.0047302e-9, 1.1000025e+2
-0.230, 1.4776902e-8, -8.0910016e-9, 1.1033359e+2
-0.231, 1.4978442e-8, -8.2518836e-9, 1.1066692e+2
-0.232, 1.5300763e-8, -8.4127638e-9, 1.1100026e+2
-0.233, 1.5416751e-8, -8.4921661e-9, 1.1133360e+2
-0.234, 1.5698651e-8, -8.5939345e-9, 1.1166693e+2
-0.235, 1.5878705e-8, -8.8219148e-9, 1.1200027e+2
-0.236, 1.6270761e-8, -8.9454923e-9, 1.1233360e+2
-0.237, 1.6415585e-8, -9.0533314e-9, 1.1266694e+2
-0.238, 1.6763709e-8, -9.2954515e-9, 1.1300027e+2
-0.239, 1.7033068e-8, -9.4391579e-9, 1.1333361e+2
-0.240, 1.7322398e-8, -9.5680868e-9, 1.1366695e+2
-0.241, 1.7525695e-8, -9.8157980e-9, 1.1400028e+2
-0.242, 1.7854486e-8, -9.9612620e-9, 1.1433362e+2
-0.243, 1.8197577e-8, -1.0186048e-8, 1.1466695e+2
-0.244, 1.8387533e-8, -1.0376724e-8, 1.1500029e+2
-0.245, 1.8811225e-8, -1.0513161e-8, 1.1533363e+2
-0.246, 1.8970747e-8, -1.0787553e-8, 1.1566696e+2
-0.247, 1.9306087e-8, -1.0920475e-8, 1.1600030e+2
-0.248, 1.9665714e-8, -1.1139830e-8, 1.1633363e+2
-0.249, 1.9898248e-8, -1.1364375e-8, 1.1666697e+2
-0.250, 2.0279122e-8, -1.1509679e-8, 1.1700031e+2
-0.251, 2.0502309e-8, -1.1794856e-8, 1.1733364e+2
-0.252, 2.0796513e-8, -1.1976985e-8, 1.1766698e+2
-0.253, 2.1191765e-8, -1.2280054e-8, 1.1800031e+2
-0.254, 2.1363988e-8, -1.2429831e-8, 1.1833365e+2
-0.255, 2.1738710e-8, -1.2675306e-8, 1.1866698e+2
-0.256, 2.2075092e-8, -1.2878124e-8, 1.1900032e+2
-0.257, 2.2262252e-8, -1.3093644e-8, 1.1933366e+2
-0.258, 2.2689697e-8, -1.3331930e-8, 1.1966699e+2
-0.259, 2.2776689e-8, -1.3471403e-8, 1.2000033e+2
-0.260, 2.3120098e-8, -1.3752265e-8, 1.2033366e+2
-0.261, 2.3348719e-8, -1.3906036e-8, 1.2066700e+2
-0.262, 2.3657140e-8, -1.4122115e-8, 1.2100034e+2
-0.263, 2.3808195e-8, -1.4360881e-8, 1.2133367e+2
-0.264, 2.4170376e-8, -1.4470558e-8, 1.2166701e+2
-0.265, 2.4286365e-8, -1.4757571e-8, 1.2200034e+2
-0.266, 2.4566827e-8, -1.4872201e-8, 1.2233368e+2
-0.267, 2.4720119e-8, -1.5065273e-8, 1.2266702e+2
-0.268, 2.5033334e-8, -1.5295331e-8, 1.2300035e+2
-0.269, 2.5194534e-8, -1.5393985e-8, 1.2333369e+2
-0.270, 2.5306848e-8, -1.5569963e-8, 1.2366702e+2
-0.271, 2.5664157e-8, -1.5775896e-8, 1.2400036e+2
-0.272, 2.5720633e-8, -1.5860811e-8, 1.2433369e+2
-0.273, 2.5885109e-8, -1.6046455e-8, 1.2466703e+2
-0.274, 2.6188657e-8, -1.6249272e-8, 1.2500037e+2
-0.275, 2.6228118e-8, -1.6343852e-8, 1.2533370e+2
-0.276, 2.6505706e-8, -1.6436436e-8, 1.2566704e+2
-0.277, 2.6652128e-8, -1.6630466e-8, 1.2600037e+2
-0.278, 2.6710680e-8, -1.6764108e-8, 1.2633371e+2
-0.279, 2.6838970e-8, -1.6833445e-8, 1.2666705e+2
-0.280, 2.7013987e-8, -1.6891438e-8, 1.2700038e+2
-0.281, 2.7130216e-8, -1.7067737e-8, 1.2733372e+2
-0.282, 2.7312506e-8, -1.7226220e-8, 1.2766705e+2
-0.283, 2.7260823e-8, -1.7297236e-8, 1.2800038e+2
-0.284, 2.7506536e-8, -1.7354431e-8, 1.2833371e+2
-0.285, 2.7626438e-8, -1.7420092e-8, 1.2866704e+2
-0.286, 2.7666298e-8, -1.7578817e-8, 1.2900037e+2
-0.287, 2.7894520e-8, -1.7683140e-8, 1.2933369e+2
-0.288, 2.8025445e-8, -1.7756312e-8, 1.2966702e+2
-0.289, 2.8093183e-8, -1.7816941e-8, 1.3000035e+2
-0.290, 2.8212607e-8, -1.7848336e-8, 1.3033368e+2
-0.291, 2.8241605e-8, -1.7897863e-8, 1.3066701e+2
-0.292, 2.8265969e-8, -1.8049796e-8, 1.3100034e+2
-0.293, 2.8548747e-8, -1.8144696e-8, 1.3133366e+2
-0.294, 2.8569275e-8, -1.8209318e-8, 1.3166699e+2
-0.295, 2.8612254e-8, -1.8270747e-8, 1.3200032e+2
-0.296, 2.8688300e-8, -1.8292637e-8, 1.3233365e+2
-0.297, 2.8714421e-8, -1.8330260e-8, 1.3266698e+2
-0.298, 2.8811638e-8, -1.8355182e-8, 1.3300031e+2
-0.299, 2.9002154e-8, -1.8439376e-8, 1.3333363e+2
-0.300, 2.9042971e-8, -1.8532520e-8, 1.3366696e+2
-0.301, 2.9101205e-8, -1.8616953e-8, 1.3400029e+2
-0.302, 2.9115025e-8, -1.8650503e-8, 1.3433362e+2
-0.303, 2.9179091e-8, -1.8683014e-8, 1.3466695e+2
-0.304, 2.9203854e-8, -1.8748038e-8, 1.3500027e+2
-0.305, 2.9213361e-8, -1.8769926e-8, 1.3533360e+2
-0.306, 2.9403475e-8, -1.8778152e-8, 1.3566693e+2
-0.307, 2.9502768e-8, -1.8807151e-8, 1.3600026e+2
-0.308, 2.9563958e-8, -1.8823366e-8, 1.3633359e+2
-0.309, 2.9606214e-8, -1.8851086e-8, 1.3666692e+2
-0.310, 2.9590000e-8, -1.8911875e-8, 1.3700024e+2
-0.311, 2.9617000e-8, -1.8971306e-8, 1.3733357e+2
-0.312, 2.9689611e-8, -1.8988800e-8, 1.3766690e+2
-0.313, 2.9691369e-8, -1.9049748e-8, 1.3800023e+2
-0.314, 2.9786667e-8, -1.9117728e-8, 1.3833356e+2
-0.315, 2.9905053e-8, -1.9162462e-8, 1.3866689e+2
-0.316, 2.9941155e-8, -1.9199287e-8, 1.3900021e+2
-0.317, 3.0058985e-8, -1.9203600e-8, 1.3933354e+2
-0.318, 3.0060818e-8, -1.9242023e-8, 1.3966687e+2
-0.319, 3.0100519e-8, -1.9241705e-8, 1.4000020e+2
-0.320, 3.0111224e-8, -1.9258719e-8, 1.4033353e+2
-0.321, 3.0128319e-8, -1.9282522e-8, 1.4066685e+2
-0.322, 3.0219542e-8, -1.9291550e-8, 1.4100018e+2
-0.323, 3.0220821e-8, -1.9314715e-8, 1.4133351e+2
-0.324, 3.0234879e-8, -1.9312479e-8, 1.4166684e+2
-0.325, 3.0380026e-8, -1.9351940e-8, 1.4200017e+2
-0.326, 3.0351586e-8, -1.9344192e-8, 1.4233350e+2
-0.327, 3.0454714e-8, -1.9379740e-8, 1.4266682e+2
-0.328, 3.0520454e-8, -1.9419520e-8, 1.4300015e+2
-0.329, 3.0494654e-8, -1.9513060e-8, 1.4333348e+2
-0.330, 3.0553686e-8, -1.9485661e-8, 1.4366681e+2
-0.331, 3.0539550e-8, -1.9575609e-8, 1.4400014e+2
-0.332, 3.0567424e-8, -1.9579762e-8, 1.4433347e+2
-0.333, 3.0613119e-8, -1.9599971e-8, 1.4466679e+2
-0.334, 3.0583323e-8, -1.9643428e-8, 1.4500012e+2
-0.335, 3.0722315e-8, -1.9675699e-8, 1.4533345e+2
-0.336, 3.0641957e-8, -1.9678495e-8, 1.4566678e+2
-0.337, 3.0654896e-8, -1.9712923e-8, 1.4600011e+2
-0.338, 3.0860512e-8, -1.9722430e-8, 1.4633344e+2
-0.339, 3.0847570e-8, -1.9720273e-8, 1.4666676e+2
-0.340, 3.0831831e-8, -1.9742718e-8, 1.4700009e+2
-0.341, 3.0971385e-8, -1.9731216e-8, 1.4733342e+2
-0.342, 3.0898455e-8, -1.9766762e-8, 1.4766675e+2
-0.343, 3.0971783e-8, -1.9768441e-8, 1.4800008e+2
-0.344, 3.1022029e-8, -1.9771875e-8, 1.4833340e+2
-0.345, 3.0955249e-8, -1.9791207e-8, 1.4866673e+2
-0.346, 3.1030179e-8, -1.9800234e-8, 1.4900006e+2
-0.347, 3.1040322e-8, -1.9800313e-8, 1.4933339e+2
-0.348, 3.1050387e-8, -1.9809180e-8, 1.4966672e+2
-0.349, 3.1065007e-8, -1.9833864e-8, 1.5000005e+2
-0.350, 3.1061173e-8, -1.9815731e-8, 1.5033337e+2
-0.351, 3.1096800e-8, -1.9837858e-8, 1.5066670e+2
-0.352, 3.1078105e-8, -1.9846885e-8, 1.5100003e+2
-0.353, 3.1069078e-8, -1.9876040e-8, 1.5133336e+2
-0.354, 3.1181553e-8, -1.9878437e-8, 1.5166669e+2
-0.355, 3.1153036e-8, -1.9913266e-8, 1.5200002e+2
-0.356, 3.1147845e-8, -1.9913905e-8, 1.5233334e+2
-0.357, 3.1239786e-8, -1.9962952e-8, 1.5266667e+2
-0.358, 3.1153753e-8, -1.9977970e-8, 1.5300000e+2
-0.359, 3.1192815e-8, -1.9978449e-8, 1.5333333e+2
-0.360, 3.1293148e-8, -2.0021984e-8, 1.5366666e+2
-0.361, 3.1302495e-8, -2.0092440e-8, 1.5399998e+2
-0.362, 3.1224129e-8, -2.0048185e-8, 1.5433331e+2
-0.363, 3.1363363e-8, -2.0071351e-8, 1.5466664e+2
-0.364, 3.1417922e-8, -2.0108496e-8, 1.5499997e+2
-0.365, 3.1460576e-8, -2.0119121e-8, 1.5533330e+2
-0.366, 3.1471522e-8, -2.0102904e-8, 1.5566663e+2
-0.367, 3.1534146e-8, -2.0130543e-8, 1.5599995e+2
-0.368, 3.1536224e-8, -2.0151232e-8, 1.5633328e+2
-0.369, 3.1489016e-8, -2.0161696e-8, 1.5666661e+2
-0.370, 3.1562028e-8, -2.0185659e-8, 1.5699994e+2
-0.371, 3.1532871e-8, -2.0166649e-8, 1.5733327e+2
-0.372, 3.1587827e-8, -2.0198202e-8, 1.5766660e+2
-0.373, 3.1642148e-8, -2.0194847e-8, 1.5799992e+2
-0.374, 3.1581518e-8, -2.0219291e-8, 1.5833325e+2
-0.375, 3.1661880e-8, -2.0215936e-8, 1.5866658e+2
-0.376, 3.1643665e-8, -2.0216255e-8, 1.5899991e+2
-0.377, 3.1661799e-8, -2.0246452e-8, 1.5933324e+2
-0.378, 3.1697425e-8, -2.0245013e-8, 1.5966656e+2
-0.379, 3.1775230e-8, -2.0252122e-8, 1.5999989e+2
-0.380, 3.1806781e-8, -2.0257074e-8, 1.6033322e+2
-0.381, 3.1914066e-8, -2.0266899e-8, 1.6066655e+2
-0.382, 3.1863660e-8, -2.0282556e-8, 1.6099988e+2
-0.383, 3.1968064e-8, -2.0274888e-8, 1.6133321e+2
-0.384, 3.1997619e-8, -2.0275047e-8, 1.6166653e+2
-0.385, 3.2012238e-8, -2.0289665e-8, 1.6199986e+2
-0.386, 3.2056651e-8, -2.0294220e-8, 1.6233319e+2
-0.387, 3.2049861e-8, -2.0296616e-8, 1.6266652e+2
-0.388, 3.2040997e-8, -2.0309157e-8, 1.6299985e+2
-0.389, 3.2150432e-8, -2.0332882e-8, 1.6333318e+2
-0.390, 3.2075103e-8, -2.0321858e-8, 1.6366650e+2
-0.391, 3.2144044e-8, -2.0333202e-8, 1.6399983e+2
-0.392, 3.2204351e-8, -2.0369626e-8, 1.6433316e+2
-0.393, 3.2196926e-8, -2.0350615e-8, 1.6466649e+2
-0.394, 3.2232869e-8, -2.0389757e-8, 1.6499982e+2
-0.395, 3.2297574e-8, -2.0426183e-8, 1.6533315e+2
-0.396, 3.2371624e-8, -2.0450626e-8, 1.6566647e+2
-0.397, 3.2378253e-8, -2.0495122e-8, 1.6599980e+2
-0.398, 3.2420829e-8, -2.0493363e-8, 1.6633313e+2
-0.399, 3.2486493e-8, -2.0548402e-8, 1.6666646e+2
-0.400, 3.2498875e-8, -2.0574044e-8, 1.6699979e+2
-0.401, 3.2502552e-8, -2.0611347e-8, 1.6733311e+2
-0.402, 3.2570206e-8, -2.0633953e-8, 1.6766644e+2
-0.403, 3.2542410e-8, -2.0618856e-8, 1.6799977e+2
-0.404, 3.2599445e-8, -2.0650809e-8, 1.6833310e+2
-0.405, 3.2676052e-8, -2.0660476e-8, 1.6866643e+2
-0.406, 3.2607115e-8, -2.0668862e-8, 1.6899976e+2
-0.407, 3.2703053e-8, -2.0663352e-8, 1.6933308e+2
-0.408, 3.2803303e-8, -2.0713356e-8, 1.6966641e+2
-0.409, 3.2821355e-8, -2.0697380e-8, 1.6999974e+2
-0.410, 3.3009396e-8, -2.0707365e-8, 1.7033307e+2
-0.411, 3.2980797e-8, -2.0712557e-8, 1.7066640e+2
-0.412, 3.2955157e-8, -2.0738518e-8, 1.7099973e+2
-0.413, 3.3025131e-8, -2.0746427e-8, 1.7133305e+2
-0.414, 3.3023934e-8, -2.0755772e-8, 1.7166638e+2
-0.415, 3.3091993e-8, -2.0752099e-8, 1.7199971e+2
-0.416, 3.3080251e-8, -2.0767436e-8, 1.7233304e+2
-0.417, 3.3108449e-8, -2.0773987e-8, 1.7266637e+2
-0.418, 3.3281712e-8, -2.0782453e-8, 1.7299969e+2
-0.419, 3.3319576e-8, -2.0808974e-8, 1.7333302e+2
-0.420, 3.3288099e-8, -2.0805780e-8, 1.7366635e+2
-0.421, 3.3446586e-8, -2.0849075e-8, 1.7399968e+2
-0.422, 3.3396820e-8, -2.0854266e-8, 1.7433301e+2
-0.423, 3.3485886e-8, -2.0877511e-8, 1.7466634e+2
-0.424, 3.3510251e-8, -2.0891411e-8, 1.7499966e+2
-0.425, 3.3511768e-8, -2.0927837e-8, 1.7533299e+2
-0.426, 3.3542204e-8, -2.0951003e-8, 1.7566632e+2
-0.427, 3.3556741e-8, -2.0993500e-8, 1.7599965e+2
-0.428, 3.3671689e-8, -2.1026091e-8, 1.7633298e+2
-0.429, 3.3761957e-8, -2.1069068e-8, 1.7666631e+2
-0.430, 3.3767947e-8, -2.1063874e-8, 1.7699963e+2
-0.431, 3.3900950e-8, -2.1110527e-8, 1.7733296e+2
-0.432, 3.3944005e-8, -2.1125224e-8, 1.7766629e+2
-0.433, 3.4006554e-8, -2.1131374e-8, 1.7799962e+2
-0.434, 3.4071260e-8, -2.1140881e-8, 1.7833295e+2
-0.435, 3.4071096e-8, -2.1178264e-8, 1.7866628e+2
-0.436, 3.4101610e-8, -2.1162528e-8, 1.7899960e+2
-0.437, 3.4160564e-8, -2.1177867e-8, 1.7933293e+2
-0.438, 3.4178456e-8, -2.1199593e-8, 1.7966626e+2
-0.439, 3.4297003e-8, -2.1208059e-8, 1.7999959e+2
-0.440, 3.4372249e-8, -2.1223638e-8, 1.8033292e+2
-0.441, 3.4446380e-8, -2.1221002e-8, 1.8066624e+2
-0.442, 3.4463312e-8, -2.1243050e-8, 1.8099957e+2
-0.443, 3.4498701e-8, -2.1255831e-8, 1.8133290e+2
-0.444, 3.4543596e-8, -2.1270766e-8, 1.8166623e+2
-0.445, 3.4626673e-8, -2.1266613e-8, 1.8199956e+2
-0.446, 3.4635057e-8, -2.1299366e-8, 1.8233289e+2
-0.447, 3.4832762e-8, -2.1290818e-8, 1.8266621e+2
-0.448, 3.4798816e-8, -2.1304238e-8, 1.8299954e+2
-0.449, 3.4906016e-8, -2.1348651e-8, 1.8333287e+2
-0.450, 3.4999715e-8, -2.1365826e-8, 1.8366620e+2
-0.451, 3.4996521e-8, -2.1405528e-8, 1.8399953e+2
-0.452, 3.5014573e-8, -2.1458648e-8, 1.8433286e+2
-0.453, 3.5145657e-8, -2.1504180e-8, 1.8466618e+2
-0.454, 3.5144222e-8, -2.1519677e-8, 1.8499951e+2
-0.455, 3.5323474e-8, -2.1526628e-8, 1.8533284e+2
-0.456, 3.5376036e-8, -2.1563853e-8, 1.8566617e+2
-0.457, 3.5456001e-8, -2.1594845e-8, 1.8599950e+2
-0.458, 3.5469817e-8, -2.1622563e-8, 1.8633282e+2
-0.459, 3.5525254e-8, -2.1636305e-8, 1.8666615e+2
-0.460, 3.5614800e-8, -2.1650123e-8, 1.8699948e+2
-0.461, 3.5764899e-8, -2.1684553e-8, 1.8733281e+2
-0.462, 3.5817859e-8, -2.1700448e-8, 1.8766614e+2
-0.463, 3.5919626e-8, -2.1712351e-8, 1.8799947e+2
-0.464, 3.5939600e-8, -2.1708916e-8, 1.8833279e+2
-0.465, 3.5974985e-8, -2.1738710e-8, 1.8866612e+2
-0.466, 3.6093450e-8, -2.1749177e-8, 1.8899945e+2
-0.467, 3.6120930e-8, -2.1765073e-8, 1.8933278e+2
-0.468, 3.6257767e-8, -2.1780171e-8, 1.8966611e+2
-0.469, 3.6424719e-8, -2.1817714e-8, 1.8999944e+2
-0.470, 3.6424556e-8, -2.1843995e-8, 1.9033276e+2
-0.471, 3.6476720e-8, -2.1896238e-8, 1.9066609e+2
-0.472, 3.6563311e-8, -2.1888409e-8, 1.9099942e+2
-0.473, 3.6622822e-8, -2.2005995e-8, 1.9133275e+2
-0.474, 3.6733539e-8, -2.2009349e-8, 1.9166608e+2
-0.475, 3.6917186e-8, -2.2074213e-8, 1.9199940e+2
-0.476, 3.6948180e-8, -2.2107765e-8, 1.9233273e+2
-0.477, 3.6978616e-8, -2.2120464e-8, 1.9266606e+2
-0.478, 3.7021110e-8, -2.2140195e-8, 1.9299939e+2
-0.479, 3.7233036e-8, -2.2175422e-8, 1.9333272e+2
-0.480, 3.7374026e-8, -2.2188443e-8, 1.9366605e+2
-0.481, 3.7400465e-8, -2.2211688e-8, 1.9399937e+2
-0.482, 3.7505192e-8, -2.2240046e-8, 1.9433270e+2
-0.483, 3.7594660e-8, -2.2253067e-8, 1.9466603e+2
-0.484, 3.7744755e-8, -2.2277431e-8, 1.9499936e+2
-0.485, 3.7924167e-8, -2.2294046e-8, 1.9533269e+2
-0.486, 3.7935354e-8, -2.2370733e-8, 1.9566602e+2
-0.487, 3.8020744e-8, -2.2415305e-8, 1.9599934e+2
-0.488, 3.8153349e-8, -2.2511562e-8, 1.9633267e+2
-0.489, 3.8278682e-8, -2.2566681e-8, 1.9666600e+2
-0.490, 3.8392113e-8, -2.2580101e-8, 1.9699933e+2
-0.491, 3.8408327e-8, -2.2625793e-8, 1.9733266e+2
-0.492, 3.8484615e-8, -2.2646642e-8, 1.9766599e+2
-0.493, 3.8778659e-8, -2.2691296e-8, 1.9799931e+2
-0.494, 3.8773866e-8, -2.2716458e-8, 1.9833264e+2
-0.495, 3.8912138e-8, -2.2727642e-8, 1.9866597e+2
-0.496, 3.8980840e-8, -2.2759913e-8, 1.9899930e+2
-0.497, 3.9063437e-8, -2.2811118e-8, 1.9933263e+2
-0.498, 3.9367386e-8, -2.2900664e-8, 1.9966595e+2
-0.499, 3.9372814e-8, -2.2999556e-8, 1.9999928e+2
