Dec. 21, 2005   02:27:26
Cyclic Voltammetry
File: d:\ida_biofilms\12_10_18_dphzstar\a_760b\50um_pyo\a_50um_pyo_gc_1.txt
Data Source:  Experiment
Instrument Model:  CHI760E
Header: 
Note: 

Init E (V) = 0.1
High E (V) = 0.1
Low E (V) = -0.5
Init P/N = N
Scan Rate (V/s) = 0.003
Segment = 1
Sample Interval (V) = 0.001
Quiet Time (sec) = 2
Sensitivity (A/V) = 1e-7
2nd E (V) = 0.1
Sens 2 (A/V) = 1e-7

Potential/V, i1/A, i2/A, Time/s

0.100, -1.1230017e-7, -9.4322559e-8, 3.3333334e-1
0.099, -9.3364484e-8, -8.4764849e-8, 6.6666669e-1
0.098, -8.1113818e-8, -7.7328544e-8, 1.0000000e+0
0.097, -7.1936341e-8, -7.1444255e-8, 1.3333334e+0
0.096, -6.4788011e-8, -6.6421961e-8, 1.6666667e+0
0.095, -5.9024497e-8, -6.2290901e-8, 2.0000000e+0
0.094, -5.3856020e-8, -5.8675557e-8, 2.3333333e+0
0.093, -4.9733352e-8, -5.5539900e-8, 2.6666665e+0
0.092, -4.6026539e-8, -5.2726563e-8, 2.9999998e+0
0.091, -4.2796064e-8, -5.0247049e-8, 3.3333330e+0
0.090, -4.0024187e-8, -4.7989126e-8, 3.6666663e+0
0.089, -3.7547149e-8, -4.6007031e-8, 3.9999995e+0
0.088, -3.5172597e-8, -4.4186539e-8, 4.3333330e+0
0.087, -3.3051432e-8, -4.2527965e-8, 4.6666665e+0
0.086, -3.1092583e-8, -4.0984901e-8, 5.0000000e+0
0.085, -2.9427538e-8, -3.9645847e-8, 5.3333335e+0
0.084, -2.7810982e-8, -3.8370462e-8, 5.6666670e+0
0.083, -2.6346600e-8, -3.7239428e-8, 6.0000005e+0
0.082, -2.5045493e-8, -3.6122366e-8, 6.3333340e+0
0.081, -2.3688949e-8, -3.5142463e-8, 6.6666675e+0
0.080, -2.2558391e-8, -3.4218797e-8, 7.0000010e+0
0.079, -2.1511866e-8, -3.3396820e-8, 7.3333344e+0
0.078, -2.0373719e-8, -3.2510616e-8, 7.6666679e+0
0.077, -1.9484320e-8, -3.1833704e-8, 8.0000010e+0
0.076, -1.8546515e-8, -3.1069398e-8, 8.3333340e+0
0.075, -1.7649768e-8, -3.0477160e-8, 8.6666670e+0
0.074, -1.6985158e-8, -2.9820296e-8, 9.0000000e+0
0.073, -1.6207592e-8, -2.9240358e-8, 9.3333330e+0
0.072, -1.5473084e-8, -2.8637816e-8, 9.6666660e+0
0.071, -1.4833476e-8, -2.8091428e-8, 9.9999990e+0
0.070, -1.4129083e-8, -2.7504059e-8, 1.0333332e+1
0.069, -1.3563444e-8, -2.7021098e-8, 1.0666665e+1
0.068, -1.3041100e-8, -2.6546685e-8, 1.0999998e+1
0.067, -1.2515561e-8, -2.6143283e-8, 1.1333331e+1
0.066, -1.1967816e-8, -2.5702178e-8, 1.1666664e+1
0.065, -1.1415437e-8, -2.5258441e-8, 1.1999997e+1
0.064, -1.1042951e-8, -2.4943628e-8, 1.2333330e+1
0.063, -1.0515655e-8, -2.4607647e-8, 1.2666663e+1
0.062, -9.9401909e-9, -2.4179723e-8, 1.2999996e+1
0.061, -9.6201065e-9, -2.3916993e-8, 1.3333329e+1
0.060, -9.2296464e-9, -2.3585326e-8, 1.3666662e+1
0.059, -8.7181675e-9, -2.3222825e-8, 1.3999995e+1
0.058, -8.4226874e-9, -2.3005230e-8, 1.4333328e+1
0.057, -8.1044398e-9, -2.2689937e-8, 1.4666661e+1
0.056, -7.6727611e-9, -2.2418980e-8, 1.4999994e+1
0.055, -7.3784792e-9, -2.2172228e-8, 1.5333327e+1
0.054, -7.1627202e-9, -2.1867720e-8, 1.5666660e+1
0.053, -6.7308026e-9, -2.1668177e-8, 1.5999993e+1
0.052, -6.5342145e-9, -2.1350409e-8, 1.6333326e+1
0.051, -6.1902456e-9, -2.1197037e-8, 1.6666660e+1
0.050, -5.9001173e-9, -2.0930313e-8, 1.6999994e+1
0.049, -5.6658256e-9, -2.0740197e-8, 1.7333328e+1
0.048, -5.3034843e-9, -2.0511576e-8, 1.7666662e+1
0.047, -5.2053104e-9, -2.0285754e-8, 1.7999996e+1
0.046, -4.7932027e-9, -2.0169445e-8, 1.8333330e+1
0.045, -4.6899964e-9, -1.9888821e-8, 1.8666664e+1
0.044, -4.3945159e-9, -1.9736488e-8, 1.8999998e+1
0.043, -4.1800341e-9, -1.9599014e-8, 1.9333332e+1
0.042, -3.9260919e-9, -1.9321106e-8, 1.9666666e+1
0.041, -3.7533887e-9, -1.9249214e-8, 2.0000000e+1
0.040, -3.5054371e-9, -1.9077389e-8, 2.0333334e+1
0.039, -3.3437577e-9, -1.8895339e-8, 2.0666668e+1
0.038, -3.2374357e-9, -1.8741966e-8, 2.1000002e+1
0.037, -2.9552951e-9, -1.8649066e-8, 2.1333336e+1
0.036, -2.8147042e-9, -1.8392248e-8, 2.1666670e+1
0.035, -2.6097289e-9, -1.8299026e-8, 2.2000004e+1
0.034, -2.5278508e-9, -1.8196618e-8, 2.2333338e+1
0.033, -2.2424349e-9, -1.8009537e-8, 2.2666672e+1
0.032, -2.0062263e-9, -1.7840907e-8, 2.3000006e+1
0.031, -1.8682713e-9, -1.7775164e-8, 2.3333340e+1
0.030, -1.6950887e-9, -1.7698079e-8, 2.3666674e+1
0.029, -1.6056217e-9, -1.7483199e-8, 2.4000008e+1
0.028, -1.3535165e-9, -1.7352033e-8, 2.4333342e+1
0.027, -1.2269048e-9, -1.7279660e-8, 2.4666676e+1
0.026, -1.1409526e-9, -1.7218392e-8, 2.5000010e+1
0.025, -9.1424968e-10, -1.7094976e-8, 2.5333344e+1
0.024, -7.8651952e-10, -1.6901582e-8, 2.5666677e+1
0.023, -7.6806700e-10, -1.6843110e-8, 2.6000011e+1
0.022, -5.7834904e-10, -1.6794383e-8, 2.6333345e+1
0.021, -3.7888559e-10, -1.6712184e-8, 2.6666679e+1
0.020, -3.2145098e-10, -1.6585412e-8, 2.7000013e+1
0.019, -2.5307265e-10, -1.6422536e-8, 2.7333347e+1
0.018, -1.0489293e-10, -1.6357673e-8, 2.7666681e+1
0.017, 1.4633356e-10, -1.6306149e-8, 2.8000015e+1
0.016, 1.8363810e-10, -1.6250311e-8, 2.8333349e+1
0.015, 2.2405801e-10, -1.6185687e-8, 2.8666683e+1
0.014, 4.4237344e-10, -1.5999245e-8, 2.9000017e+1
0.013, 5.4757704e-10, -1.5883257e-8, 2.9333351e+1
0.012, 6.6843731e-10, -1.5838763e-8, 2.9666685e+1
0.011, 7.7164386e-10, -1.5808409e-8, 3.0000019e+1
0.010, 7.4304640e-10, -1.5746101e-8, 3.0333353e+1
0.009, 9.1838576e-10, -1.5679001e-8, 3.0666687e+1
0.008, 1.1339054e-9, -1.5545758e-8, 3.1000021e+1
0.007, 1.1497219e-9, -1.5429531e-8, 3.1333355e+1
0.006, 1.2202569e-9, -1.5377848e-8, 3.1666689e+1
0.005, 1.3406379e-9, -1.5333354e-8, 3.2000023e+1
0.004, 1.4920130e-9, -1.5307634e-8, 3.2333355e+1
0.003, 1.5945804e-9, -1.5239094e-8, 3.2666687e+1
0.002, 1.6572074e-9, -1.5198117e-8, 3.3000019e+1
0.001, 1.7229496e-9, -1.5080930e-8, 3.3333351e+1
-0.000, 1.7854167e-9, -1.4996496e-8, 3.3666683e+1
-0.001, 1.8861470e-9, -1.4902716e-8, 3.4000015e+1
-0.002, 2.0913618e-9, -1.4876035e-8, 3.4333347e+1
-0.003, 2.1487965e-9, -1.4831780e-8, 3.4666679e+1
-0.004, 2.1717224e-9, -1.4789682e-8, 3.5000011e+1
-0.005, 2.3390736e-9, -1.4767237e-8, 3.5333344e+1
-0.006, 2.3083193e-9, -1.4657879e-8, 3.5666676e+1
-0.007, 2.5597056e-9, -1.4569451e-8, 3.6000008e+1
-0.008, 2.6477347e-9, -1.4473353e-8, 3.6333340e+1
-0.009, 2.6860778e-9, -1.4408809e-8, 3.6666672e+1
-0.010, 2.7410361e-9, -1.4394990e-8, 3.7000004e+1
-0.011, 2.8095741e-9, -1.4375978e-8, 3.7333336e+1
-0.012, 2.9202896e-9, -1.4331085e-8, 3.7666668e+1
-0.013, 3.0278895e-9, -1.4302567e-8, 3.8000000e+1
-0.014, 3.0965874e-9, -1.4260709e-8, 3.8333332e+1
-0.015, 3.1239069e-9, -1.4197603e-8, 3.8666664e+1
-0.016, 3.1548206e-9, -1.4116044e-8, 3.8999996e+1
-0.017, 3.2275125e-9, -1.4015873e-8, 3.9333328e+1
-0.018, 3.4328074e-9, -1.3963790e-8, 3.9666660e+1
-0.019, 3.5162833e-9, -1.3911948e-8, 3.9999992e+1
-0.020, 3.5487153e-9, -1.3889981e-8, 4.0333324e+1
-0.021, 3.6317118e-9, -1.3871048e-8, 4.0666656e+1
-0.022, 3.6755667e-9, -1.3847403e-8, 4.0999989e+1
-0.023, 3.7189420e-9, -1.3801393e-8, 4.1333321e+1
-0.024, 3.8517047e-9, -1.3762091e-8, 4.1666653e+1
-0.025, 3.8591339e-9, -1.3716638e-8, 4.1999985e+1
-0.026, 4.0244079e-9, -1.3696589e-8, 4.2333317e+1
-0.027, 4.0285619e-9, -1.3580361e-8, 4.2666649e+1
-0.028, 4.1112389e-9, -1.3512143e-8, 4.2999981e+1
-0.029, 4.1157922e-9, -1.3457663e-8, 4.3333313e+1
-0.030, 4.1382386e-9, -1.3426030e-8, 4.3666645e+1
-0.031, 4.2609365e-9, -1.3415167e-8, 4.3999977e+1
-0.032, 4.3676578e-9, -1.3396154e-8, 4.4333309e+1
-0.033, 4.4125508e-9, -1.3372110e-8, 4.4666641e+1
-0.034, 4.5623278e-9, -1.3336723e-8, 4.4999973e+1
-0.035, 4.5771862e-9, -1.3306607e-8, 4.5333305e+1
-0.036, 4.5783843e-9, -1.3300458e-8, 4.5666637e+1
-0.037, 4.6212008e-9, -1.3250931e-8, 4.5999969e+1
-0.038, 4.6406918e-9, -1.3246377e-8, 4.6333302e+1
-0.039, 4.6707269e-9, -1.3170729e-8, 4.6666634e+1
-0.040, 4.7935842e-9, -1.3127115e-8, 4.6999966e+1
-0.041, 4.7963007e-9, -1.3017518e-8, 4.7333298e+1
-0.042, 4.7628301e-9, -1.3005856e-8, 4.7666630e+1
-0.043, 4.9090128e-9, -1.2977018e-8, 4.7999962e+1
-0.044, 5.0374620e-9, -1.2925256e-8, 4.8333294e+1
-0.045, 5.0444116e-9, -1.2913273e-8, 4.8666626e+1
-0.046, 5.0683759e-9, -1.2899933e-8, 4.8999958e+1
-0.047, 5.1241331e-9, -1.2890905e-8, 4.9333290e+1
-0.048, 5.1024851e-9, -1.2840900e-8, 4.9666622e+1
-0.049, 5.1184612e-9, -1.2842338e-8, 4.9999954e+1
-0.050, 5.2380438e-9, -1.2822767e-8, 5.0333286e+1
-0.051, 5.2516236e-9, -1.2773800e-8, 5.0666618e+1
-0.052, 5.2417182e-9, -1.2761019e-8, 5.0999950e+1
-0.053, 5.4923857e-9, -1.2736815e-8, 5.1333282e+1
-0.054, 5.4150604e-9, -1.2675865e-8, 5.1666615e+1
-0.055, 5.4859952e-9, -1.2690323e-8, 5.1999947e+1
-0.056, 5.5491012e-9, -1.2592949e-8, 5.2333279e+1
-0.057, 5.5532547e-9, -1.2572021e-8, 5.2666611e+1
-0.058, 5.5702700e-9, -1.2483512e-8, 5.2999943e+1
-0.059, 5.5640390e-9, -1.2462583e-8, 5.3333275e+1
-0.060, 5.6125269e-9, -1.2444450e-8, 5.3666607e+1
-0.061, 5.6283436e-9, -1.2432787e-8, 5.3999939e+1
-0.062, 5.6061364e-9, -1.2430870e-8, 5.4333271e+1
-0.063, 5.6939258e-9, -1.2409062e-8, 5.4666603e+1
-0.064, 5.6952043e-9, -1.2412098e-8, 5.4999935e+1
-0.065, 5.6970411e-9, -1.2398439e-8, 5.5333267e+1
-0.066, 5.8960250e-9, -1.2366326e-8, 5.5666599e+1
-0.067, 5.7834728e-9, -1.2348193e-8, 5.5999931e+1
-0.068, 5.8594400e-9, -1.2334773e-8, 5.6333263e+1
-0.069, 5.9800604e-9, -1.2325107e-8, 5.6666595e+1
-0.070, 5.9525012e-9, -1.2296431e-8, 5.6999928e+1
-0.071, 5.9881287e-9, -1.2264716e-8, 5.7333260e+1
-0.072, 6.0588232e-9, -1.2237078e-8, 5.7666592e+1
-0.073, 6.0459624e-9, -1.2204966e-8, 5.7999924e+1
-0.074, 6.0212790e-9, -1.2151685e-8, 5.8333256e+1
-0.075, 6.0573058e-9, -1.2107511e-8, 5.8666588e+1
-0.076, 6.0653735e-9, -1.2107112e-8, 5.8999920e+1
-0.077, 6.1563581e-9, -1.2034179e-8, 5.9333252e+1
-0.078, 6.0808709e-9, -1.1997435e-8, 5.9666584e+1
-0.079, 6.1755299e-9, -1.1996716e-8, 5.9999916e+1
-0.080, 6.1496483e-9, -1.1969156e-8, 6.0333248e+1
-0.081, 6.1565979e-9, -1.1963325e-8, 6.0666580e+1
-0.082, 6.2762604e-9, -1.1945831e-8, 6.0999912e+1
-0.083, 6.2491003e-9, -1.1922266e-8, 6.1333244e+1
-0.084, 6.3062950e-9, -1.1929456e-8, 6.1666576e+1
-0.085, 6.4496821e-9, -1.1909165e-8, 6.1999908e+1
-0.086, 6.3887327e-9, -1.1896544e-8, 6.2333241e+1
-0.087, 6.4195671e-9, -1.1899420e-8, 6.2666573e+1
-0.088, 6.5165433e-9, -1.1895426e-8, 6.2999905e+1
-0.089, 6.5231736e-9, -1.1851970e-8, 6.3333237e+1
-0.090, 6.4833925e-9, -1.1850852e-8, 6.3666569e+1
-0.091, 6.5386700e-9, -1.1822734e-8, 6.3999901e+1
-0.092, 6.5572023e-9, -1.1814985e-8, 6.4333237e+1
-0.093, 6.5586403e-9, -1.1800288e-8, 6.4666573e+1
-0.094, 6.5606369e-9, -1.1754915e-8, 6.4999908e+1
-0.095, 6.5908319e-9, -1.1735584e-8, 6.5333244e+1
-0.096, 6.6057706e-9, -1.1707945e-8, 6.5666580e+1
-0.097, 6.6111223e-9, -1.1685978e-8, 6.5999916e+1
-0.098, 6.6786217e-9, -1.1666966e-8, 6.6333252e+1
-0.099, 6.6648829e-9, -1.1659536e-8, 6.6666588e+1
-0.100, 6.6771841e-9, -1.1610649e-8, 6.6999924e+1
-0.101, 6.7472401e-9, -1.1576540e-8, 6.7333260e+1
-0.102, 6.7160064e-9, -1.1532606e-8, 6.7666595e+1
-0.103, 6.8795236e-9, -1.1519026e-8, 6.7999931e+1
-0.104, 6.8375061e-9, -1.1507443e-8, 6.8333267e+1
-0.105, 6.7950889e-9, -1.1503689e-8, 6.8666603e+1
-0.106, 6.8197719e-9, -1.1480443e-8, 6.8999939e+1
-0.107, 6.9328041e-9, -1.1470139e-8, 6.9333275e+1
-0.108, 6.9332833e-9, -1.1461831e-8, 6.9666611e+1
-0.109, 6.9993451e-9, -1.1454402e-8, 6.9999947e+1
-0.110, 6.9833690e-9, -1.1447132e-8, 7.0333282e+1
-0.111, 7.0444779e-9, -1.1418056e-8, 7.0666618e+1
-0.112, 7.0438384e-9, -1.1414621e-8, 7.0999954e+1
-0.113, 7.0459159e-9, -1.1422609e-8, 7.1333290e+1
-0.114, 7.0662858e-9, -1.1401200e-8, 7.1666626e+1
-0.115, 7.0674839e-9, -1.1398565e-8, 7.1999962e+1
-0.116, 7.0596555e-9, -1.1383946e-8, 7.2333298e+1
-0.117, 7.1202058e-9, -1.1372763e-8, 7.2666634e+1
-0.118, 7.0843384e-9, -1.1370846e-8, 7.2999969e+1
-0.119, 7.0950428e-9, -1.1351355e-8, 7.3333305e+1
-0.120, 7.2986603e-9, -1.1352234e-8, 7.3666641e+1
-0.121, 7.2144650e-9, -1.1340171e-8, 7.3999977e+1
-0.122, 7.3258200e-9, -1.1332583e-8, 7.4333313e+1
-0.123, 7.2613555e-9, -1.1333781e-8, 7.4666649e+1
-0.124, 7.3736683e-9, -1.1309018e-8, 7.4999985e+1
-0.125, 7.3739082e-9, -1.1308778e-8, 7.5333321e+1
-0.126, 7.3889255e-9, -1.1292003e-8, 7.5666656e+1
-0.127, 7.4990822e-9, -1.1296077e-8, 7.5999992e+1
-0.128, 7.5113036e-9, -1.1281459e-8, 7.6333328e+1
-0.129, 7.4389317e-9, -1.1243675e-8, 7.6666664e+1
-0.130, 7.5424573e-9, -1.1253820e-8, 7.7000000e+1
-0.131, 7.5355882e-9, -1.1236167e-8, 7.7333336e+1
-0.132, 7.5442150e-9, -1.1191353e-8, 7.7666672e+1
-0.133, 7.6144309e-9, -1.1168107e-8, 7.8000008e+1
-0.134, 7.5454132e-9, -1.1180010e-8, 7.8333344e+1
-0.135, 7.5978948e-9, -1.1140788e-8, 7.8666679e+1
-0.136, 7.6662738e-9, -1.1124811e-8, 7.9000015e+1
-0.137, 7.6709865e-9, -1.1083673e-8, 7.9333351e+1
-0.138, 7.6562081e-9, -1.1064023e-8, 7.9666687e+1
-0.139, 7.7479925e-9, -1.1058670e-8, 8.0000023e+1
-0.140, 7.8353022e-9, -1.1051321e-8, 8.0333359e+1
-0.141, 7.8700504e-9, -1.1042374e-8, 8.0666695e+1
-0.142, 7.8719680e-9, -1.1017452e-8, 8.1000031e+1
-0.143, 8.0136768e-9, -1.1006188e-8, 8.1333366e+1
-0.144, 7.9720586e-9, -1.1010422e-8, 8.1666702e+1
-0.145, 7.9771709e-9, -1.0993327e-8, 8.2000038e+1
-0.146, 8.0444318e-9, -1.1001555e-8, 8.2333374e+1
-0.147, 8.0401970e-9, -1.0972478e-8, 8.2666710e+1
-0.148, 8.0616855e-9, -1.0988374e-8, 8.3000046e+1
-0.149, 8.1108125e-9, -1.0966327e-8, 8.3333382e+1
-0.150, 8.0743865e-9, -1.0970002e-8, 8.3666718e+1
-0.151, 8.1845437e-9, -1.0973277e-8, 8.4000053e+1
-0.152, 8.3292084e-9, -1.0965209e-8, 8.4333389e+1
-0.153, 8.2948590e-9, -1.0950751e-8, 8.4666725e+1
-0.154, 8.3413498e-9, -1.0949393e-8, 8.5000061e+1
-0.155, 8.3865626e-9, -1.0952667e-8, 8.5333397e+1
-0.156, 8.4578167e-9, -1.0946118e-8, 8.5666733e+1
-0.157, 8.4840979e-9, -1.0934454e-8, 8.6000069e+1
-0.158, 8.5011127e-9, -1.0943321e-8, 8.6333405e+1
-0.159, 8.5750020e-9, -1.0945398e-8, 8.6666740e+1
-0.160, 8.5637391e-9, -1.0939408e-8, 8.7000076e+1
-0.161, 8.5390566e-9, -1.0938928e-8, 8.7333412e+1
-0.162, 8.7660785e-9, -1.0934535e-8, 8.7666748e+1
-0.163, 8.6642293e-9, -1.0935653e-8, 8.8000084e+1
-0.164, 8.7553742e-9, -1.0929981e-8, 8.8333420e+1
-0.165, 8.9696961e-9, -1.0925588e-8, 8.8666756e+1
-0.166, 8.9241636e-9, -1.0918239e-8, 8.9000092e+1
-0.167, 8.9688168e-9, -1.0933176e-8, 8.9333427e+1
-0.168, 9.0127514e-9, -1.0918797e-8, 8.9666763e+1
-0.169, 9.0320027e-9, -1.0903621e-8, 9.0000099e+1
-0.170, 9.0656336e-9, -1.0910490e-8, 9.0333435e+1
-0.171, 9.0896775e-9, -1.0913126e-8, 9.0666771e+1
-0.172, 9.2759604e-9, -1.0927185e-8, 9.1000107e+1
-0.173, 9.3758121e-9, -1.0925667e-8, 9.1333443e+1
-0.174, 9.4210248e-9, -1.0925108e-8, 9.1666779e+1
-0.175, 9.4964330e-9, -1.0912967e-8, 9.2000114e+1
-0.176, 9.5015453e-9, -1.0933097e-8, 9.2333450e+1
-0.177, 9.5133670e-9, -1.0930700e-8, 9.2666786e+1
-0.178, 9.6823962e-9, -1.0938688e-8, 9.3000122e+1
-0.179, 9.7192210e-9, -1.0948833e-8, 9.3333458e+1
-0.180, 9.8050936e-9, -1.0946517e-8, 9.3666794e+1
-0.181, 9.9696491e-9, -1.0955943e-8, 9.4000130e+1
-0.182, 9.9599031e-9, -1.0962652e-8, 9.4333466e+1
-0.183, 1.0038907e-8, -1.0959697e-8, 9.4666801e+1
-0.184, 1.0217360e-8, -1.0955143e-8, 9.5000137e+1
-0.185, 1.0241325e-8, -1.0977272e-8, 9.5333473e+1
-0.186, 1.0412111e-8, -1.0991410e-8, 9.5666809e+1
-0.187, 1.0445821e-8, -1.0977351e-8, 9.6000145e+1
-0.188, 1.0549188e-8, -1.1003232e-8, 9.6333481e+1
-0.189, 1.0593282e-8, -1.1025519e-8, 9.6666817e+1
-0.190, 1.0738346e-8, -1.1066179e-8, 9.7000153e+1
-0.191, 1.0913286e-8, -1.1081116e-8, 9.7333488e+1
-0.192, 1.0948994e-8, -1.1172740e-8, 9.7666824e+1
-0.193, 1.0996203e-8, -1.1181608e-8, 9.8000160e+1
-0.194, 1.1233690e-8, -1.1199501e-8, 9.8333496e+1
-0.195, 1.1296876e-8, -1.1282737e-8, 9.8666832e+1
-0.196, 1.1427561e-8, -1.1305982e-8, 9.9000168e+1
-0.197, 1.1570788e-8, -1.1339293e-8, 9.9333504e+1
-0.198, 1.1718649e-8, -1.1367970e-8, 9.9666840e+1
-0.199, 1.1893748e-8, -1.1395609e-8, 1.0000018e+2
-0.200, 1.2032342e-8, -1.1434352e-8, 1.0033351e+2
-0.201, 1.2112144e-8, -1.1438745e-8, 1.0066685e+2
-0.202, 1.2394684e-8, -1.1483479e-8, 1.0100018e+2
-0.203, 1.2501165e-8, -1.1568073e-8, 1.0133352e+2
-0.204, 1.2703025e-8, -1.1655462e-8, 1.0166685e+2
-0.205, 1.2650623e-8, -1.1754436e-8, 1.0200019e+2
-0.206, 1.2959204e-8, -1.1830084e-8, 1.0233353e+2
-0.207, 1.3344471e-8, -1.1894068e-8, 1.0266686e+2
-0.208, 1.3435216e-8, -1.1940160e-8, 1.0300020e+2
-0.209, 1.3630207e-8, -1.2042408e-8, 1.0333353e+2
-0.210, 1.3922333e-8, -1.2154481e-8, 1.0366687e+2
-0.211, 1.4155905e-8, -1.2312725e-8, 1.0400021e+2
-0.212, 1.4392273e-8, -1.2380465e-8, 1.0433354e+2
-0.213, 1.4723621e-8, -1.2447006e-8, 1.0466688e+2
-0.214, 1.4901836e-8, -1.2582804e-8, 1.0500021e+2
-0.215, 1.5226075e-8, -1.2775956e-8, 1.0533355e+2
-0.216, 1.5482174e-8, -1.2873651e-8, 1.0566689e+2
-0.217, 1.5806412e-8, -1.2976140e-8, 1.0600022e+2
-0.218, 1.6020572e-8, -1.3216981e-8, 1.0633356e+2
-0.219, 1.6439310e-8, -1.3352380e-8, 1.0666689e+2
-0.220, 1.6821062e-8, -1.3446559e-8, 1.0700023e+2
-0.221, 1.7255298e-8, -1.3677177e-8, 1.0733356e+2
-0.222, 1.7518346e-8, -1.3877040e-8, 1.0766690e+2
-0.223, 1.7951223e-8, -1.4076104e-8, 1.0800024e+2
-0.224, 1.8364450e-8, -1.4353772e-8, 1.0833357e+2
-0.225, 1.8801479e-8, -1.4546764e-8, 1.0866691e+2
-0.226, 1.9306167e-8, -1.4820277e-8, 1.0900024e+2
-0.227, 1.9756300e-8, -1.5086362e-8, 1.0933358e+2
-0.228, 2.0238621e-8, -1.5334633e-8, 1.0966692e+2
-0.229, 2.0778778e-8, -1.5656873e-8, 1.1000025e+2
-0.230, 2.1236179e-8, -1.5884616e-8, 1.1033359e+2
-0.231, 2.1762915e-8, -1.6276752e-8, 1.1066692e+2
-0.232, 2.2352840e-8, -1.6559371e-8, 1.1100026e+2
-0.233, 2.2845626e-8, -1.6849661e-8, 1.1133360e+2
-0.234, 2.3547223e-8, -1.7286212e-8, 1.1166693e+2
-0.235, 2.4106871e-8, -1.7679866e-8, 1.1200027e+2
-0.236, 2.4689045e-8, -1.8059142e-8, 1.1233360e+2
-0.237, 2.5269941e-8, -1.8407105e-8, 1.1266694e+2
-0.238, 2.6032886e-8, -1.8836069e-8, 1.1300027e+2
-0.239, 2.6702532e-8, -1.9274376e-8, 1.1333361e+2
-0.240, 2.7327683e-8, -1.9743837e-8, 1.1366695e+2
-0.241, 2.8072655e-8, -2.0219371e-8, 1.1400028e+2
-0.242, 2.8964690e-8, -2.0708324e-8, 1.1433362e+2
-0.243, 2.9553814e-8, -2.1198076e-8, 1.1466695e+2
-0.244, 3.0211236e-8, -2.1667857e-8, 1.1500029e+2
-0.245, 3.1081619e-8, -2.2197231e-8, 1.1533363e+2
-0.246, 3.1759097e-8, -2.2696248e-8, 1.1566696e+2
-0.247, 3.2467163e-8, -2.3196066e-8, 1.1600030e+2
-0.248, 3.3197598e-8, -2.3743411e-8, 1.1633363e+2
-0.249, 3.3997448e-8, -2.4326784e-8, 1.1666697e+2
-0.250, 3.4663657e-8, -2.4849287e-8, 1.1700031e+2
-0.251, 3.5400721e-8, -2.5403903e-8, 1.1733364e+2
-0.252, 3.6160390e-8, -2.5990310e-8, 1.1766698e+2
-0.253, 3.6868059e-8, -2.6542610e-8, 1.1800031e+2
-0.254, 3.7560788e-8, -2.7067030e-8, 1.1833365e+2
-0.255, 3.8337475e-8, -2.7625639e-8, 1.1866698e+2
-0.256, 3.8973411e-8, -2.8247515e-8, 1.1900032e+2
-0.257, 3.9668375e-8, -2.8904539e-8, 1.1933366e+2
-0.258, 4.0401204e-8, -2.9464827e-8, 1.1966699e+2
-0.259, 4.0989612e-8, -3.0031583e-8, 1.2000033e+2
-0.260, 4.1739376e-8, -3.0533318e-8, 1.2033366e+2
-0.261, 4.2336332e-8, -3.1032894e-8, 1.2066700e+2
-0.262, 4.2856197e-8, -3.1559711e-8, 1.2100034e+2
-0.263, 4.3468166e-8, -3.2079740e-8, 1.2133367e+2
-0.264, 4.4135891e-8, -3.2538654e-8, 1.2166701e+2
-0.265, 4.4650648e-8, -3.3049897e-8, 1.2200034e+2
-0.266, 4.5157496e-8, -3.3550990e-8, 1.2233368e+2
-0.267, 4.5724970e-8, -3.4003598e-8, 1.2266702e+2
-0.268, 4.6190998e-8, -3.4459081e-8, 1.2300035e+2
-0.269, 4.6684423e-8, -3.4934452e-8, 1.2333369e+2
-0.270, 4.7061064e-8, -3.5384424e-8, 1.2366702e+2
-0.271, 4.7645077e-8, -3.5820253e-8, 1.2400036e+2
-0.272, 4.7952380e-8, -3.6218783e-8, 1.2433369e+2
-0.273, 4.8314323e-8, -3.6587917e-8, 1.2466703e+2
-0.274, 4.8775235e-8, -3.6935877e-8, 1.2500037e+2
-0.275, 4.9142290e-8, -3.7363883e-8, 1.2533370e+2
-0.276, 4.9535863e-8, -3.7758337e-8, 1.2566704e+2
-0.277, 4.9889817e-8, -3.8099270e-8, 1.2600037e+2
-0.278, 5.0120516e-8, -3.8365354e-8, 1.2633371e+2
-0.279, 5.0395947e-8, -3.8737760e-8, 1.2666705e+2
-0.280, 5.0650211e-8, -3.8928036e-8, 1.2700038e+2
-0.281, 5.1023012e-8, -3.9314660e-8, 1.2733372e+2
-0.282, 5.1208342e-8, -3.9619970e-8, 1.2766705e+2
-0.283, 5.1555343e-8, -3.9821746e-8, 1.2800038e+2
-0.284, 5.1666380e-8, -4.0136957e-8, 1.2833371e+2
-0.285, 5.2001162e-8, -4.0331791e-8, 1.2866704e+2
-0.286, 5.2122822e-8, -4.0589327e-8, 1.2900037e+2
-0.287, 5.2503054e-8, -4.0805165e-8, 1.2933369e+2
-0.288, 5.2581896e-8, -4.1076600e-8, 1.2966702e+2
-0.289, 5.2713858e-8, -4.1259451e-8, 1.3000035e+2
-0.290, 5.3051437e-8, -4.1439343e-8, 1.3033368e+2
-0.291, 5.3097214e-8, -4.1688093e-8, 1.3066701e+2
-0.292, 5.3261608e-8, -4.1821096e-8, 1.3100034e+2
-0.293, 5.3505879e-8, -4.2034298e-8, 1.3133366e+2
-0.294, 5.3606612e-8, -4.2216588e-8, 1.3166699e+2
-0.295, 5.3676349e-8, -4.2307093e-8, 1.3200032e+2
-0.296, 5.3983655e-8, -4.2500567e-8, 1.3233365e+2
-0.297, 5.4024230e-8, -4.2684611e-8, 1.3266698e+2
-0.298, 5.4100038e-8, -4.2770885e-8, 1.3300031e+2
-0.299, 5.4285046e-8, -4.2864983e-8, 1.3333363e+2
-0.300, 5.4439774e-8, -4.3121481e-8, 1.3366696e+2
-0.301, 5.4515183e-8, -4.3223569e-8, 1.3400029e+2
-0.302, 5.4571736e-8, -4.3304571e-8, 1.3433362e+2
-0.303, 5.4630291e-8, -4.3462414e-8, 1.3466695e+2
-0.304, 5.4919063e-8, -4.3635836e-8, 1.3500027e+2
-0.305, 5.4984003e-8, -4.3719393e-8, 1.3533360e+2
-0.306, 5.5062849e-8, -4.3783619e-8, 1.3566693e+2
-0.307, 5.5106547e-8, -4.3907111e-8, 1.3600026e+2
-0.308, 5.5359209e-8, -4.4099789e-8, 1.3633359e+2
-0.309, 5.5461776e-8, -4.4164491e-8, 1.3666692e+2
-0.310, 5.5501555e-8, -4.4225519e-8, 1.3700024e+2
-0.311, 5.5521525e-8, -4.4277204e-8, 1.3733357e+2
-0.312, 5.5572009e-8, -4.4388319e-8, 1.3766690e+2
-0.313, 5.5645980e-8, -4.4535700e-8, 1.3800023e+2
-0.314, 5.5915184e-8, -4.4623249e-8, 1.3833356e+2
-0.315, 5.5933555e-8, -4.4687393e-8, 1.3866689e+2
-0.316, 5.6004964e-8, -4.4734122e-8, 1.3900021e+2
-0.317, 5.6025815e-8, -4.4784048e-8, 1.3933354e+2
-0.318, 5.6029172e-8, -4.4862496e-8, 1.3966687e+2
-0.319, 5.6246527e-8, -4.5036792e-8, 1.4000020e+2
-0.320, 5.6313308e-8, -4.5112600e-8, 1.4033353e+2
-0.321, 5.6415320e-8, -4.5147353e-8, 1.4066685e+2
-0.322, 5.6496877e-8, -4.5204306e-8, 1.4100018e+2
-0.323, 5.6496557e-8, -4.5253273e-8, 1.4133351e+2
-0.324, 5.6531626e-8, -4.5311587e-8, 1.4166684e+2
-0.325, 5.6719507e-8, -4.5451458e-8, 1.4200017e+2
-0.326, 5.6760644e-8, -4.5546916e-8, 1.4233350e+2
-0.327, 5.6853146e-8, -4.5622802e-8, 1.4266682e+2
-0.328, 5.6962424e-8, -4.5653078e-8, 1.4300015e+2
-0.329, 5.6984312e-8, -4.5710831e-8, 1.4333348e+2
-0.330, 5.7012510e-8, -4.5734158e-8, 1.4366681e+2
-0.331, 5.7056607e-8, -4.5767948e-8, 1.4400014e+2
-0.332, 5.7128180e-8, -4.5820908e-8, 1.4433347e+2
-0.333, 5.7308473e-8, -4.5912930e-8, 1.4466679e+2
-0.334, 5.7203909e-8, -4.6044015e-8, 1.4500012e+2
-0.335, 5.7416631e-8, -4.6090346e-8, 1.4533345e+2
-0.336, 5.7442911e-8, -4.6126456e-8, 1.4566678e+2
-0.337, 5.7446265e-8, -4.6166793e-8, 1.4600011e+2
-0.338, 5.7535011e-8, -4.6191399e-8, 1.4633344e+2
-0.339, 5.7499385e-8, -4.6219274e-8, 1.4666676e+2
-0.340, 5.7550992e-8, -4.6259935e-8, 1.4700009e+2
-0.341, 5.7758761e-8, -4.6310660e-8, 1.4733342e+2
-0.342, 5.7673049e-8, -4.6366498e-8, 1.4766675e+2
-0.343, 5.7698291e-8, -4.6479531e-8, 1.4800008e+2
-0.344, 5.7890166e-8, -4.6537362e-8, 1.4833340e+2
-0.345, 5.7855654e-8, -4.6576108e-8, 1.4866673e+2
-0.346, 5.7930905e-8, -4.6596874e-8, 1.4900006e+2
-0.347, 5.7958221e-8, -4.6635776e-8, 1.4933339e+2
-0.348, 5.7960619e-8, -4.6662137e-8, 1.4966672e+2
-0.349, 5.7969409e-8, -4.6685145e-8, 1.5000005e+2
-0.350, 5.7991137e-8, -4.6694570e-8, 1.5033337e+2
-0.351, 5.8048411e-8, -4.6713023e-8, 1.5066670e+2
-0.352, 5.8151453e-8, -4.6737465e-8, 1.5100003e+2
-0.353, 5.8107766e-8, -4.6782038e-8, 1.5133336e+2
-0.354, 5.8317447e-8, -4.6848900e-8, 1.5166669e+2
-0.355, 5.8280783e-8, -4.6928939e-8, 1.5200002e+2
-0.356, 5.8311141e-8, -4.6953225e-8, 1.5233334e+2
-0.357, 5.8424007e-8, -4.7018727e-8, 1.5266667e+2
-0.358, 5.8387183e-8, -4.7022162e-8, 1.5300000e+2
-0.359, 5.8408112e-8, -4.7053476e-8, 1.5333333e+2
-0.360, 5.8460838e-8, -4.7098929e-8, 1.5366666e+2
-0.361, 5.8450212e-8, -4.7111389e-8, 1.5399998e+2
-0.362, 5.8472818e-8, -4.7125368e-8, 1.5433331e+2
-0.363, 5.8483042e-8, -4.7147338e-8, 1.5466664e+2
-0.364, 5.8553102e-8, -4.7161794e-8, 1.5499997e+2
-0.365, 5.8597834e-8, -4.7174257e-8, 1.5533330e+2
-0.366, 5.8589446e-8, -4.7190156e-8, 1.5566663e+2
-0.367, 5.8721330e-8, -4.7197343e-8, 1.5599995e+2
-0.368, 5.8784991e-8, -4.7216595e-8, 1.5633328e+2
-0.369, 5.8673876e-8, -4.7249987e-8, 1.5666661e+2
-0.370, 5.8932692e-8, -4.7253899e-8, 1.5699994e+2
-0.371, 5.8853853e-8, -4.7293998e-8, 1.5733327e+2
-0.372, 5.8902902e-8, -4.7339853e-8, 1.5766660e+2
-0.373, 5.8937168e-8, -4.7357823e-8, 1.5799992e+2
-0.374, 5.8952743e-8, -4.7437624e-8, 1.5833325e+2
-0.375, 5.8948750e-8, -4.7448729e-8, 1.5866658e+2
-0.376, 5.8997475e-8, -4.7515588e-8, 1.5899991e+2
-0.377, 5.9006666e-8, -4.7532122e-8, 1.5933324e+2
-0.378, 5.9000516e-8, -4.7540990e-8, 1.5966656e+2
-0.379, 5.9161717e-8, -4.7551534e-8, 1.5999989e+2
-0.380, 5.9119298e-8, -4.7578055e-8, 1.6033322e+2
-0.381, 5.9208684e-8, -4.7595069e-8, 1.6066655e+2
-0.382, 5.9266835e-8, -4.7591076e-8, 1.6099988e+2
-0.383, 5.9326112e-8, -4.7617757e-8, 1.6133321e+2
-0.384, 5.9355187e-8, -4.7635410e-8, 1.6166653e+2
-0.385, 5.9324670e-8, -4.7632934e-8, 1.6199986e+2
-0.386, 5.9408869e-8, -4.7652826e-8, 1.6233319e+2
-0.387, 5.9409267e-8, -4.7673193e-8, 1.6266652e+2
-0.388, 5.9426203e-8, -4.7682061e-8, 1.6299985e+2
-0.389, 5.9461748e-8, -4.7682700e-8, 1.6333318e+2
-0.390, 5.9482037e-8, -4.7702191e-8, 1.6366650e+2
-0.391, 5.9448649e-8, -4.7700834e-8, 1.6399983e+2
-0.392, 5.9692525e-8, -4.7733106e-8, 1.6433316e+2
-0.393, 5.9597625e-8, -4.7746685e-8, 1.6466649e+2
-0.394, 5.9631816e-8, -4.7802523e-8, 1.6499982e+2
-0.395, 5.9707624e-8, -4.7849333e-8, 1.6533315e+2
-0.396, 5.9791574e-8, -4.7837112e-8, 1.6566647e+2
-0.397, 5.9847252e-8, -4.7932886e-8, 1.6599980e+2
-0.398, 5.9867943e-8, -4.7955016e-8, 1.6633313e+2
-0.399, 5.9880243e-8, -4.8004384e-8, 1.6666646e+2
-0.400, 5.9929370e-8, -4.8046161e-8, 1.6699979e+2
-0.401, 5.9903414e-8, -4.8041368e-8, 1.6733311e+2
-0.402, 6.0012930e-8, -4.8053909e-8, 1.6766644e+2
-0.403, 6.0007260e-8, -4.8076515e-8, 1.6799977e+2
-0.404, 5.9996637e-8, -4.8103278e-8, 1.6833310e+2
-0.405, 6.0228054e-8, -4.8085859e-8, 1.6866643e+2
-0.406, 6.0137140e-8, -4.8128840e-8, 1.6899976e+2
-0.407, 6.0304657e-8, -4.8144734e-8, 1.6933308e+2
-0.408, 6.0328297e-8, -4.8146333e-8, 1.6966641e+2
-0.409, 6.0350345e-8, -4.8155037e-8, 1.6999974e+2
-0.410, 6.0414571e-8, -4.8166541e-8, 1.7033307e+2
-0.411, 6.0412894e-8, -4.8189786e-8, 1.7066640e+2
-0.412, 6.0437820e-8, -4.8201450e-8, 1.7099973e+2
-0.413, 6.0470647e-8, -4.8223338e-8, 1.7133305e+2
-0.414, 6.0452436e-8, -4.8221978e-8, 1.7166638e+2
-0.415, 6.0553084e-8, -4.8278853e-8, 1.7199971e+2
-0.416, 6.0636324e-8, -4.8316398e-8, 1.7233304e+2
-0.417, 6.0688961e-8, -4.8357776e-8, 1.7266637e+2
-0.418, 6.0807274e-8, -4.8364566e-8, 1.7299969e+2
-0.419, 6.0782426e-8, -4.8418805e-8, 1.7333302e+2
-0.420, 6.0834751e-8, -4.8463058e-8, 1.7366635e+2
-0.421, 6.0898252e-8, -4.8475123e-8, 1.7399968e+2
-0.422, 6.0896973e-8, -4.8516419e-8, 1.7433301e+2
-0.423, 6.0922382e-8, -4.8531678e-8, 1.7466634e+2
-0.424, 6.0982210e-8, -4.8550771e-8, 1.7499966e+2
-0.425, 6.0970471e-8, -4.8564669e-8, 1.7533299e+2
-0.426, 6.1075831e-8, -4.8576492e-8, 1.7566632e+2
-0.427, 6.1182632e-8, -4.8574655e-8, 1.7599965e+2
-0.428, 6.1245892e-8, -4.8612996e-8, 1.7633298e+2
-0.429, 6.1341112e-8, -4.8630490e-8, 1.7666631e+2
-0.430, 6.1374024e-8, -4.8623303e-8, 1.7699963e+2
-0.431, 6.1395276e-8, -4.8641915e-8, 1.7733296e+2
-0.432, 6.1409416e-8, -4.8656933e-8, 1.7766629e+2
-0.433, 6.1443203e-8, -4.8660368e-8, 1.7799962e+2
-0.434, 6.1509105e-8, -4.8673627e-8, 1.7833295e+2
-0.435, 6.1540419e-8, -4.8689603e-8, 1.7866628e+2
-0.436, 6.1589944e-8, -4.8699032e-8, 1.7899960e+2
-0.437, 6.1729821e-8, -4.8727308e-8, 1.7933293e+2
-0.438, 6.1766080e-8, -4.8749836e-8, 1.7966626e+2
-0.439, 6.1830228e-8, -4.8836984e-8, 1.7999959e+2
-0.440, 6.1860426e-8, -4.8815178e-8, 1.8033292e+2
-0.441, 6.1879433e-8, -4.8865981e-8, 1.8066624e+2
-0.442, 6.1926002e-8, -4.8929405e-8, 1.8099957e+2
-0.443, 6.1974333e-8, -4.8945545e-8, 1.8133290e+2
-0.444, 6.2091843e-8, -4.8992192e-8, 1.8166623e+2
-0.445, 6.2180746e-8, -4.9013604e-8, 1.8199956e+2
-0.446, 6.2152068e-8, -4.9023026e-8, 1.8233289e+2
-0.447, 6.2295776e-8, -4.9049948e-8, 1.8266621e+2
-0.448, 6.2344583e-8, -4.9046673e-8, 1.8299954e+2
-0.449, 6.2368464e-8, -4.9064564e-8, 1.8333287e+2
-0.450, 6.2439561e-8, -4.9083020e-8, 1.8366620e+2
-0.451, 6.2404972e-8, -4.9110096e-8, 1.8399953e+2
-0.452, 6.2456657e-8, -4.9108660e-8, 1.8433286e+2
-0.453, 6.2720261e-8, -4.9129987e-8, 1.8466618e+2
-0.454, 6.2701098e-8, -4.9144209e-8, 1.8499951e+2
-0.455, 6.2799025e-8, -4.9173682e-8, 1.8533284e+2
-0.456, 6.2851591e-8, -4.9172247e-8, 1.8566617e+2
-0.457, 6.2861254e-8, -4.9194615e-8, 1.8599950e+2
-0.458, 6.2883061e-8, -4.9218734e-8, 1.8633282e+2
-0.459, 6.2927555e-8, -4.9225207e-8, 1.8666615e+2
-0.460, 6.3037149e-8, -4.9274416e-8, 1.8699948e+2
-0.461, 6.3159291e-8, -4.9347985e-8, 1.8733281e+2
-0.462, 6.3245324e-8, -4.9363482e-8, 1.8766614e+2
-0.463, 6.3313387e-8, -4.9427708e-8, 1.8799947e+2
-0.464, 6.3345730e-8, -4.9433140e-8, 1.8833279e+2
-0.465, 6.3370173e-8, -4.9494407e-8, 1.8866612e+2
-0.466, 6.3498305e-8, -4.9506230e-8, 1.8899945e+2
-0.467, 6.3516438e-8, -4.9547609e-8, 1.8933278e+2
-0.468, 6.3638417e-8, -4.9541935e-8, 1.8966611e+2
-0.469, 6.3822469e-8, -4.9582358e-8, 1.8999944e+2
-0.470, 6.3804336e-8, -4.9581640e-8, 1.9033276e+2
-0.471, 6.3858415e-8, -4.9609753e-8, 1.9066609e+2
-0.472, 6.3882617e-8, -4.9627808e-8, 1.9099942e+2
-0.473, 6.3977275e-8, -4.9637954e-8, 1.9133275e+2
-0.474, 6.4112029e-8, -4.9652172e-8, 1.9166608e+2
-0.475, 6.4187205e-8, -4.9675815e-8, 1.9199940e+2
-0.476, 6.4320048e-8, -4.9718473e-8, 1.9233273e+2
-0.477, 6.4344967e-8, -4.9745555e-8, 1.9266606e+2
-0.478, 6.4385546e-8, -4.9805944e-8, 1.9299939e+2
-0.479, 6.4506409e-8, -4.9820962e-8, 1.9333272e+2
-0.480, 6.4626953e-8, -4.9939505e-8, 1.9366605e+2
-0.481, 6.4683341e-8, -4.9962832e-8, 1.9399937e+2
-0.482, 6.4823695e-8, -4.9995503e-8, 1.9433270e+2
-0.483, 6.4839192e-8, -5.0013554e-8, 1.9466603e+2
-0.484, 6.4902942e-8, -5.0030089e-8, 1.9499936e+2
-0.485, 6.5115422e-8, -5.0052936e-8, 1.9533269e+2
-0.486, 6.5206969e-8, -5.0084491e-8, 1.9566602e+2
-0.487, 6.5302984e-8, -5.0097508e-8, 1.9599934e+2
-0.488, 6.5339648e-8, -5.0112849e-8, 1.9633267e+2
-0.489, 6.5379751e-8, -5.0139292e-8, 1.9666600e+2
-0.490, 6.5531843e-8, -5.0148792e-8, 1.9699933e+2
-0.491, 6.5634090e-8, -5.0188017e-8, 1.9733266e+2
-0.492, 6.5750640e-8, -5.0214375e-8, 1.9766599e+2
-0.493, 6.5807754e-8, -5.0303527e-8, 1.9799931e+2
-0.494, 6.5823166e-8, -5.0356324e-8, 1.9833264e+2
-0.495, 6.6044123e-8, -5.0432213e-8, 1.9866597e+2
-0.496, 6.6115859e-8, -5.0479979e-8, 1.9899930e+2
-0.497, 6.6216828e-8, -5.0487412e-8, 1.9933263e+2
-0.498, 6.6310761e-8, -5.0521841e-8, 1.9966595e+2
-0.499, 6.6351824e-8, -5.0546920e-8, 1.9999928e+2
