Dec. 21, 2005   03:23:17
Cyclic Voltammetry
File: d:\ida_biofilms\12_10_18_dphzstar\a_760b\50um_pyo\a_50um_pyo_gc_final.txt
Data Source:  Experiment
Instrument Model:  CHI760E
Header: 
Note: 

Init E (V) = 0.1
High E (V) = 0.1
Low E (V) = -0.5
Init P/N = N
Scan Rate (V/s) = 0.003
Segment = 2
Sample Interval (V) = 0.001
Quiet Time (sec) = 2
Sensitivity (A/V) = 1e-7
2nd E (V) = 0.1
Sens 2 (A/V) = 1e-7

Potential/V, i1/A, i2/A, Time/s

0.100, -9.7859399e-8, -7.6872503e-8, 3.3333334e-1
0.099, -8.0405911e-8, -6.9292255e-8, 6.6666669e-1
0.098, -6.9327818e-8, -6.3261936e-8, 1.0000000e+0
0.097, -6.1165792e-8, -5.8447498e-8, 1.3333334e+0
0.096, -5.4581182e-8, -5.4253810e-8, 1.6666667e+0
0.095, -4.9428444e-8, -5.0783289e-8, 2.0000000e+0
0.094, -4.4774321e-8, -4.7705068e-8, 2.3333333e+0
0.093, -4.1082849e-8, -4.5055007e-8, 2.6666665e+0
0.092, -3.7755797e-8, -4.2599698e-8, 2.9999998e+0
0.091, -3.4733571e-8, -4.0490754e-8, 3.3333330e+0
0.090, -3.2133755e-8, -3.8503945e-8, 3.6666663e+0
0.089, -2.9874077e-8, -3.6715885e-8, 3.9999995e+0
0.088, -2.7776313e-8, -3.5088465e-8, 4.3333330e+0
0.087, -2.5959414e-8, -3.3571521e-8, 4.6666665e+0
0.086, -2.4218323e-8, -3.2192371e-8, 5.0000000e+0
0.085, -2.2653451e-8, -3.0922898e-8, 5.3333335e+0
0.084, -2.1181798e-8, -2.9732108e-8, 5.6666670e+0
0.083, -1.9879174e-8, -2.8664255e-8, 6.0000005e+0
0.082, -1.8672967e-8, -2.7483690e-8, 6.3333340e+0
0.081, -1.7434569e-8, -2.6570088e-8, 6.6666675e+0
0.080, -1.6443243e-8, -2.5696508e-8, 7.0000010e+0
0.079, -1.5534752e-8, -2.4887550e-8, 7.3333344e+0
0.078, -1.4430794e-8, -2.4116696e-8, 7.6666679e+0
0.077, -1.3635977e-8, -2.3416298e-8, 8.0000010e+0
0.076, -1.2852182e-8, -2.2753923e-8, 8.3333340e+0
0.075, -1.1976763e-8, -2.2166716e-8, 8.6666670e+0
0.074, -1.1266139e-8, -2.1561135e-8, 9.0000000e+0
0.073, -1.0579959e-8, -2.1032402e-8, 9.3333330e+0
0.072, -9.9510542e-9, -2.0473632e-8, 9.6666660e+0
0.071, -9.3421200e-9, -2.0005928e-8, 9.9999990e+0
0.070, -8.6876524e-9, -1.9549168e-8, 1.0333332e+1
0.069, -8.1689038e-9, -1.9109102e-8, 1.0666665e+1
0.068, -7.6352977e-9, -1.8673669e-8, 1.0999998e+1
0.067, -7.1587256e-9, -1.8277857e-8, 1.1333331e+1
0.066, -6.6933379e-9, -1.7825890e-8, 1.1666664e+1
0.065, -6.1628467e-9, -1.7516989e-8, 1.1999997e+1
0.064, -5.7072840e-9, -1.7190434e-8, 1.2333330e+1
0.063, -5.3534097e-9, -1.6805007e-8, 1.2666663e+1
0.062, -4.8268327e-9, -1.6477735e-8, 1.2999996e+1
0.061, -4.6345585e-9, -1.6250951e-8, 1.3333329e+1
0.060, -4.2066346e-9, -1.5895159e-8, 1.3666662e+1
0.059, -3.7180015e-9, -1.5676205e-8, 1.3999995e+1
0.058, -3.5484136e-9, -1.5343181e-8, 1.4333328e+1
0.057, -3.1331908e-9, -1.5149309e-8, 1.4666661e+1
0.056, -2.8029616e-9, -1.4833938e-8, 1.4999994e+1
0.055, -2.5738622e-9, -1.4667945e-8, 1.5333327e+1
0.054, -2.2533788e-9, -1.4376457e-8, 1.5666660e+1
0.053, -1.9005433e-9, -1.4200879e-8, 1.5999993e+1
0.052, -1.7154584e-9, -1.3938788e-8, 1.6333326e+1
0.051, -1.3673360e-9, -1.3802111e-8, 1.6666660e+1
0.050, -1.1569289e-9, -1.3568219e-8, 1.6999994e+1
0.049, -7.9051360e-10, -1.3369714e-8, 1.7333328e+1
0.048, -6.9393719e-10, -1.3264669e-8, 1.7666662e+1
0.047, -4.2146231e-10, -1.2971745e-8, 1.7999996e+1
0.046, -2.6233885e-10, -1.2861590e-8, 1.8333330e+1
0.045, 9.0256934e-11, -1.2747758e-8, 1.8666664e+1
0.044, 1.9034813e-10, -1.2522893e-8, 1.8999998e+1
0.043, 5.1426657e-10, -1.2374873e-8, 1.9333332e+1
0.042, 5.9782235e-10, -1.2256089e-8, 1.9666666e+1
0.041, 7.1588679e-10, -1.2017325e-8, 2.0000000e+1
0.040, 1.0053764e-9, -1.1891751e-8, 2.0333334e+1
0.039, 1.1112989e-9, -1.1807557e-8, 2.0666668e+1
0.038, 1.2567627e-9, -1.1585727e-8, 2.1000002e+1
0.037, 1.4571049e-9, -1.1451446e-8, 2.1333336e+1
0.036, 1.6390743e-9, -1.1359183e-8, 2.1666670e+1
0.035, 1.6969882e-9, -1.1287130e-8, 2.2000004e+1
0.034, 1.8286326e-9, -1.1072729e-8, 2.2333338e+1
0.033, 2.1133293e-9, -1.0968644e-8, 2.2666672e+1
0.032, 2.1707638e-9, -1.0892517e-8, 2.3000006e+1
0.031, 2.2289175e-9, -1.0845228e-8, 2.3333340e+1
0.030, 2.6073945e-9, -1.0746654e-8, 2.3666674e+1
0.029, 2.6217732e-9, -1.0545193e-8, 2.4000008e+1
0.028, 2.6842404e-9, -1.0460040e-8, 2.4333342e+1
0.027, 2.9079079e-9, -1.0394218e-8, 2.4666676e+1
0.026, 2.9690170e-9, -1.0309943e-8, 2.5000010e+1
0.025, 3.0989837e-9, -1.0237411e-8, 2.5333344e+1
0.024, 3.1489098e-9, -1.0044817e-8, 2.5666677e+1
0.023, 3.2936545e-9, -9.9738831e-9, 2.6000011e+1
0.022, 3.4348044e-9, -9.9072626e-9, 2.6333345e+1
0.021, 3.5573424e-9, -9.8475903e-9, 2.6666679e+1
0.020, 3.6258005e-9, -9.7638750e-9, 2.7000013e+1
0.019, 3.6841936e-9, -9.6751265e-9, 2.7333347e+1
0.018, 3.7165455e-9, -9.5261488e-9, 2.7666681e+1
0.017, 3.9497992e-9, -9.4578496e-9, 2.8000015e+1
0.016, 4.0391859e-9, -9.4397974e-9, 2.8333349e+1
0.015, 4.0957420e-9, -9.3723767e-9, 2.8666683e+1
0.014, 4.1973509e-9, -9.2756407e-9, 2.9000017e+1
0.013, 4.2093329e-9, -9.1813810e-9, 2.9333351e+1
0.012, 4.3563944e-9, -9.0689083e-9, 2.9666685e+1
0.011, 4.5801416e-9, -9.0073202e-9, 3.0000019e+1
0.010, 4.5641655e-9, -8.9618677e-9, 3.0333353e+1
0.009, 4.6069020e-9, -8.9257615e-9, 3.0666687e+1
0.008, 4.7675432e-9, -8.8933287e-9, 3.1000021e+1
0.007, 4.7691411e-9, -8.8348564e-9, 3.1333355e+1
0.006, 4.9242703e-9, -8.8392493e-9, 3.1666689e+1
0.005, 5.0531188e-9, -8.7562535e-9, 3.2000023e+1
0.004, 5.0877871e-9, -8.5797955e-9, 3.2333355e+1
0.003, 5.0842721e-9, -8.5113374e-9, 3.2666687e+1
0.002, 5.1488160e-9, -8.4936040e-9, 3.3000019e+1
0.001, 5.3449249e-9, -8.4467127e-9, 3.3333351e+1
-0.000, 5.2647242e-9, -8.4202725e-9, 3.3666683e+1
-0.001, 5.4554801e-9, -8.4203524e-9, 3.4000015e+1
-0.002, 5.5844089e-9, -8.3407103e-9, 3.4333347e+1
-0.003, 5.5815330e-9, -8.2738500e-9, 3.4666679e+1
-0.004, 5.6029408e-9, -8.1831057e-9, 3.5000011e+1
-0.005, 5.8096736e-9, -8.1138474e-9, 3.5333344e+1
-0.006, 5.7470468e-9, -8.0704723e-9, 3.5666676e+1
-0.007, 5.9682379e-9, -8.0220648e-9, 3.6000008e+1
-0.008, 5.9636847e-9, -8.0063280e-9, 3.6333340e+1
-0.009, 6.0167262e-9, -7.9750144e-9, 3.6666672e+1
-0.010, 6.0554686e-9, -7.9210949e-9, 3.7000004e+1
-0.011, 6.0914149e-9, -7.8978495e-9, 3.7333336e+1
-0.012, 6.1260033e-9, -7.8616624e-9, 3.7666668e+1
-0.013, 6.1725745e-9, -7.8207636e-9, 3.8000000e+1
-0.014, 6.3031802e-9, -7.7238678e-9, 3.8333332e+1
-0.015, 6.4812355e-9, -7.6533322e-9, 3.8666664e+1
-0.016, 6.5249304e-9, -7.6533322e-9, 3.8999996e+1
-0.017, 6.5069572e-9, -7.5880697e-9, 3.9333328e+1
-0.018, 6.6243828e-9, -7.5628277e-9, 3.9666660e+1
-0.019, 6.6336492e-9, -7.5521234e-9, 3.9999992e+1
-0.020, 6.6460304e-9, -7.5082687e-9, 4.0333324e+1
-0.021, 6.7408497e-9, -7.4705646e-9, 4.0666656e+1
-0.022, 6.7736807e-9, -7.4639344e-9, 4.0999989e+1
-0.023, 6.8517245e-9, -7.4253514e-9, 4.1333321e+1
-0.024, 6.9643571e-9, -7.4191213e-9, 4.1666653e+1
-0.025, 6.9427095e-9, -7.3859701e-9, 4.1999985e+1
-0.026, 7.0202737e-9, -7.3863693e-9, 4.2333317e+1
-0.027, 7.0202737e-9, -7.3549762e-9, 4.2666649e+1
-0.028, 7.0491910e-9, -7.3174320e-9, 4.2999981e+1
-0.029, 7.0891315e-9, -7.2297222e-9, 4.3333313e+1
-0.030, 7.1203652e-9, -7.1707702e-9, 4.3666645e+1
-0.031, 7.1424129e-9, -7.1347439e-9, 4.3999977e+1
-0.032, 7.2071158e-9, -7.0634099e-9, 4.4333309e+1
-0.033, 7.2452195e-9, -7.0665247e-9, 4.4666641e+1
-0.034, 7.4343784e-9, -7.0529453e-9, 4.4999973e+1
-0.035, 7.4300646e-9, -7.0213124e-9, 4.5333305e+1
-0.036, 7.4888575e-9, -7.0214718e-9, 4.5666637e+1
-0.037, 7.5278397e-9, -6.9854456e-9, 4.5999969e+1
-0.038, 7.4330204e-9, -6.9570878e-9, 4.6333302e+1
-0.039, 7.5003603e-9, -6.9453456e-9, 4.6666634e+1
-0.040, 7.5633864e-9, -6.9395938e-9, 4.6999966e+1
-0.041, 7.5532416e-9, -6.9198633e-9, 4.7333298e+1
-0.042, 7.5458919e-9, -6.9070025e-9, 4.7666630e+1
-0.043, 7.6091577e-9, -6.8683401e-9, 4.7999962e+1
-0.044, 7.6579658e-9, -6.8727330e-9, 4.8333294e+1
-0.045, 7.6802529e-9, -6.8279999e-9, 4.8666626e+1
-0.046, 7.6152293e-9, -6.7680093e-9, 4.8999958e+1
-0.047, 7.7650073e-9, -6.7247936e-9, 4.9333290e+1
-0.048, 7.8492013e-9, -6.6998704e-9, 4.9666622e+1
-0.049, 7.7959212e-9, -6.6580923e-9, 4.9999954e+1
-0.050, 8.0146361e-9, -6.6095249e-9, 5.0333286e+1
-0.051, 7.8007938e-9, -6.6029742e-9, 5.0666618e+1
-0.052, 7.8809146e-9, -6.5877170e-9, 5.0999950e+1
-0.053, 8.0322895e-9, -6.5584005e-9, 5.1333282e+1
-0.054, 7.9402662e-9, -6.5503332e-9, 5.1666615e+1
-0.055, 8.0152747e-9, -6.5377117e-9, 5.1999947e+1
-0.056, 8.0317308e-9, -6.5461787e-9, 5.2333279e+1
-0.057, 8.0044904e-9, -6.4693331e-9, 5.2666611e+1
-0.058, 8.0191889e-9, -6.5059984e-9, 5.2999943e+1
-0.059, 8.0532985e-9, -6.4722085e-9, 5.3333275e+1
-0.060, 8.0360438e-9, -6.4690138e-9, 5.3666607e+1
-0.061, 8.0481062e-9, -6.4638215e-9, 5.3999939e+1
-0.062, 8.1154461e-9, -6.4591879e-9, 5.4333271e+1
-0.063, 8.1148865e-9, -6.4273955e-9, 5.4666603e+1
-0.064, 8.1716820e-9, -6.4136558e-9, 5.4999935e+1
-0.065, 8.0767837e-9, -6.4008749e-9, 5.5333267e+1
-0.066, 8.2704954e-9, -6.3688428e-9, 5.5666599e+1
-0.067, 8.1575431e-9, -6.3808248e-9, 5.5999931e+1
-0.068, 8.1620168e-9, -6.3070140e-9, 5.6333263e+1
-0.069, 8.3558085e-9, -6.2815326e-9, 5.6666595e+1
-0.070, 8.2155367e-9, -6.2252159e-9, 5.6999928e+1
-0.071, 8.3803320e-9, -6.1663434e-9, 5.7333260e+1
-0.072, 8.2867908e-9, -6.1471721e-9, 5.7666592e+1
-0.073, 8.2842355e-9, -6.1441368e-9, 5.7999924e+1
-0.074, 8.3153084e-9, -6.1258434e-9, 5.8333256e+1
-0.075, 8.3423091e-9, -6.0981247e-9, 5.8666588e+1
-0.076, 8.4294589e-9, -6.0684093e-9, 5.8999920e+1
-0.077, 8.4609324e-9, -6.0825482e-9, 5.9333252e+1
-0.078, 8.3177056e-9, -6.0415690e-9, 5.9666584e+1
-0.079, 8.4114058e-9, -6.0497967e-9, 5.9999916e+1
-0.080, 8.4086098e-9, -6.0679297e-9, 6.0333248e+1
-0.081, 8.3152285e-9, -6.0400511e-9, 6.0666580e+1
-0.082, 8.5029495e-9, -6.0426077e-9, 6.0999912e+1
-0.083, 8.4776275e-9, -6.0228769e-9, 6.1333244e+1
-0.084, 8.4856948e-9, -5.9979541e-9, 6.1666576e+1
-0.085, 8.5211624e-9, -6.0060219e-9, 6.1999908e+1
-0.086, 8.5000735e-9, -6.0080989e-9, 6.2333241e+1
-0.087, 8.4917664e-9, -5.9762262e-9, 6.2666573e+1
-0.088, 8.5321856e-9, -5.9890075e-9, 6.2999905e+1
-0.089, 8.4791454e-9, -5.9622471e-9, 6.3333237e+1
-0.090, 8.5020710e-9, -5.9416378e-9, 6.3666569e+1
-0.091, 8.5218010e-9, -5.9393210e-9, 6.3999901e+1
-0.092, 8.5333038e-9, -5.9385221e-9, 6.4333237e+1
-0.093, 8.5535143e-9, -5.9219070e-9, 6.4666573e+1
-0.094, 8.5100593e-9, -5.9113625e-9, 6.4999908e+1
-0.095, 8.5619813e-9, -5.8937086e-9, 6.5333244e+1
-0.096, 8.5523162e-9, -5.9086465e-9, 6.5666580e+1
-0.097, 8.5274738e-9, -5.8288454e-9, 6.5999916e+1
-0.098, 8.6261265e-9, -5.8138276e-9, 6.6333252e+1
-0.099, 8.5631804e-9, -5.8735790e-9, 6.6666588e+1
-0.100, 8.6405851e-9, -5.7958545e-9, 6.6999924e+1
-0.101, 8.6155829e-9, -5.7861085e-9, 6.7333260e+1
-0.102, 8.6198160e-9, -5.7610263e-9, 6.7666595e+1
-0.103, 8.7249399e-9, -5.7337068e-9, 6.7999931e+1
-0.104, 8.6242897e-9, -5.7564731e-9, 6.8333267e+1
-0.105, 8.6843599e-9, -5.6981593e-9, 6.8666603e+1
-0.106, 8.6501712e-9, -5.7302718e-9, 6.8999939e+1
-0.107, 8.7564924e-9, -5.6355329e-9, 6.9333275e+1
-0.108, 8.7062473e-9, -5.6060565e-9, 6.9666611e+1
-0.109, 8.7302920e-9, -5.6069354e-9, 6.9999947e+1
-0.110, 8.7259782e-9, -5.6219531e-9, 7.0333282e+1
-0.111, 8.8229539e-9, -5.5828910e-9, 7.0666618e+1
-0.112, 8.7432328e-9, -5.5898406e-9, 7.0999954e+1
-0.113, 8.7487448e-9, -5.5949529e-9, 7.1333290e+1
-0.114, 8.8920515e-9, -5.5753819e-9, 7.1666626e+1
-0.115, 8.8124894e-9, -5.5698703e-9, 7.1999962e+1
-0.116, 8.8338172e-9, -5.5656368e-9, 7.2333298e+1
-0.117, 8.9439744e-9, -5.5723466e-9, 7.2666634e+1
-0.118, 8.8517105e-9, -5.5736247e-9, 7.2999969e+1
-0.119, 8.8651317e-9, -5.5554916e-9, 7.3333305e+1
-0.120, 8.9787227e-9, -5.5575686e-9, 7.3666641e+1
-0.121, 8.8835037e-9, -5.5611635e-9, 7.3999977e+1
-0.122, 8.9932604e-9, -5.5422316e-9, 7.4333313e+1
-0.123, 8.9630658e-9, -5.5522964e-9, 7.4666649e+1
-0.124, 8.9791214e-9, -5.5446279e-9, 7.4999985e+1
-0.125, 8.9781631e-9, -5.5411928e-9, 7.5333321e+1
-0.126, 8.9593115e-9, -5.5292904e-9, 7.5666656e+1
-0.127, 9.0236156e-9, -5.5216218e-9, 7.5999992e+1
-0.128, 9.0050039e-9, -5.5070037e-9, 7.6333328e+1
-0.129, 8.9998906e-9, -5.4871934e-9, 7.6666664e+1
-0.130, 9.0367962e-9, -5.4905480e-9, 7.7000000e+1
-0.131, 9.0146690e-9, -5.4980571e-9, 7.7333336e+1
-0.132, 9.0118730e-9, -5.4856755e-9, 7.7666672e+1
-0.133, 9.0991037e-9, -5.4982969e-9, 7.8000008e+1
-0.134, 9.0536503e-9, -5.5050866e-9, 7.8333344e+1
-0.135, 9.0913552e-9, -5.4923053e-9, 7.8666679e+1
-0.136, 9.1114050e-9, -5.4696994e-9, 7.9000015e+1
-0.137, 9.0901571e-9, -5.4676224e-9, 7.9333351e+1
-0.138, 9.1040562e-9, -5.4302380e-9, 7.9666687e+1
-0.139, 9.1813810e-9, -5.4249658e-9, 8.0000023e+1
-0.140, 9.1288994e-9, -5.4510068e-9, 8.0333359e+1
-0.141, 9.1761088e-9, -5.4255249e-9, 8.0666695e+1
-0.142, 9.1483896e-9, -5.4085101e-9, 8.1000031e+1
-0.143, 9.2774783e-9, -5.4271228e-9, 8.1333366e+1
-0.144, 9.2209218e-9, -5.4261640e-9, 8.1666702e+1
-0.145, 9.2280317e-9, -5.4010010e-9, 8.2000038e+1
-0.146, 9.4140757e-9, -5.4016405e-9, 8.2333374e+1
-0.147, 9.3111083e-9, -5.3145701e-9, 8.2666710e+1
-0.148, 9.3330756e-9, -5.3329425e-9, 8.3000046e+1
-0.149, 9.4258974e-9, -5.4201732e-9, 8.3333382e+1
-0.150, 9.4080042e-9, -5.3697682e-9, 8.3666718e+1
-0.151, 9.4136752e-9, -5.3372564e-9, 8.4000053e+1
-0.152, 9.4594483e-9, -5.3142504e-9, 8.4333389e+1
-0.153, 9.4505808e-9, -5.3298272e-9, 8.4666725e+1
-0.154, 9.4794972e-9, -5.3759188e-9, 8.5000061e+1
-0.155, 9.4799777e-9, -5.3347797e-9, 8.5333397e+1
-0.156, 9.4909209e-9, -5.3201616e-9, 8.5666733e+1
-0.157, 9.4779002e-9, -5.3050639e-9, 8.6000069e+1
-0.158, 9.4876453e-9, -5.3173657e-9, 8.6333405e+1
-0.159, 9.5081756e-9, -5.2311737e-9, 8.6666740e+1
-0.160, 9.5390895e-9, -5.2172742e-9, 8.7000076e+1
-0.161, 9.5069765e-9, -5.2194311e-9, 8.7333412e+1
-0.162, 9.5759143e-9, -5.1992211e-9, 8.7666748e+1
-0.163, 9.5939674e-9, -5.2044133e-9, 8.8000084e+1
-0.164, 9.5811865e-9, -5.2097655e-9, 8.8333420e+1
-0.165, 9.6950972e-9, -5.2258216e-9, 8.8666756e+1
-0.166, 9.6422159e-9, -5.1951474e-9, 8.9000092e+1
-0.167, 9.7525321e-9, -5.1730202e-9, 8.9333427e+1
-0.168, 9.7099555e-9, -5.1778932e-9, 8.9666763e+1
-0.169, 9.7716235e-9, -5.1540887e-9, 9.0000099e+1
-0.170, 9.8483097e-9, -5.1444231e-9, 9.0333435e+1
-0.171, 9.8993533e-9, -5.1527302e-9, 9.0666771e+1
-0.172, 9.9329043e-9, -5.1334790e-9, 9.1000107e+1
-0.173, 9.9208419e-9, -5.1287663e-9, 9.1333443e+1
-0.174, 9.9346611e-9, -5.1175828e-9, 9.1666779e+1
-0.175, 9.9801936e-9, -5.1187810e-9, 9.2000114e+1
-0.176, 9.9603827e-9, -5.0983315e-9, 9.2333450e+1
-0.177, 9.9862643e-9, -5.0899440e-9, 9.2666786e+1
-0.178, 1.0069821e-8, -5.1008078e-9, 9.3000122e+1
-0.179, 1.0010069e-8, -5.0879470e-9, 9.3333458e+1
-0.180, 1.0016699e-8, -5.0805178e-9, 9.3666794e+1
-0.181, 1.0216961e-8, -5.0965738e-9, 9.4000130e+1
-0.182, 1.0095462e-8, -5.1020859e-9, 9.4333466e+1
-0.183, 1.0081642e-8, -5.0833138e-9, 9.4666801e+1
-0.184, 1.0341337e-8, -5.0956954e-9, 9.5000137e+1
-0.185, 1.0271760e-8, -5.0664584e-9, 9.5333473e+1
-0.186, 1.0255385e-8, -5.1017661e-9, 9.5666809e+1
-0.187, 1.0374647e-8, -5.0804383e-9, 9.6000145e+1
-0.188, 1.0428487e-8, -5.0939377e-9, 9.6333481e+1
-0.189, 1.0423135e-8, -5.0774025e-9, 9.6666817e+1
-0.190, 1.0380238e-8, -5.0556745e-9, 9.7000153e+1
-0.191, 1.0490235e-8, -5.0623852e-9, 9.7333488e+1
-0.192, 1.0433999e-8, -5.0738875e-9, 9.7666824e+1
-0.193, 1.0471383e-8, -5.0485651e-9, 9.8000160e+1
-0.194, 1.0560131e-8, -5.0559943e-9, 9.8333496e+1
-0.195, 1.0527300e-8, -5.0534381e-9, 9.8666832e+1
-0.196, 1.0517635e-8, -5.0168527e-9, 9.9000168e+1
-0.197, 1.0585693e-8, -5.0584705e-9, 9.9333504e+1
-0.198, 1.0586732e-8, -5.0337072e-9, 9.9666840e+1
-0.199, 1.0650477e-8, -5.0690949e-9, 1.0000018e+2
-0.200, 1.0769100e-8, -5.0840328e-9, 1.0033351e+2
-0.201, 1.0789790e-8, -5.0710121e-9, 1.0066685e+2
-0.202, 1.0801292e-8, -5.0742073e-9, 1.0100018e+2
-0.203, 1.0928225e-8, -5.0915414e-9, 1.0133352e+2
-0.204, 1.0888443e-8, -5.0662989e-9, 1.0166685e+2
-0.205, 1.0725326e-8, -5.0809974e-9, 1.0200019e+2
-0.206, 1.0929981e-8, -5.0739675e-9, 1.0233353e+2
-0.207, 1.0971040e-8, -5.0829940e-9, 1.0266686e+2
-0.208, 1.0982464e-8, -5.0940976e-9, 1.0300020e+2
-0.209, 1.0966168e-8, -5.0731690e-9, 1.0333353e+2
-0.210, 1.1058111e-8, -5.0903433e-9, 1.0366687e+2
-0.211, 1.1049323e-8, -5.1276476e-9, 1.0400021e+2
-0.212, 1.1128566e-8, -5.0932991e-9, 1.0433354e+2
-0.213, 1.1245272e-8, -5.0730891e-9, 1.0466688e+2
-0.214, 1.1182086e-8, -5.0907425e-9, 1.0500021e+2
-0.215, 1.1335378e-8, -5.0888258e-9, 1.0533355e+2
-0.216, 1.1390017e-8, -5.0802784e-9, 1.0566689e+2
-0.217, 1.1342248e-8, -5.0885061e-9, 1.0600022e+2
-0.218, 1.1416938e-8, -5.1060800e-9, 1.0633356e+2
-0.219, 1.1387061e-8, -5.0979319e-9, 1.0666689e+2
-0.220, 1.1447931e-8, -5.0970534e-9, 1.0700023e+2
-0.221, 1.1453124e-8, -5.0815565e-9, 1.0733356e+2
-0.222, 1.1439943e-8, -5.0932991e-9, 1.0766690e+2
-0.223, 1.1521981e-8, -5.0823550e-9, 1.0800024e+2
-0.224, 1.1574623e-8, -5.0929794e-9, 1.0833357e+2
-0.225, 1.1616961e-8, -5.1226152e-9, 1.0866691e+2
-0.226, 1.1741814e-8, -5.1047220e-9, 1.0900024e+2
-0.227, 1.1686217e-8, -5.1116715e-9, 1.0933358e+2
-0.228, 1.1860038e-8, -5.1221360e-9, 1.0966692e+2
-0.229, 1.1893748e-8, -5.1018461e-9, 1.1000025e+2
-0.230, 1.1906849e-8, -5.1246922e-9, 1.1033359e+2
-0.231, 1.1947589e-8, -5.1605586e-9, 1.1066692e+2
-0.232, 1.1982496e-8, -5.1516120e-9, 1.1100026e+2
-0.233, 1.1966680e-8, -5.1599196e-9, 1.1133360e+2
-0.234, 1.2036976e-8, -5.1815676e-9, 1.1166693e+2
-0.235, 1.2098245e-8, -5.2207891e-9, 1.1200027e+2
-0.236, 1.2328302e-8, -5.2938010e-9, 1.1233360e+2
-0.237, 1.2324548e-8, -5.3048241e-9, 1.1266694e+2
-0.238, 1.2287003e-8, -5.3203215e-9, 1.1300027e+2
-0.239, 1.2437660e-8, -5.3434071e-9, 1.1333361e+2
-0.240, 1.2410899e-8, -5.3195226e-9, 1.1366695e+2
-0.241, 1.2444290e-8, -5.4090696e-9, 1.1400028e+2
-0.242, 1.2597821e-8, -5.4315961e-9, 1.1433362e+2
-0.243, 1.2499249e-8, -5.3712057e-9, 1.1466695e+2
-0.244, 1.2619309e-8, -5.4313563e-9, 1.1500029e+2
-0.245, 1.2799522e-8, -5.4581166e-9, 1.1533363e+2
-0.246, 1.2786181e-8, -5.4899889e-9, 1.1566696e+2
-0.247, 1.2897615e-8, -5.4824003e-9, 1.1600030e+2
-0.248, 1.2898416e-8, -5.4941429e-9, 1.1633363e+2
-0.249, 1.2933404e-8, -5.4977378e-9, 1.1666697e+2
-0.250, 1.2896657e-8, -5.5559712e-9, 1.1700031e+2
-0.251, 1.2977737e-8, -5.5598051e-9, 1.1733364e+2
-0.252, 1.2971506e-8, -5.5534146e-9, 1.1766698e+2
-0.253, 1.3063210e-8, -5.5777787e-9, 1.1800031e+2
-0.254, 1.3127753e-8, -5.5663558e-9, 1.1833365e+2
-0.255, 1.3306528e-8, -5.6011040e-9, 1.1866698e+2
-0.256, 1.3363883e-8, -5.6079736e-9, 1.1900032e+2
-0.257, 1.3346789e-8, -5.6365712e-9, 1.1933366e+2
-0.258, 1.3415645e-8, -5.6566214e-9, 1.1966699e+2
-0.259, 1.3399989e-8, -5.7118990e-9, 1.2000033e+2
-0.260, 1.3475956e-8, -5.7491238e-9, 1.2033366e+2
-0.261, 1.3510464e-8, -5.8419460e-9, 1.2066700e+2
-0.262, 1.3556397e-8, -5.7988898e-9, 1.2100034e+2
-0.263, 1.3744597e-8, -5.7718101e-9, 1.2133367e+2
-0.264, 1.3705136e-8, -5.8108722e-9, 1.2166701e+2
-0.265, 1.3827353e-8, -5.9496257e-9, 1.2200034e+2
-0.266, 1.3818407e-8, -5.9047323e-9, 1.2233368e+2
-0.267, 1.3500959e-8, -5.9564154e-9, 1.2266702e+2
-0.268, 1.3857148e-8, -6.0037850e-9, 1.2300035e+2
-0.269, 1.3903160e-8, -6.0153678e-9, 1.2333369e+2
-0.270, 1.3888942e-8, -5.9785425e-9, 1.2366702e+2
-0.271, 1.3906117e-8, -6.0192820e-9, 1.2400036e+2
-0.272, 1.3931838e-8, -6.0255925e-9, 1.2433369e+2
-0.273, 1.3917859e-8, -6.0555481e-9, 1.2466703e+2
-0.274, 1.4143524e-8, -6.0701666e-9, 1.2500037e+2
-0.275, 1.4051182e-8, -6.0751990e-9, 1.2533370e+2
-0.276, 1.4005968e-8, -6.0586638e-9, 1.2566704e+2
-0.277, 1.4348339e-8, -6.0796723e-9, 1.2600037e+2
-0.278, 1.4270136e-8, -6.1876717e-9, 1.2633371e+2
-0.279, 1.4374780e-8, -6.2387158e-9, 1.2666705e+2
-0.280, 1.4410967e-8, -6.2600440e-9, 1.2700038e+2
-0.281, 1.4385004e-8, -6.3563013e-9, 1.2733372e+2
-0.282, 1.4444836e-8, -6.3846590e-9, 1.2766705e+2
-0.283, 1.4400183e-8, -6.2022103e-9, 1.2800038e+2
-0.284, 1.4346423e-8, -6.1536425e-9, 1.2833371e+2
-0.285, 1.4411685e-8, -6.8520443e-9, 1.2866704e+2
-0.286, 1.5552150e-8, -7.4346977e-9, 1.2900037e+2
-0.287, 1.5483051e-8, -6.6775838e-9, 1.2933369e+2
-0.288, 1.4671858e-8, -6.4698922e-9, 1.2966702e+2
-0.289, 1.4639028e-8, -6.4076646e-9, 1.3000035e+2
-0.290, 1.4748943e-8, -6.4855485e-9, 1.3033368e+2
-0.291, 1.4861496e-8, -6.5298833e-9, 1.3066701e+2
-0.292, 1.4829864e-8, -6.5220549e-9, 1.3100034e+2
-0.293, 1.4774906e-8, -6.4646200e-9, 1.3133366e+2
-0.294, 1.4783132e-8, -6.4579897e-9, 1.3166699e+2
-0.295, 1.4779139e-8, -6.4974510e-9, 1.3200032e+2
-0.296, 1.4860777e-8, -6.4852292e-9, 1.3233365e+2
-0.297, 1.4892970e-8, -6.4914598e-9, 1.3266698e+2
-0.298, 1.4916775e-8, -6.5828445e-9, 1.3300031e+2
-0.299, 1.5070706e-8, -6.5347558e-9, 1.3333363e+2
-0.300, 1.4986909e-8, -6.5646315e-9, 1.3366696e+2
-0.301, 1.4925959e-8, -6.5943473e-9, 1.3400029e+2
-0.302, 1.4909745e-8, -6.5688650e-9, 1.3433362e+2
-0.303, 1.5251237e-8, -6.5468178e-9, 1.3466695e+2
-0.304, 1.4993621e-8, -6.5799686e-9, 1.3500027e+2
-0.305, 1.5037395e-8, -6.4693331e-9, 1.3533360e+2
-0.306, 1.4946650e-8, -6.3979990e-9, 1.3566693e+2
-0.307, 1.4894328e-8, -6.4935373e-9, 1.3600026e+2
-0.308, 1.5194681e-8, -6.4956942e-9, 1.3633359e+2
-0.309, 1.5265696e-8, -6.5559247e-9, 1.3666692e+2
-0.310, 1.5256349e-8, -6.6192700e-9, 1.3700024e+2
-0.311, 1.5176628e-8, -6.5528090e-9, 1.3733357e+2
-0.312, 1.5256189e-8, -6.5087944e-9, 1.3766690e+2
-0.313, 1.5293413e-8, -6.5834032e-9, 1.3800023e+2
-0.314, 1.5329201e-8, -6.5724599e-9, 1.3833356e+2
-0.315, 1.5349650e-8, -6.9125945e-9, 1.3866689e+2
-0.316, 1.5395024e-8, -6.5516108e-9, 1.3900021e+2
-0.317, 1.5325528e-8, -6.4996875e-9, 1.3933354e+2
-0.318, 1.5316660e-8, -6.6084862e-9, 1.3966687e+2
-0.319, 1.5443989e-8, -6.7282282e-9, 1.4000020e+2
-0.320, 1.5407563e-8, -6.5965042e-9, 1.4033353e+2
-0.321, 1.5380405e-8, -6.6284569e-9, 1.4066685e+2
-0.322, 1.5406846e-8, -6.7925328e-9, 1.4100018e+2
-0.323, 1.5595845e-8, -6.5579213e-9, 1.4133351e+2
-0.324, 1.5395342e-8, -6.5912320e-9, 1.4166684e+2
-0.325, 1.5446226e-8, -6.7537100e-9, 1.4200017e+2
-0.326, 1.5623003e-8, -6.8898278e-9, 1.4233350e+2
-0.327, 1.5759282e-8, -6.7492367e-9, 1.4266682e+2
-0.328, 1.5683554e-8, -6.8450148e-9, 1.4300015e+2
-0.329, 1.5649125e-8, -6.8655441e-9, 1.4333348e+2
-0.330, 1.5662945e-8, -6.7299055e-9, 1.4366681e+2
-0.331, 1.5633947e-8, -6.8556383e-9, 1.4400014e+2
-0.332, 1.5833173e-8, -6.7635360e-9, 1.4433347e+2
-0.333, 1.5805773e-8, -6.8243251e-9, 1.4466679e+2
-0.334, 1.5827899e-8, -6.7484378e-9, 1.4500012e+2
-0.335, 1.5811285e-8, -6.8866330e-9, 1.4533345e+2
-0.336, 1.5773979e-8, -6.7672903e-9, 1.4566678e+2
-0.337, 1.5824385e-8, -6.8876713e-9, 1.4600011e+2
-0.338, 1.5890526e-8, -6.9105170e-9, 1.4633344e+2
-0.339, 1.5873910e-8, -6.9248962e-9, 1.4666676e+2
-0.340, 1.5856417e-8, -6.9396737e-9, 1.4700009e+2
-0.341, 1.6134004e-8, -6.9709873e-9, 1.4733342e+2
-0.342, 1.5891565e-8, -6.9026886e-9, 1.4766675e+2
-0.343, 1.6156850e-8, -6.9756205e-9, 1.4800008e+2
-0.344, 1.5917845e-8, -6.7021073e-9, 1.4833340e+2
-0.345, 1.5846194e-8, -6.8547599e-9, 1.4866673e+2
-0.346, 1.5886133e-8, -6.9989459e-9, 1.4900006e+2
-0.347, 1.6112756e-8, -7.0489512e-9, 1.4933339e+2
-0.348, 1.6272439e-8, -7.0027801e-9, 1.4966672e+2
-0.349, 1.6283861e-8, -7.2167019e-9, 1.5000005e+2
-0.350, 1.6511443e-8, -7.2094331e-9, 1.5033337e+2
-0.351, 1.6497065e-8, -6.9854456e-9, 1.5066670e+2
-0.352, 1.6003000e-8, -6.7932517e-9, 1.5100003e+2
-0.353, 1.5938214e-8, -6.8228072e-9, 1.5133336e+2
-0.354, 1.6157330e-8, -6.9214607e-9, 1.5166669e+2
-0.355, 1.6223792e-8, -7.0653270e-9, 1.5200002e+2
-0.356, 1.6378520e-8, -7.0803448e-9, 1.5233334e+2
-0.357, 1.6536605e-8, -7.4087367e-9, 1.5266667e+2
-0.358, 1.6783758e-8, -7.4081772e-9, 1.5300000e+2
-0.359, 1.6810199e-8, -7.1750836e-9, 1.5333333e+2
-0.360, 1.6472141e-8, -7.4091360e-9, 1.5366666e+2
-0.361, 1.6640930e-8, -7.2993793e-9, 1.5399998e+2
-0.362, 1.6577985e-8, -7.3857307e-9, 1.5433331e+2
-0.363, 1.6521508e-8, -7.5178539e-9, 1.5466664e+2
-0.364, 1.6647322e-8, -7.0073329e-9, 1.5499997e+2
-0.365, 1.6421417e-8, -7.1202853e-9, 1.5533330e+2
-0.366, 1.6894793e-8, -7.4202395e-9, 1.5566663e+2
-0.367, 1.6824179e-8, -7.3298136e-9, 1.5599995e+2
-0.368, 1.6733194e-8, -7.4484370e-9, 1.5633328e+2
-0.369, 1.7080037e-8, -7.5716144e-9, 1.5666661e+2
-0.370, 1.6824977e-8, -7.2270065e-9, 1.5699994e+2
-0.371, 1.6675040e-8, -7.6475812e-9, 1.5733327e+2
-0.372, 1.6972038e-8, -7.1805157e-9, 1.5766660e+2
-0.373, 1.6679433e-8, -7.0780279e-9, 1.5799992e+2
-0.374, 1.6593882e-8, -7.2127082e-9, 1.5833325e+2
-0.375, 1.6636697e-8, -7.2746955e-9, 1.5866658e+2
-0.376, 1.6860284e-8, -7.3386008e-9, 1.5899991e+2
-0.377, 1.6841833e-8, -7.3668787e-9, 1.5933324e+2
-0.378, 1.7189315e-8, -7.7057347e-9, 1.5966656e+2
-0.379, 1.6856930e-8, -7.3906832e-9, 1.5999989e+2
-0.380, 1.6839355e-8, -7.3807778e-9, 1.6033322e+2
-0.381, 1.6870269e-8, -7.0599753e-9, 1.6066655e+2
-0.382, 1.6818507e-8, -7.2998585e-9, 1.6099988e+2
-0.383, 1.7160319e-8, -7.4100144e-9, 1.6133321e+2
-0.384, 1.7084112e-8, -7.3035329e-9, 1.6166653e+2
-0.385, 1.6930260e-8, -7.5106650e-9, 1.6199986e+2
-0.386, 1.7135156e-8, -7.3402786e-9, 1.6233319e+2
-0.387, 1.7309457e-8, -7.4199202e-9, 1.6266652e+2
-0.388, 1.7342449e-8, -7.7103683e-9, 1.6299985e+2
-0.389, 1.7753676e-8, -7.9828428e-9, 1.6333318e+2
-0.390, 1.7839149e-8, -8.6400256e-9, 1.6366650e+2
-0.391, 1.8048997e-8, -7.6466229e-9, 1.6399983e+2
-0.392, 1.7175417e-8, -7.9462570e-9, 1.6433316e+2
-0.393, 1.7876694e-8, -8.3513347e-9, 1.6466649e+2
-0.394, 1.8073601e-8, -7.5745694e-9, 1.6499982e+2
-0.395, 1.7551418e-8, -7.6734628e-9, 1.6533315e+2
-0.396, 1.7752718e-8, -7.4454016e-9, 1.6566647e+2
-0.397, 1.7336138e-8, -7.4602600e-9, 1.6599980e+2
-0.398, 1.7584806e-8, -7.7578175e-9, 1.6633313e+2
-0.399, 1.7805759e-8, -7.7047764e-9, 1.6666646e+2
-0.400, 1.7778760e-8, -7.8006339e-9, 1.6699979e+2
-0.401, 1.7618119e-8, -7.5176141e-9, 1.6733311e+2
-0.402, 1.7713337e-8, -7.5040347e-9, 1.6766644e+2
-0.403, 1.7798730e-8, -7.5986142e-9, 1.6799977e+2
-0.404, 1.7914317e-8, -7.4188016e-9, 1.6833310e+2
-0.405, 1.7516669e-8, -7.8916189e-9, 1.6866643e+2
-0.406, 1.7891152e-8, -7.8953732e-9, 1.6899976e+2
-0.407, 1.7960888e-8, -7.7180360e-9, 1.6933308e+2
-0.408, 1.8166901e-8, -7.9492928e-9, 1.6966641e+2
-0.409, 1.8069208e-8, -7.9578397e-9, 1.6999974e+2
-0.410, 1.8765691e-8, -9.5109707e-9, 1.7033307e+2
-0.411, 1.9454108e-8, -8.5944940e-9, 1.7066640e+2
-0.412, 1.9281325e-8, -1.2179243e-8, 1.7099973e+2
-0.413, 1.9919177e-8, -8.4331333e-9, 1.7133305e+2
-0.414, 1.8291276e-8, -7.8908995e-9, 1.7166638e+2
-0.415, 1.8009617e-8, -7.3719910e-9, 1.7199971e+2
-0.416, 1.7802163e-8, -7.4841440e-9, 1.7233304e+2
-0.417, 1.7609331e-8, -7.7062943e-9, 1.7266637e+2
-0.418, 1.8509352e-8, -8.2287972e-9, 1.7299969e+2
-0.419, 1.8782947e-8, -8.3624387e-9, 1.7333302e+2
-0.420, 1.8551370e-8, -8.2278389e-9, 1.7366635e+2
-0.421, 1.8520696e-8, -7.9691027e-9, 1.7399968e+2
-0.422, 1.8791015e-8, -8.2478095e-9, 1.7433301e+2
-0.423, 1.8316280e-8, -7.7321758e-9, 1.7466634e+2
-0.424, 1.8392488e-8, -8.9560359e-9, 1.7499966e+2
-0.425, 2.1831934e-8, -1.1966041e-8, 1.7533299e+2
-0.426, 2.1919403e-8, -1.1108676e-8, 1.7566632e+2
-0.427, 2.1399456e-8, -1.0126776e-8, 1.7599965e+2
-0.428, 2.0695463e-8, -1.0880536e-8, 1.7633298e+2
-0.429, 2.0657998e-8, -1.3152996e-8, 1.7666631e+2
-0.430, 2.1537012e-8, -8.6440997e-9, 1.7699963e+2
-0.431, 1.9551404e-8, -8.7868477e-9, 1.7733296e+2
-0.432, 1.8501526e-8, -7.3834143e-9, 1.7766629e+2
-0.433, 1.8215630e-8, -7.3598492e-9, 1.7799962e+2
-0.434, 1.8167780e-8, -7.1673356e-9, 1.7833295e+2
-0.435, 1.8004743e-8, -7.1794770e-9, 1.7866628e+2
-0.436, 1.8305816e-8, -7.3567339e-9, 1.7899960e+2
-0.437, 1.8304297e-8, -7.0891315e-9, 1.7933293e+2
-0.438, 1.8716964e-8, -8.3655536e-9, 1.7966626e+2
-0.439, 1.9543416e-8, -8.7454692e-9, 1.7999959e+2
-0.440, 1.8688446e-8, -7.2567223e-9, 1.8033292e+2
-0.441, 1.8702824e-8, -8.0351654e-9, 1.8066624e+2
-0.442, 1.9485581e-8, -7.7728357e-9, 1.8099957e+2
-0.443, 1.8796607e-8, -7.9971416e-9, 1.8133290e+2
-0.444, 1.9350502e-8, -8.0114404e-9, 1.8166623e+2
-0.445, 1.8880161e-8, -8.0511411e-9, 1.8199956e+2
-0.446, 2.1327722e-8, -1.0448937e-8, 1.8233289e+2
-0.447, 2.0899799e-8, -1.0438392e-8, 1.8266621e+2
-0.448, 2.2130530e-8, -9.7565254e-9, 1.8299954e+2
-0.449, 2.0809932e-8, -9.3842791e-9, 1.8333287e+2
-0.450, 2.0315868e-8, -9.8023785e-9, 1.8366620e+2
-0.451, 2.0761206e-8, -1.0318810e-8, 1.8399953e+2
-0.452, 2.1604830e-8, -1.0031557e-8, 1.8433286e+2
-0.453, 2.1330520e-8, -8.7435525e-9, 1.8466618e+2
-0.454, 2.1171315e-8, -1.0013983e-8, 1.8499951e+2
-0.455, 2.2308424e-8, -1.0798018e-8, 1.8533284e+2
-0.456, 2.1646928e-8, -9.4266959e-9, 1.8566617e+2
-0.457, 2.1795827e-8, -1.0061513e-8, 1.8599950e+2
-0.458, 2.2089232e-8, -1.1219790e-8, 1.8633282e+2
-0.459, 2.3048925e-8, -1.1105321e-8, 1.8666615e+2
-0.460, 2.2309303e-8, -9.9523945e-9, 1.8699948e+2
-0.461, 2.1777854e-8, -1.0518034e-8, 1.8733281e+2
-0.462, 2.2265528e-8, -1.0067184e-8, 1.8766614e+2
-0.463, 2.3099968e-8, -9.6451718e-9, 1.8799947e+2
-0.464, 2.1316060e-8, -9.0993426e-9, 1.8833279e+2
-0.465, 2.1379007e-8, -1.0087634e-8, 1.8866612e+2
-0.466, 2.1762277e-8, -9.9148503e-9, 1.8899945e+2
-0.467, 2.1728647e-8, -1.1494821e-8, 1.8933278e+2
-0.468, 2.2306908e-8, -9.4437107e-9, 1.8966611e+2
-0.469, 2.1754049e-8, -1.0250991e-8, 1.8999944e+2
-0.470, 2.1324928e-8, -9.5571426e-9, 1.9033276e+2
-0.471, 2.4248100e-8, -1.3035332e-8, 1.9066609e+2
-0.472, 2.4691682e-8, -1.0751607e-8, 1.9099942e+2
-0.473, 2.3415259e-8, -1.0106645e-8, 1.9133275e+2
-0.474, 2.3368848e-8, -1.1509440e-8, 1.9166608e+2
-0.475, 2.3444734e-8, -1.0039705e-8, 1.9199940e+2
-0.476, 2.2489436e-8, -1.0190201e-8, 1.9233273e+2
-0.477, 2.2644485e-8, -1.0416265e-8, 1.9266606e+2
-0.478, 2.2002400e-8, -9.7191419e-9, 1.9299939e+2
-0.479, 2.3506164e-8, -1.0909132e-8, 1.9333272e+2
-0.480, 2.3516309e-8, -1.0376644e-8, 1.9366605e+2
-0.481, 2.3193190e-8, -1.3790928e-8, 1.9399937e+2
-0.482, 2.4790975e-8, -1.1261329e-8, 1.9433270e+2
-0.483, 2.3872740e-8, -1.1316926e-8, 1.9466603e+2
-0.484, 2.5901324e-8, -1.1421730e-8, 1.9499936e+2
-0.485, 2.3123933e-8, -1.0242683e-8, 1.9533269e+2
-0.486, 2.3172740e-8, -1.1741335e-8, 1.9566602e+2
-0.487, 2.4207361e-8, -1.1361820e-8, 1.9599934e+2
-0.488, 2.5463894e-8, -1.1807956e-8, 1.9633267e+2
-0.489, 2.4144255e-8, -1.2862309e-8, 1.9666600e+2
-0.490, 2.7225434e-8, -1.5478578e-8, 1.9699933e+2
-0.491, 2.5637556e-8, -9.8300168e-9, 1.9733266e+2
-0.492, 2.3909164e-8, -1.0732434e-8, 1.9766599e+2
-0.493, 2.4859352e-8, -1.1691410e-8, 1.9799931e+2
-0.494, 2.5253007e-8, -1.1784950e-8, 1.9833264e+2
-0.495, 2.5049150e-8, -1.1645477e-8, 1.9866597e+2
-0.496, 2.5555757e-8, -1.1709623e-8, 1.9899930e+2
-0.497, 2.4266313e-8, -1.1841666e-8, 1.9933263e+2
-0.498, 2.5643546e-8, -1.3548967e-8, 1.9966595e+2
-0.499, 2.7634984e-8, -1.4022504e-8, 1.9999928e+2
-0.500, 2.6976604e-8, -1.1902535e-8, 2.0033261e+2
-0.499, 1.9911749e-8, -1.1857642e-8, 2.0066594e+2
-0.498, 1.8298467e-8, -1.1316846e-8, 2.0099927e+2
-0.497, 1.5807290e-8, -1.0825177e-8, 2.0133260e+2
-0.496, 1.5021817e-8, -1.0788192e-8, 2.0166592e+2
-0.495, 1.5101460e-8, -1.2121011e-8, 2.0199925e+2
-0.494, 1.5605909e-8, -1.2746480e-8, 2.0233258e+2
-0.493, 1.5801298e-8, -1.3807224e-8, 2.0266591e+2
-0.492, 1.6037827e-8, -1.2708616e-8, 2.0299924e+2
-0.491, 1.4891851e-8, -1.1897902e-8, 2.0333257e+2
-0.490, 1.3386649e-8, -1.2359696e-8, 2.0366589e+2
-0.489, 1.2765093e-8, -1.1507522e-8, 2.0399922e+2
-0.488, 1.3493690e-8, -1.1360861e-8, 2.0433255e+2
-0.487, 1.0928543e-8, -8.8286249e-9, 2.0466588e+2
-0.486, 9.3255670e-9, -9.0678700e-9, 2.0499921e+2
-0.485, 8.9904653e-9, -8.9469294e-9, 2.0533253e+2
-0.484, 9.9151700e-9, -1.0226148e-8, 2.0566586e+2
-0.483, 9.7257722e-9, -1.0387588e-8, 2.0599919e+2
-0.482, 9.4165511e-9, -9.0757784e-9, 2.0633252e+2
-0.481, 7.5586737e-9, -8.5480822e-9, 2.0666585e+2
-0.480, 7.3604087e-9, -1.0302035e-8, 2.0699918e+2
-0.479, 8.0269373e-9, -9.5599386e-9, 2.0733250e+2
-0.478, 7.9765323e-9, -9.7193009e-9, 2.0766583e+2
-0.477, 7.8251574e-9, -9.8376853e-9, 2.0799916e+2
-0.476, 7.1494415e-9, -9.7852837e-9, 2.0833249e+2
-0.475, 6.8470114e-9, -9.8443955e-9, 2.0866582e+2
-0.474, 7.8961717e-9, -9.3796464e-9, 2.0899915e+2
-0.473, 7.1826727e-9, -1.0682909e-8, 2.0933247e+2
-0.472, 7.0647679e-9, -8.6810852e-9, 2.0966580e+2
-0.471, 6.9917561e-9, -1.0097619e-8, 2.0999913e+2
-0.470, 6.5863586e-9, -9.3059160e-9, 2.1033246e+2
-0.469, 6.7608195e-9, -9.9282707e-9, 2.1066579e+2
-0.468, 7.4398900e-9, -1.0226148e-8, 2.1099911e+2
-0.467, 6.9796147e-9, -1.1444576e-8, 2.1133244e+2
-0.466, 7.0727557e-9, -1.9275975e-8, 2.1166577e+2
-0.465, 4.4327290e-8, -2.1406166e-8, 2.1199910e+2
-0.464, 1.4956395e-8, -1.6556417e-8, 2.1233243e+2
-0.463, 1.1294160e-8, -1.4987869e-8, 2.1266576e+2
-0.462, 8.3367970e-9, -1.8701707e-8, 2.1299908e+2
-0.461, 1.1021925e-8, -1.3323223e-8, 2.1333241e+2
-0.460, 9.9555901e-9, -1.1296955e-8, 2.1366574e+2
-0.459, 8.5281116e-9, -1.5951475e-8, 2.1399907e+2
-0.458, 2.0297973e-8, -3.6585199e-8, 2.1433240e+2
-0.457, 1.6158049e-8, -9.6176924e-9, 2.1466573e+2
-0.456, 3.8764680e-9, -8.1870990e-9, 2.1499905e+2
-0.455, 3.9972483e-9, -8.9037933e-9, 2.1533238e+2
-0.454, 3.6833949e-9, -1.0880455e-8, 2.1566571e+2
-0.453, 6.6171131e-9, -1.0309145e-8, 2.1599904e+2
-0.452, 3.3307992e-9, -9.7393515e-9, 2.1633237e+2
-0.451, 5.4478115e-9, -9.2347419e-9, 2.1666570e+2
-0.450, 3.1992347e-9, -9.2042267e-9, 2.1699902e+2
-0.449, 4.8527764e-9, -9.9940127e-9, 2.1733235e+2
-0.448, 4.0994963e-9, -8.5054257e-9, 2.1766568e+2
-0.447, 3.9109769e-9, -8.0802982e-9, 2.1799901e+2
-0.446, 4.0296002e-9, -1.1087587e-8, 2.1833234e+2
-0.445, 4.0629904e-9, -9.6331094e-9, 2.1866566e+2
-0.444, 4.0602748e-9, -8.2492475e-9, 2.1899899e+2
-0.443, 3.8814205e-9, -9.4730277e-9, 2.1933232e+2
-0.442, 2.8289053e-9, -8.3665128e-9, 2.1966565e+2
-0.441, 2.6739357e-9, -8.2467704e-9, 2.1999898e+2
-0.440, 3.4640411e-9, -9.1114050e-9, 2.2033231e+2
-0.439, 3.0588034e-9, -8.1025844e-9, 2.2066563e+2
-0.438, 3.3224914e-9, -8.2879898e-9, 2.2099896e+2
-0.437, 2.5296703e-9, -8.0408364e-9, 2.2133229e+2
-0.436, 2.7925595e-9, -8.3505363e-9, 2.2166562e+2
-0.435, 2.1995212e-9, -9.3707797e-9, 2.2199895e+2
-0.434, 4.3928203e-9, -1.0664296e-8, 2.2233228e+2
-0.433, 3.0217386e-9, -8.0836529e-9, 2.2266560e+2
-0.432, 2.1146072e-9, -8.8661691e-9, 2.2299893e+2
-0.431, 1.6917160e-9, -8.2342293e-9, 2.2333226e+2
-0.430, 1.7063342e-9, -7.6801729e-9, 2.2366559e+2
-0.429, 1.6263731e-9, -7.5913453e-9, 2.2399892e+2
-0.428, 1.3038925e-9, -7.6201019e-9, 2.2433224e+2
-0.427, 1.8908599e-9, -9.4807762e-9, 2.2466557e+2
-0.426, 2.6053177e-9, -8.7107201e-9, 2.2499890e+2
-0.425, 2.5990070e-9, -8.6569605e-9, 2.2533223e+2
-0.424, 1.7040177e-9, -8.7004963e-9, 2.2566556e+2
-0.423, 2.0800985e-9, -8.0237417e-9, 2.2599889e+2
-0.422, 1.4556670e-9, -7.9476949e-9, 2.2633221e+2
-0.421, 1.2875969e-9, -7.5927025e-9, 2.2666554e+2
-0.420, 1.2184995e-9, -8.5964107e-9, 2.2699887e+2
-0.419, 1.7163195e-9, -8.2743297e-9, 2.2733220e+2
-0.418, 1.2651502e-9, -8.1299047e-9, 2.2766553e+2
-0.417, 1.9399069e-9, -8.5058254e-9, 2.2799886e+2
-0.416, 2.4030584e-9, -9.8336912e-9, 2.2833218e+2
-0.415, 2.3318043e-9, -7.7130844e-9, 2.2866551e+2
-0.414, 1.5329920e-9, -9.2472829e-9, 2.2899884e+2
-0.413, 2.8445621e-9, -7.7754718e-9, 2.2933217e+2
-0.412, 1.3578924e-9, -8.6831617e-9, 2.2966550e+2
-0.411, 1.8210438e-9, -7.7432789e-9, 2.2999883e+2
-0.410, 9.7781738e-10, -7.9616740e-9, 2.3033215e+2
-0.409, 1.4506345e-9, -7.4849433e-9, 2.3066548e+2
-0.408, 5.8328392e-10, -8.4760297e-9, 2.3099881e+2
-0.407, 9.0368762e-10, -8.1388514e-9, 2.3133214e+2
-0.406, 9.2956909e-10, -7.4330999e-9, 2.3166547e+2
-0.405, 6.4982503e-10, -7.8008737e-9, 2.3199879e+2
-0.404, 1.1557130e-9, -8.0791791e-9, 2.3233212e+2
-0.403, 1.4710042e-9, -9.0411891e-9, 2.3266545e+2
-0.402, 2.5675340e-9, -9.2349817e-9, 2.3299878e+2
-0.401, 2.1529503e-9, -7.4386919e-9, 2.3333211e+2
-0.400, 4.9916898e-10, -8.8747969e-9, 2.3366544e+2
-0.399, 4.1289727e-10, -7.4508337e-9, 2.3399876e+2
-0.398, 1.4043833e-9, -8.7927585e-9, 2.3433209e+2
-0.397, 2.3530529e-9, -7.9460172e-9, 2.3466542e+2
-0.396, 9.0201002e-10, -9.6375823e-9, 2.3499875e+2
-0.395, 2.1481574e-9, -8.5500789e-9, 2.3533208e+2
-0.394, 1.9292827e-9, -8.5388958e-9, 2.3566541e+2
-0.393, 1.6446660e-9, -8.5799554e-9, 2.3599873e+2
-0.392, 1.4289866e-9, -9.1273815e-9, 2.3633206e+2
-0.391, 1.7753518e-9, -7.5723330e-9, 2.3666539e+2
-0.390, -2.7320271e-10, -7.4829458e-9, 2.3699872e+2
-0.389, 4.0411033e-10, -7.1422526e-9, 2.3733205e+2
-0.388, -5.0222221e-10, -7.1619035e-9, 2.3766537e+2
-0.387, -2.3637745e-10, -6.8971771e-9, 2.3799870e+2
-0.386, -6.8403189e-10, -7.6915958e-9, 2.3833203e+2
-0.385, -3.5763720e-10, -7.6302467e-9, 2.3866536e+2
-0.384, -5.5885802e-10, -6.7157666e-9, 2.3899869e+2
-0.383, -7.5113216e-10, -6.9946320e-9, 2.3933202e+2
-0.382, 1.8643395e-10, -7.1614243e-9, 2.3966534e+2
-0.381, -6.0614774e-10, -7.0083717e-9, 2.3999867e+2
-0.380, -7.8196627e-10, -8.2013187e-9, 2.4033200e+2
-0.379, 1.1328668e-9, -7.4761566e-9, 2.4066533e+2
-0.378, 5.9119215e-10, -8.7970724e-9, 2.4099866e+2
-0.377, -3.5404252e-10, -6.5394685e-9, 2.4133199e+2
-0.376, -1.0978967e-9, -6.8881505e-9, 2.4166531e+2
-0.375, -7.9602547e-10, -7.7312174e-9, 2.4199864e+2
-0.374, -7.5576517e-11, -7.6079605e-9, 2.4233197e+2
-0.373, -8.7574692e-10, -6.7835861e-9, 2.4266530e+2
-0.372, -1.0501277e-9, -7.4836652e-9, 2.4299863e+2
-0.371, -3.9454229e-10, -7.0053363e-9, 2.4333195e+2
-0.370, -9.9956288e-10, -6.4963328e-9, 2.4366528e+2
-0.369, -1.3430521e-9, -6.5078356e-9, 2.4399861e+2
-0.368, -1.2755524e-9, -6.6472285e-9, 2.4433194e+2
-0.367, -6.9473599e-10, -6.8875909e-9, 2.4466527e+2
-0.366, -1.1159498e-9, -6.5516108e-9, 2.4499860e+2
-0.365, -1.3070257e-9, -6.7541093e-9, 2.4533192e+2
-0.364, -7.5177120e-10, -6.7136101e-9, 2.4566525e+2
-0.363, -1.4475369e-9, -6.4630226e-9, 2.4599858e+2
-0.362, -1.4239718e-9, -6.7877397e-9, 2.4633191e+2
-0.361, -1.3785993e-9, -6.4714900e-9, 2.4666524e+2
-0.360, -1.4816461e-9, -6.4675758e-9, 2.4699857e+2
-0.359, -1.6311038e-9, -7.5927824e-9, 2.4733189e+2
-0.358, -5.4040550e-10, -6.5154246e-9, 2.4766522e+2
-0.357, -1.4682261e-9, -6.6039334e-9, 2.4799855e+2
-0.356, -1.8089196e-9, -6.4926580e-9, 2.4833188e+2
-0.355, -1.6887782e-9, -6.3370496e-9, 2.4866521e+2
-0.354, -1.6676895e-9, -6.6526606e-9, 2.4899854e+2
-0.353, -1.2212332e-9, -6.3225909e-9, 2.4933186e+2
-0.352, -1.8926352e-9, -6.4177299e-9, 2.4966519e+2
-0.351, -1.7876711e-9, -6.3285821e-9, 2.4999852e+2
-0.350, -1.9279427e-9, -6.3115682e-9, 2.5033185e+2
-0.349, -1.8654756e-9, -6.8329520e-9, 2.5066518e+2
-0.348, -1.1878429e-9, -6.3081327e-9, 2.5099850e+2
-0.347, -1.9089308e-9, -6.5346755e-9, 2.5133183e+2
-0.346, -1.8001326e-9, -6.6914829e-9, 2.5166516e+2
-0.345, -1.7967776e-9, -6.5544867e-9, 2.5199849e+2
-0.344, -1.9038184e-9, -6.4389782e-9, 2.5233182e+2
-0.343, -1.9765103e-9, -6.2927956e-9, 2.5266515e+2
-0.342, -1.8135525e-9, -6.2860854e-9, 2.5299847e+2
-0.341, -2.1839619e-9, -6.3844188e-9, 2.5333180e+2
-0.340, -2.1954649e-9, -6.3173986e-9, 2.5366513e+2
-0.339, -2.0860276e-9, -6.2709877e-9, 2.5399846e+2
-0.338, -2.2510622e-9, -6.1610717e-9, 2.5433179e+2
-0.337, -2.3129703e-9, -6.1355094e-9, 2.5466512e+2
-0.336, -2.2505031e-9, -6.1321543e-9, 2.5499844e+2
-0.335, -2.3132096e-9, -6.0711249e-9, 2.5533177e+2
-0.334, -2.5230578e-9, -6.0435661e-9, 2.5566510e+2
-0.333, -2.2647220e-9, -6.2275323e-9, 2.5599843e+2
-0.332, -2.3810289e-9, -6.0775953e-9, 2.5633176e+2
-0.331, -2.6400040e-9, -5.9366050e-9, 2.5666510e+2
-0.330, -2.3839049e-9, -6.0749596e-9, 2.5699844e+2
-0.329, -2.1736573e-9, -6.3638899e-9, 2.5733179e+2
-0.328, -2.4898272e-9, -6.0322232e-9, 2.5766513e+2
-0.327, -2.6496696e-9, -6.0478795e-9, 2.5799847e+2
-0.326, -2.6669240e-9, -6.0453234e-9, 2.5833182e+2
-0.325, -2.6200335e-9, -6.0565069e-9, 2.5866516e+2
-0.324, -2.6856961e-9, -6.0104952e-9, 2.5899850e+2
-0.323, -2.4974161e-9, -6.0703265e-9, 2.5933185e+2
-0.322, -2.7178082e-9, -5.9684777e-9, 2.5966519e+2
-0.321, -2.8313996e-9, -5.9948384e-9, 2.5999854e+2
-0.320, -2.7702103e-9, -5.9391612e-9, 2.6033188e+2
-0.319, -2.7559917e-9, -5.8500138e-9, 2.6066522e+2
-0.318, -3.1935807e-9, -5.7506417e-9, 2.6099857e+2
-0.317, -2.9045708e-9, -5.7126983e-9, 2.6133191e+2
-0.316, -3.1235250e-9, -5.7371414e-9, 2.6166525e+2
-0.315, -3.1160963e-9, -5.9872498e-9, 2.6199860e+2
-0.314, -2.8940264e-9, -6.0109748e-9, 2.6233194e+2
-0.313, -2.5917557e-9, -6.0648144e-9, 2.6266528e+2
-0.312, -3.1193712e-9, -5.9247030e-9, 2.6299863e+2
-0.311, -3.0551468e-9, -5.8552860e-9, 2.6333197e+2
-0.310, -2.6278619e-9, -6.0312644e-9, 2.6366531e+2
-0.309, -3.0156055e-9, -5.8795697e-9, 2.6399866e+2
-0.308, -3.2231369e-9, -5.8849219e-9, 2.6433200e+2
-0.307, -3.2328025e-9, -5.8443423e-9, 2.6466534e+2
-0.306, -3.2518146e-9, -5.6622929e-9, 2.6499869e+2
-0.305, -3.3205123e-9, -5.6894525e-9, 2.6533203e+2
-0.304, -3.2764975e-9, -5.8992207e-9, 2.6566537e+2
-0.303, -3.2348797e-9, -5.9158358e-9, 2.6599872e+2
-0.302, -3.2648351e-9, -5.9004188e-9, 2.6633206e+2
-0.301, -3.3011809e-9, -5.6928076e-9, 2.6666541e+2
-0.300, -3.3559795e-9, -5.7085439e-9, 2.6699875e+2
-0.299, -3.3339322e-9, -5.8286855e-9, 2.6733209e+2
-0.298, -3.3527845e-9, -5.6003051e-9, 2.6766544e+2
-0.297, -3.5776500e-9, -5.6656480e-9, 2.6799878e+2
-0.296, -3.3932042e-9, -5.6825029e-9, 2.6833212e+2
-0.295, -3.5008840e-9, -5.5816129e-9, 2.6866547e+2
-0.294, -3.6389187e-9, -5.5750626e-9, 2.6899881e+2
-0.293, -3.6890044e-9, -5.5513381e-9, 2.6933215e+2
-0.292, -3.7026640e-9, -5.5641989e-9, 2.6966550e+2
-0.291, -3.7101728e-9, -5.6181184e-9, 2.6999884e+2
-0.290, -3.3898493e-9, -5.6690030e-9, 2.7033218e+2
-0.289, -3.7495544e-9, -5.5452669e-9, 2.7066553e+2
-0.288, -3.8020360e-9, -5.5064446e-9, 2.7099887e+2
-0.287, -3.7819063e-9, -5.4553206e-9, 2.7133221e+2
-0.286, -4.0086894e-9, -5.3847056e-9, 2.7166556e+2
-0.285, -4.0292987e-9, -5.3933329e-9, 2.7199890e+2
-0.284, -3.9935917e-9, -5.4248859e-9, 2.7233224e+2
-0.283, -4.1705284e-9, -5.3672116e-9, 2.7266559e+2
-0.282, -4.1773984e-9, -5.2378839e-9, 2.7299893e+2
-0.281, -4.2253272e-9, -5.1846829e-9, 2.7333228e+2
-0.280, -4.3056878e-9, -5.1599196e-9, 2.7366562e+2
-0.279, -4.2392263e-9, -5.3373359e-9, 2.7399896e+2
-0.278, -4.2299604e-9, -5.3394129e-9, 2.7433231e+2
-0.277, -4.3366817e-9, -5.1392308e-9, 2.7466565e+2
-0.276, -4.4223141e-9, -5.1093547e-9, 2.7499899e+2
-0.275, -4.5219264e-9, -5.0790003e-9, 2.7533234e+2
-0.274, -4.6013282e-9, -5.0706128e-9, 2.7566568e+2
-0.273, -4.7037356e-9, -5.0600684e-9, 2.7599902e+2
-0.272, -4.6879189e-9, -5.1273283e-9, 2.7633237e+2
-0.271, -4.6575646e-9, -5.0418554e-9, 2.7666571e+2
-0.270, -4.7388036e-9, -5.0113407e-9, 2.7699905e+2
-0.269, -4.7574957e-9, -5.0069469e-9, 2.7733240e+2
-0.268, -4.7737916e-9, -5.0041513e-9, 2.7766574e+2
-0.267, -4.9051163e-9, -4.9597375e-9, 2.7799908e+2
-0.266, -4.9515272e-9, -4.9692432e-9, 2.7833243e+2
-0.265, -4.9130247e-9, -4.9316990e-9, 2.7866577e+2
-0.264, -5.1136864e-9, -4.9336961e-9, 2.7899911e+2
-0.263, -5.1157634e-9, -4.9144449e-9, 2.7933246e+2
-0.262, -5.2168927e-9, -4.7996553e-9, 2.7966580e+2
-0.261, -5.2543569e-9, -4.7212918e-9, 2.7999915e+2
-0.260, -5.3125908e-9, -4.7117861e-9, 2.8033249e+2
-0.259, -5.3079576e-9, -4.7117061e-9, 2.8066583e+2
-0.258, -5.3498952e-9, -4.6778368e-9, 2.8099918e+2
-0.257, -5.5604619e-9, -4.6318247e-9, 2.8133252e+2
-0.256, -5.5860241e-9, -4.6105764e-9, 2.8166586e+2
-0.255, -5.6474527e-9, -4.5920441e-9, 2.8199921e+2
-0.254, -5.7468252e-9, -4.5798223e-9, 2.8233255e+2
-0.253, -5.6928253e-9, -4.5649644e-9, 2.8266589e+2
-0.252, -5.8043397e-9, -4.5179940e-9, 2.8299924e+2
-0.251, -5.9911818e-9, -4.4959467e-9, 2.8333258e+2
-0.250, -5.8610552e-9, -4.4751780e-9, 2.8366592e+2
-0.249, -6.0963852e-9, -4.4364352e-9, 2.8399927e+2
-0.248, -5.9147354e-9, -4.5473105e-9, 2.8433261e+2
-0.247, -6.0967049e-9, -4.4325210e-9, 2.8466595e+2
-0.246, -6.2068612e-9, -4.2823447e-9, 2.8499930e+2
-0.245, -6.2777157e-9, -4.1535757e-9, 2.8533264e+2
-0.244, -6.4046475e-9, -4.1482240e-9, 2.8566599e+2
-0.243, -6.4137535e-9, -4.1461470e-9, 2.8599933e+2
-0.242, -6.4435488e-9, -4.1131560e-9, 2.8633267e+2
-0.241, -6.6496426e-9, -4.1034904e-9, 2.8666602e+2
-0.240, -6.6688939e-9, -4.0470143e-9, 2.8699936e+2
-0.239, -6.6560331e-9, -4.0192156e-9, 2.8733270e+2
-0.238, -6.7997399e-9, -4.0333545e-9, 2.8766605e+2
-0.237, -6.7570829e-9, -4.0028403e-9, 2.8799939e+2
-0.236, -6.8525412e-9, -4.0850381e-9, 2.8833273e+2
-0.235, -6.7023644e-9, -4.1205852e-9, 2.8866608e+2
-0.234, -6.7142665e-9, -4.0316772e-9, 2.8899942e+2
-0.233, -7.0612707e-9, -3.9156896e-9, 2.8933276e+2
-0.232, -7.1366788e-9, -3.8469117e-9, 2.8966611e+2
-0.231, -7.1343624e-9, -3.8542609e-9, 2.8999945e+2
-0.230, -7.2076136e-9, -3.7460222e-9, 2.9033279e+2
-0.229, -7.2232700e-9, -3.7326018e-9, 2.9066614e+2
-0.228, -7.2641693e-9, -3.7124717e-9, 2.9099948e+2
-0.227, -7.3112987e-9, -3.6970544e-9, 2.9133282e+2
-0.226, -7.2692812e-9, -3.7478594e-9, 2.9166617e+2
-0.225, -7.3958932e-9, -3.6725314e-9, 2.9199951e+2
-0.224, -7.4117898e-9, -3.6301140e-9, 2.9233286e+2
-0.223, -7.4126683e-9, -3.6235639e-9, 2.9266620e+2
-0.222, -7.6039042e-9, -3.6225256e-9, 2.9299954e+2
-0.221, -7.5539788e-9, -3.6024754e-9, 2.9333289e+2
-0.220, -7.5801792e-9, -3.6049514e-9, 2.9366623e+2
-0.219, -7.6517530e-9, -3.5943273e-9, 2.9399957e+2
-0.218, -7.6135693e-9, -3.5892949e-9, 2.9433292e+2
-0.217, -7.6683682e-9, -3.5668482e-9, 2.9466626e+2
-0.216, -7.6763564e-9, -3.5654102e-9, 2.9499960e+2
-0.215, -7.6878592e-9, -3.5602183e-9, 2.9533295e+2
-0.214, -7.7123028e-9, -3.5467183e-9, 2.9566629e+2
-0.213, -7.7560776e-9, -3.5412062e-9, 2.9599963e+2
-0.212, -7.7573565e-9, -3.5317005e-9, 2.9633298e+2
-0.211, -7.8534530e-9, -3.5022245e-9, 2.9666632e+2
-0.210, -7.8182252e-9, -3.5150853e-9, 2.9699966e+2
-0.209, -7.9589766e-9, -3.5084551e-9, 2.9733301e+2
-0.208, -7.9261451e-9, -3.5086944e-9, 2.9766635e+2
-0.207, -7.8805327e-9, -3.4844905e-9, 2.9799969e+2
-0.206, -8.0926172e-9, -3.4923990e-9, 2.9833304e+2
-0.205, -8.0462863e-9, -3.4878456e-9, 2.9866638e+2
-0.204, -7.9752720e-9, -3.4846503e-9, 2.9899973e+2
-0.203, -8.1072358e-9, -3.4439109e-9, 2.9933307e+2
-0.202, -8.1371114e-9, -3.4583696e-9, 2.9966641e+2
-0.201, -8.1471763e-9, -3.4413548e-9, 2.9999976e+2
-0.200, -8.1492528e-9, -3.4375207e-9, 3.0033310e+2
-0.199, -8.1746556e-9, -3.4220233e-9, 3.0066644e+2
-0.198, -8.1775307e-9, -3.4199465e-9, 3.0099979e+2
-0.197, -8.2127585e-9, -3.4302514e-9, 3.0133313e+2
-0.196, -8.1878362e-9, -3.3679441e-9, 3.0166647e+2
-0.195, -8.3106935e-9, -3.3213732e-9, 3.0199982e+2
-0.194, -8.2748262e-9, -3.3689027e-9, 3.0233316e+2
-0.193, -8.3487963e-9, -3.3262457e-9, 3.0266650e+2
-0.192, -8.3057401e-9, -3.3688226e-9, 3.0299985e+2
-0.191, -8.2957552e-9, -3.3552428e-9, 3.0333319e+2
-0.190, -8.2991098e-9, -3.3139442e-9, 3.0366653e+2
-0.189, -8.4413792e-9, -3.3466954e-9, 3.0399988e+2
-0.188, -8.5208613e-9, -3.3459764e-9, 3.0433322e+2
-0.187, -8.5617602e-9, -3.3486127e-9, 3.0466656e+2
-0.186, -8.4449736e-9, -3.3407845e-9, 3.0499991e+2
-0.185, -8.4671008e-9, -3.2910183e-9, 3.0533325e+2
-0.184, -8.4857126e-9, -3.2545924e-9, 3.0566660e+2
-0.183, -8.5260536e-9, -3.3549235e-9, 3.0599994e+2
-0.182, -8.4698968e-9, -3.3098702e-9, 3.0633328e+2
-0.181, -8.6043368e-9, -3.3132252e-9, 3.0666663e+2
-0.180, -8.5679108e-9, -3.2641785e-9, 3.0699997e+2
-0.179, -8.6029788e-9, -3.2055454e-9, 3.0733331e+2
-0.178, -8.6021004e-9, -3.2199241e-9, 3.0766666e+2
-0.177, -8.6386054e-9, -3.2438883e-9, 3.0800000e+2
-0.176, -8.6161593e-9, -3.1913265e-9, 3.0833334e+2
-0.175, -8.6292600e-9, -3.2074627e-9, 3.0866669e+2
-0.174, -8.6565795e-9, -3.2197645e-9, 3.0900003e+2
-0.173, -8.6545819e-9, -3.1864540e-9, 3.0933337e+2
-0.172, -8.6414014e-9, -3.2017111e-9, 3.0966672e+2
-0.171, -8.7216021e-9, -3.1957199e-9, 3.1000006e+2
-0.170, -8.6675227e-9, -3.1884506e-9, 3.1033340e+2
-0.169, -8.6758298e-9, -3.1858147e-9, 3.1066675e+2
-0.168, -8.6665635e-9, -3.1779066e-9, 3.1100009e+2
-0.167, -8.6730347e-9, -3.1681608e-9, 3.1133344e+2
-0.166, -8.6593746e-9, -3.2196046e-9, 3.1166678e+2
-0.165, -8.6548217e-9, -3.2057852e-9, 3.1200012e+2
-0.164, -8.7098604e-9, -3.2034684e-9, 3.1233347e+2
-0.163, -8.6922061e-9, -3.2242378e-9, 3.1266681e+2
-0.162, -8.6799838e-9, -3.1943619e-9, 3.1300015e+2
-0.161, -8.7882226e-9, -3.1660841e-9, 3.1333350e+2
-0.160, -8.7641787e-9, -3.1987555e-9, 3.1366684e+2
-0.159, -8.7079428e-9, -3.1556198e-9, 3.1400018e+2
-0.158, -8.8654684e-9, -3.1441965e-9, 3.1433353e+2
-0.157, -8.7684127e-9, -3.1457943e-9, 3.1466687e+2
-0.156, -8.8657881e-9, -3.1564984e-9, 3.1500021e+2
-0.155, -8.8971008e-9, -3.1262235e-9, 3.1533356e+2
-0.154, -8.7523562e-9, -3.1512262e-9, 3.1566690e+2
-0.153, -8.8290424e-9, -3.1605720e-9, 3.1600024e+2
-0.152, -8.9217851e-9, -3.1268623e-9, 3.1633359e+2
-0.151, -8.8709804e-9, -3.0937917e-9, 3.1666693e+2
-0.150, -9.0640535e-9, -3.0998626e-9, 3.1700027e+2
-0.149, -9.0101331e-9, -3.0896377e-9, 3.1733362e+2
-0.148, -9.0753165e-9, -3.0908360e-9, 3.1766696e+2
-0.147, -9.0613375e-9, -3.1150400e-9, 3.1800031e+2
-0.146, -9.0201979e-9, -3.1114451e-9, 3.1833365e+2
-0.145, -9.1460119e-9, -3.1023388e-9, 3.1866699e+2
-0.144, -9.0517513e-9, -3.1224690e-9, 3.1900034e+2
-0.143, -9.0980832e-9, -3.0924336e-9, 3.1933368e+2
-0.142, -9.1492067e-9, -3.0909160e-9, 3.1966702e+2
-0.141, -9.1081480e-9, -3.0959484e-9, 3.2000037e+2
-0.140, -9.1338697e-9, -3.1060932e-9, 3.2033371e+2
-0.139, -9.1832364e-9, -3.0908360e-9, 3.2066705e+2
-0.138, -9.1456922e-9, -3.0963476e-9, 3.2100040e+2
-0.137, -9.1461709e-9, -3.0949898e-9, 3.2133374e+2
-0.136, -9.1893071e-9, -3.0997827e-9, 3.2166708e+2
-0.135, -9.1825969e-9, -3.0803715e-9, 3.2200043e+2
-0.134, -9.2062411e-9, -3.0543301e-9, 3.2233377e+2
-0.133, -9.2138306e-9, -3.0488183e-9, 3.2266711e+2
-0.132, -9.2420285e-9, -3.0547298e-9, 3.2300046e+2
-0.131, -9.2629575e-9, -3.0437859e-9, 3.2333380e+2
-0.130, -9.2665529e-9, -3.0436260e-9, 3.2366714e+2
-0.129, -9.3263832e-9, -3.0339604e-9, 3.2400049e+2
-0.128, -9.3405221e-9, -3.0336411e-9, 3.2433383e+2
-0.127, -9.3543422e-9, -3.0342002e-9, 3.2466718e+2
-0.126, -9.5229709e-9, -3.0346794e-9, 3.2500052e+2
-0.125, -9.4235988e-9, -3.0367562e-9, 3.2533386e+2
-0.124, -9.5303205e-9, -3.0109548e-9, 3.2566721e+2
-0.123, -9.5625117e-9, -3.0254133e-9, 3.2600055e+2
-0.122, -9.5409440e-9, -3.0335612e-9, 3.2633389e+2
-0.121, -9.5904706e-9, -3.0207004e-9, 3.2666724e+2
-0.120, -9.5777688e-9, -3.0195020e-9, 3.2700058e+2
-0.119, -9.5913490e-9, -3.0179044e-9, 3.2733392e+2
-0.118, -9.6026920e-9, -3.0207801e-9, 3.2766727e+2
-0.117, -9.6181099e-9, -3.0028866e-9, 3.2800061e+2
-0.116, -9.6840118e-9, -2.9953777e-9, 3.2833395e+2
-0.115, -9.6699520e-9, -2.9812388e-9, 3.2866730e+2
-0.114, -9.6661186e-9, -2.9861915e-9, 3.2900064e+2
-0.113, -9.7614956e-9, -2.9881086e-9, 3.2933398e+2
-0.112, -9.7565440e-9, -2.9777241e-9, 3.2966733e+2
-0.111, -9.7634141e-9, -2.9780436e-9, 3.3000067e+2
-0.110, -9.9193418e-9, -2.9766856e-9, 3.3033401e+2
-0.109, -9.9008091e-9, -2.9733307e-9, 3.3066736e+2
-0.108, -9.8965760e-9, -2.9631058e-9, 3.3100070e+2
-0.107, -1.0044515e-8, -2.9361860e-9, 3.3133405e+2
-0.106, -1.0037087e-8, -2.9724521e-9, 3.3166739e+2
-0.105, -1.0089648e-8, -2.9217273e-9, 3.3200073e+2
-0.104, -1.0110817e-8, -2.9533602e-9, 3.3233408e+2
-0.103, -1.0125675e-8, -2.9065499e-9, 3.3266742e+2
-0.102, -1.0202919e-8, -2.9159759e-9, 3.3300076e+2
-0.101, -1.0176319e-8, -2.9056710e-9, 3.3333411e+2
-0.100, -1.0285198e-8, -2.8787512e-9, 3.3366745e+2
-0.099, -1.0242461e-8, -2.9322715e-9, 3.3400079e+2
-0.098, -1.0261074e-8, -2.8893754e-9, 3.3433414e+2
-0.097, -1.0414205e-8, -2.8779523e-9, 3.3466748e+2
-0.096, -1.0460857e-8, -2.8858607e-9, 3.3500082e+2
-0.095, -1.0523563e-8, -2.8698843e-9, 3.3533417e+2
-0.094, -1.0548007e-8, -2.8945677e-9, 3.3566751e+2
-0.093, -1.0550643e-8, -2.8550267e-9, 3.3600085e+2
-0.092, -1.0580439e-8, -2.8658904e-9, 3.3633420e+2
-0.091, -1.0593539e-8, -2.8251508e-9, 3.3666754e+2
-0.090, -1.0636755e-8, -2.8037428e-9, 3.3700089e+2
-0.089, -1.0689716e-8, -2.8614169e-9, 3.3733423e+2
-0.088, -1.0678613e-8, -2.8254705e-9, 3.3766757e+2
-0.087, -1.0795239e-8, -2.7769824e-9, 3.3800092e+2
-0.086, -1.0827991e-8, -2.7638820e-9, 3.3833426e+2
-0.085, -1.0924807e-8, -2.7994291e-9, 3.3866760e+2
-0.084, -1.1033205e-8, -2.7763434e-9, 3.3900095e+2
-0.083, -1.1050140e-8, -2.7940772e-9, 3.3933429e+2
-0.082, -1.1092717e-8, -2.7709914e-9, 3.3966763e+2
-0.081, -1.1140486e-8, -2.7398377e-9, 3.4000098e+2
-0.080, -1.1167805e-8, -2.7773821e-9, 3.4033432e+2
-0.079, -1.1201515e-8, -2.7598082e-9, 3.4066766e+2
-0.078, -1.1356485e-8, -2.7114000e-9, 3.4100101e+2
-0.077, -1.1287388e-8, -2.7449503e-9, 3.4133435e+2
-0.076, -1.1446271e-8, -2.7267373e-9, 3.4166769e+2
-0.075, -1.1544845e-8, -2.7205065e-9, 3.4200104e+2
-0.074, -1.1509138e-8, -2.7376810e-9, 3.4233438e+2
-0.073, -1.1585425e-8, -2.7267373e-9, 3.4266772e+2
-0.072, -1.1611227e-8, -2.7387195e-9, 3.4300107e+2
-0.071, -1.1622888e-8, -2.7298526e-9, 3.4333441e+2
-0.070, -1.1677847e-8, -2.7523792e-9, 3.4366776e+2
-0.069, -1.1735921e-8, -2.7532578e-9, 3.4400110e+2
-0.068, -1.1862612e-8, -2.6982196e-9, 3.4433444e+2
-0.067, -1.1990263e-8, -2.7042109e-9, 3.4466779e+2
-0.066, -1.1991301e-8, -2.7140361e-9, 3.4500113e+2
-0.065, -1.2086760e-8, -2.6837612e-9, 3.4533447e+2
-0.064, -1.2093071e-8, -2.6609150e-9, 3.4566782e+2
-0.063, -1.2181019e-8, -2.6539655e-9, 3.4600116e+2
-0.062, -1.2346852e-8, -2.6516489e-9, 3.4633450e+2
-0.061, -1.2320172e-8, -2.6536460e-9, 3.4666785e+2
-0.060, -1.2479775e-8, -2.6513294e-9, 3.4700119e+2
-0.059, -1.2534015e-8, -2.6489329e-9, 3.4733453e+2
-0.058, -1.2525547e-8, -2.6475750e-9, 3.4766788e+2
-0.057, -1.2595523e-8, -2.6477347e-9, 3.4800122e+2
-0.056, -1.2574914e-8, -2.6493323e-9, 3.4833456e+2
-0.055, -1.2665579e-8, -2.6560425e-9, 3.4866791e+2
-0.054, -1.2706158e-8, -2.6330365e-9, 3.4900125e+2
-0.053, -1.2715025e-8, -2.6350337e-9, 3.4933459e+2
-0.052, -1.3006352e-8, -2.6323175e-9, 3.4966794e+2
-0.051, -1.3032634e-8, -2.6286431e-9, 3.5000128e+2
-0.050, -1.3041739e-8, -2.6191374e-9, 3.5033463e+2
-0.049, -1.3113633e-8, -2.6261666e-9, 3.5066797e+2
-0.048, -1.3136638e-8, -2.6199360e-9, 3.5100131e+2
-0.047, -1.3160123e-8, -2.6220131e-9, 3.5133466e+2
-0.046, -1.3320285e-8, -2.6303206e-9, 3.5166800e+2
-0.045, -1.3224907e-8, -2.6071552e-9, 3.5200134e+2
-0.044, -1.3373406e-8, -2.6137053e-9, 3.5233469e+2
-0.043, -1.3513997e-8, -2.6106699e-9, 3.5266803e+2
-0.042, -1.3518630e-8, -2.5955722e-9, 3.5300137e+2
-0.041, -1.3545232e-8, -2.5982083e-9, 3.5333472e+2
-0.040, -1.3571751e-8, -2.6144242e-9, 3.5366806e+2
-0.039, -1.3617444e-8, -2.5891020e-9, 3.5400140e+2
-0.038, -1.3623993e-8, -2.6010043e-9, 3.5433475e+2
-0.037, -1.3720491e-8, -2.5958120e-9, 3.5466809e+2
-0.036, -1.3932735e-8, -2.6027616e-9, 3.5500143e+2
-0.035, -1.3909330e-8, -2.5934954e-9, 3.5533478e+2
-0.034, -1.3981142e-8, -2.5725664e-9, 3.5566812e+2
-0.033, -1.4061903e-8, -2.5740843e-9, 3.5600146e+2
-0.032, -1.4034264e-8, -2.5910989e-9, 3.5633481e+2
-0.031, -1.4103441e-8, -2.5640992e-9, 3.5666815e+2
-0.030, -1.4161595e-8, -2.5807143e-9, 3.5700150e+2
-0.029, -1.4216393e-8, -2.5771196e-9, 3.5733484e+2
-0.028, -1.4228934e-8, -2.5682527e-9, 3.5766818e+2
-0.027, -1.4410505e-8, -2.5804747e-9, 3.5800153e+2
-0.026, -1.4391732e-8, -2.5684925e-9, 3.5833487e+2
-0.025, -1.4485833e-8, -2.5610636e-9, 3.5866821e+2
-0.024, -1.4499731e-8, -2.5512381e-9, 3.5900156e+2
-0.023, -1.4505643e-8, -2.5689717e-9, 3.5933490e+2
-0.022, -1.4517705e-8, -2.5638593e-9, 3.5966824e+2
-0.021, -1.4524655e-8, -2.5407738e-9, 3.6000159e+2
-0.020, -1.4610768e-8, -2.5565903e-9, 3.6033493e+2
-0.019, -1.4608291e-8, -2.5445281e-9, 3.6066827e+2
-0.018, -1.4632735e-8, -2.5363005e-9, 3.6100162e+2
-0.017, -1.4755911e-8, -2.5392561e-9, 3.6133496e+2
-0.016, -1.4684018e-8, -2.5324660e-9, 3.6166830e+2
-0.015, -1.4810950e-8, -2.5137739e-9, 3.6200165e+2
-0.014, -1.4956413e-8, -2.5154512e-9, 3.6233499e+2
-0.013, -1.4918710e-8, -2.5400548e-9, 3.6266833e+2
-0.012, -1.4917831e-8, -2.5534748e-9, 3.6300168e+2
-0.011, -1.5002026e-8, -2.5204840e-9, 3.6333502e+2
-0.010, -1.4988684e-8, -2.5142533e-9, 3.6366837e+2
-0.009, -1.5004662e-8, -2.5223210e-9, 3.6400171e+2
-0.008, -1.5017683e-8, -2.5152118e-9, 3.6433505e+2
-0.007, -1.5051951e-8, -2.5040283e-9, 3.6466840e+2
-0.006, -1.5069444e-8, -2.4994751e-9, 3.6500174e+2
-0.005, -1.5056745e-8, -2.4961202e-9, 3.6533508e+2
-0.004, -1.5120170e-8, -2.5059455e-9, 3.6566843e+2
-0.003, -1.5100518e-8, -2.4938036e-9, 3.6600177e+2
-0.002, -1.5104831e-8, -2.4572977e-9, 3.6633511e+2
-0.001, -1.5216827e-8, -2.4673628e-9, 3.6666846e+2
-0.000, -1.5210993e-8, -2.4827000e-9, 3.6700180e+2
0.001, -1.5153638e-8, -2.4893303e-9, 3.6733514e+2
0.002, -1.5319074e-8, -2.4901290e-9, 3.6766849e+2
0.003, -1.5200051e-8, -2.4664841e-9, 3.6800183e+2
0.004, -1.5373633e-8, -2.4706381e-9, 3.6833517e+2
0.005, -1.5424037e-8, -2.4476321e-9, 3.6866852e+2
0.006, -1.5392724e-8, -2.4472329e-9, 3.6900186e+2
0.007, -1.5450878e-8, -2.4403630e-9, 3.6933521e+2
0.008, -1.5455351e-8, -2.4792650e-9, 3.6966855e+2
0.009, -1.5485387e-8, -2.4207920e-9, 3.7000189e+2
0.010, -1.5494813e-8, -2.4275022e-9, 3.7033524e+2
0.011, -1.5521413e-8, -2.4020999e-9, 3.7066858e+2
0.012, -1.5559356e-8, -2.4163986e-9, 3.7100192e+2
0.013, -1.5521653e-8, -2.4551410e-9, 3.7133527e+2
0.014, -1.5562392e-8, -2.3987448e-9, 3.7166861e+2
0.015, -1.5757301e-8, -2.3574462e-9, 3.7200195e+2
0.016, -1.5708416e-8, -2.3549698e-9, 3.7233530e+2
0.017, -1.5777832e-8, -2.3608810e-9, 3.7266864e+2
0.018, -1.5953649e-8, -2.3625586e-9, 3.7300198e+2
0.019, -1.5952132e-8, -2.3580053e-9, 3.7333533e+2
0.020, -1.5960122e-8, -2.3618396e-9, 3.7366867e+2
0.021, -1.6052065e-8, -2.3391533e-9, 3.7400201e+2
0.022, -1.6046313e-8, -2.3140709e-9, 3.7433536e+2
0.023, -1.6117328e-8, -2.3163873e-9, 3.7466870e+2
0.024, -1.6232276e-8, -2.3363576e-9, 3.7500204e+2
0.025, -1.6355374e-8, -2.3179849e-9, 3.7533539e+2
0.026, -1.6406737e-8, -2.3245352e-9, 3.7566873e+2
0.027, -1.6442364e-8, -2.3044051e-9, 3.7600208e+2
0.028, -1.6485899e-8, -2.2823581e-9, 3.7633542e+2
0.029, -1.6514976e-8, -2.3463429e-9, 3.7666876e+2
0.030, -1.6584073e-8, -2.2834763e-9, 3.7700211e+2
0.031, -1.6730734e-8, -2.2583935e-9, 3.7733545e+2
0.032, -1.6885865e-8, -2.2406599e-9, 3.7766879e+2
0.033, -1.6923888e-8, -2.2433757e-9, 3.7800214e+2
0.034, -1.7049141e-8, -2.2424174e-9, 3.7833548e+2
0.035, -1.7078140e-8, -2.2601510e-9, 3.7866882e+2
0.036, -1.7189812e-8, -2.2670208e-9, 3.7900217e+2
0.037, -1.7373459e-8, -2.2313935e-9, 3.7933551e+2
0.038, -1.7406531e-8, -2.2231659e-9, 3.7966885e+2
0.039, -1.7445272e-8, -2.2038347e-9, 3.8000220e+2
0.040, -1.7532663e-8, -2.2367457e-9, 3.8033554e+2
0.041, -1.7658955e-8, -2.2065505e-9, 3.8066888e+2
0.042, -1.7751457e-8, -2.1926514e-9, 3.8100223e+2
0.043, -1.7885418e-8, -2.2002400e-9, 3.8133557e+2
0.044, -1.7986308e-8, -2.1921720e-9, 3.8166891e+2
0.045, -1.8110763e-8, -2.2136601e-9, 3.8200226e+2
0.046, -1.8137523e-8, -2.1872193e-9, 3.8233560e+2
0.047, -1.8414552e-8, -2.1769946e-9, 3.8266895e+2
0.048, -1.8465757e-8, -2.1628555e-9, 3.8300229e+2
0.049, -1.8509530e-8, -2.1797106e-9, 3.8333563e+2
0.050, -1.8801735e-8, -2.1706041e-9, 3.8366898e+2
0.051, -1.8852461e-8, -2.1657311e-9, 3.8400232e+2
0.052, -1.8958863e-8, -2.1587816e-9, 3.8433566e+2
0.053, -1.9075808e-8, -2.1538289e-9, 3.8466901e+2
0.054, -1.9264407e-8, -2.1689266e-9, 3.8500235e+2
0.055, -1.9389663e-8, -2.1573439e-9, 3.8533569e+2
0.056, -1.9510443e-8, -2.1439237e-9, 3.8566904e+2
0.057, -1.9707031e-8, -2.1536692e-9, 3.8600238e+2
0.058, -1.9843547e-8, -2.1404889e-9, 3.8633572e+2
0.059, -1.9963210e-8, -2.1388114e-9, 3.8666907e+2
0.060, -2.0197900e-8, -2.1343380e-9, 3.8700241e+2
0.061, -2.0322835e-8, -2.1394504e-9, 3.8733575e+2
0.062, -2.0382986e-8, -2.1354565e-9, 3.8766910e+2
0.063, -2.0592354e-8, -2.1201192e-9, 3.8800244e+2
0.064, -2.0696280e-8, -2.1323410e-9, 3.8833578e+2
0.065, -2.0898618e-8, -2.1340982e-9, 3.8866913e+2
0.066, -2.1064931e-8, -2.1281072e-9, 3.8900247e+2
0.067, -2.1224455e-8, -2.1225155e-9, 3.8933582e+2
0.068, -2.1400433e-8, -2.1185214e-9, 3.8966916e+2
0.069, -2.1558277e-8, -2.1248321e-9, 3.9000250e+2
0.070, -2.1784341e-8, -2.1170836e-9, 3.9033585e+2
0.071, -2.1938112e-8, -2.1203588e-9, 3.9066919e+2
0.072, -2.2060171e-8, -2.1102937e-9, 3.9100253e+2
0.073, -2.2320744e-8, -2.1083766e-9, 3.9133588e+2
0.074, -2.2388324e-8, -2.1182021e-9, 3.9166922e+2
0.075, -2.2591701e-8, -2.0842525e-9, 3.9200256e+2
0.076, -2.2858984e-8, -2.0934388e-9, 3.9233591e+2
0.077, -2.2955879e-8, -2.0935187e-9, 3.9266925e+2
0.078, -2.3051019e-8, -2.0832140e-9, 3.9300259e+2
0.079, -2.3358243e-8, -2.0896045e-9, 3.9333594e+2
0.080, -2.3418073e-8, -2.0872082e-9, 3.9366928e+2
0.081, -2.3720583e-8, -2.0814566e-9, 3.9400262e+2
0.082, -2.3899197e-8, -2.0773028e-9, 3.9433597e+2
0.083, -2.4042585e-8, -2.0698738e-9, 3.9466931e+2
0.084, -2.4239013e-8, -2.0498236e-9, 3.9500266e+2
0.085, -2.4404207e-8, -2.0748265e-9, 3.9533600e+2
0.086, -2.4433444e-8, -2.0459892e-9, 3.9566934e+2
0.087, -2.4738510e-8, -2.0741076e-9, 3.9600269e+2
0.088, -2.4846829e-8, -2.0418356e-9, 3.9633603e+2
0.089, -2.4988537e-8, -2.0511814e-9, 3.9666937e+2
0.090, -2.5202779e-8, -2.0508621e-9, 3.9700272e+2
0.091, -2.5290808e-8, -2.0523798e-9, 3.9733606e+2
0.092, -2.5442663e-8, -2.0452704e-9, 3.9766940e+2
0.093, -2.5637492e-8, -2.0491846e-9, 3.9800275e+2
0.094, -2.5761629e-8, -2.0350457e-9, 3.9833609e+2
0.095, -2.5988893e-8, -2.0404776e-9, 3.9866943e+2
0.096, -2.5968600e-8, -2.0454300e-9, 3.9900278e+2
0.097, -2.6141224e-8, -2.0331283e-9, 3.9933612e+2
0.098, -2.6345081e-8, -2.0237825e-9, 3.9966946e+2
0.099, -2.6316243e-8, -2.0211461e-9, 4.0000281e+2
