Dec. 21, 2005   02:36:04
Cyclic Voltammetry
File: d:\ida_biofilms\12_10_18_dphzstar\a_760b\50um_pyo\a_50um_pyo_gc_2.txt
Data Source:  Experiment
Instrument Model:  CHI760E
Header: 
Note: 

Init E (V) = 0.1
High E (V) = 0.1
Low E (V) = -0.5
Init P/N = N
Scan Rate (V/s) = 0.003
Segment = 1
Sample Interval (V) = 0.001
Quiet Time (sec) = 2
Sensitivity (A/V) = 1e-7
2nd E (V) = 0.1
Sens 2 (A/V) = 1e-7

Potential/V, i1/A, i2/A, Time/s

0.100, -1.0718881e-7, -8.8579576e-8, 3.3333334e-1
0.099, -8.8195364e-8, -7.9507466e-8, 6.6666669e-1
0.098, -7.6206156e-8, -7.2308808e-8, 1.0000000e+0
0.097, -6.7162318e-8, -6.6513586e-8, 1.3333334e+0
0.096, -6.0198275e-8, -6.1702970e-8, 1.6666667e+0
0.095, -5.4461438e-8, -5.7701488e-8, 2.0000000e+0
0.094, -4.9510241e-8, -5.4190309e-8, 2.3333333e+0
0.093, -4.5545416e-8, -5.1167120e-8, 2.6666665e+0
0.092, -4.2003084e-8, -4.8435581e-8, 2.9999998e+0
0.091, -3.8802963e-8, -4.6066383e-8, 3.3333330e+0
0.090, -3.6183014e-8, -4.3902482e-8, 3.6666663e+0
0.089, -3.3676660e-8, -4.1954735e-8, 3.9999995e+0
0.088, -3.1376000e-8, -4.0154450e-8, 4.3333330e+0
0.087, -2.9377613e-8, -3.8568093e-8, 4.6666665e+0
0.086, -2.7696112e-8, -3.7048352e-8, 5.0000000e+0
0.085, -2.6026994e-8, -3.5766575e-8, 5.3333335e+0
0.084, -2.4462201e-8, -3.4491752e-8, 5.6666670e+0
0.083, -2.3031847e-8, -3.3363829e-8, 6.0000005e+0
0.082, -2.1804153e-8, -3.2325854e-8, 6.3333340e+0
0.081, -2.0487310e-8, -3.1383252e-8, 6.6666675e+0
0.080, -1.9442863e-8, -3.0485467e-8, 7.0000010e+0
0.079, -1.8497389e-8, -2.9615162e-8, 7.3333344e+0
0.078, -1.7426739e-8, -2.8887845e-8, 7.6666679e+0
0.077, -1.6563064e-8, -2.8102610e-8, 8.0000010e+0
0.076, -1.5690761e-8, -2.7260262e-8, 8.3333340e+0
0.075, -1.4837469e-8, -2.6651648e-8, 8.6666670e+0
0.074, -1.4192190e-8, -2.6082335e-8, 9.0000000e+0
0.073, -1.3499140e-8, -2.5539780e-8, 9.3333330e+0
0.072, -1.2677880e-8, -2.5000023e-8, 9.6666660e+0
0.071, -1.2101856e-8, -2.4491978e-8, 9.9999990e+0
0.070, -1.1542528e-8, -2.4046400e-8, 1.0333332e+1
0.069, -1.0962191e-8, -2.3587484e-8, 1.0666665e+1
0.068, -1.0326177e-8, -2.3116264e-8, 1.0999998e+1
0.067, -9.8284367e-9, -2.2719334e-8, 1.1333331e+1
0.066, -9.3667234e-9, -2.2247795e-8, 1.1666664e+1
0.065, -8.7581880e-9, -2.2040583e-8, 1.1999997e+1
0.064, -8.4711749e-9, -2.1622165e-8, 1.2333330e+1
0.063, -8.0339042e-9, -2.1265416e-8, 1.2666663e+1
0.062, -7.5718720e-9, -2.1023375e-8, 1.2999996e+1
0.061, -7.2202346e-9, -2.0674294e-8, 1.3333329e+1
0.060, -6.7605979e-9, -2.0280480e-8, 1.3666662e+1
0.059, -6.3704579e-9, -2.0102984e-8, 1.3999995e+1
0.058, -6.0929506e-9, -1.9757339e-8, 1.4333328e+1
0.057, -5.7039289e-9, -1.9505951e-8, 1.4666661e+1
0.056, -5.3647531e-9, -1.9254966e-8, 1.4999994e+1
0.055, -5.1504316e-9, -1.9009809e-8, 1.5333327e+1
0.054, -4.7956790e-9, -1.8768167e-8, 1.5666660e+1
0.053, -4.5363846e-9, -1.8593468e-8, 1.5999993e+1
0.052, -4.2192561e-9, -1.8303579e-8, 1.6333326e+1
0.051, -3.8347876e-9, -1.8164744e-8, 1.6666660e+1
0.050, -3.7323797e-9, -1.7865990e-8, 1.6999994e+1
0.049, -3.3643670e-9, -1.7742492e-8, 1.7333328e+1
0.048, -3.2602021e-9, -1.7539435e-8, 1.7666662e+1
0.047, -2.9774223e-9, -1.7325673e-8, 1.7999996e+1
0.046, -2.7047877e-9, -1.7218952e-8, 1.8333330e+1
0.045, -2.5689895e-9, -1.6963972e-8, 1.8666664e+1
0.044, -2.2649613e-9, -1.6828253e-8, 1.8999998e+1
0.043, -1.9354516e-9, -1.6720572e-8, 1.9333332e+1
0.042, -1.8553306e-9, -1.6494509e-8, 1.9666666e+1
0.041, -1.6741598e-9, -1.6338580e-8, 2.0000000e+1
0.040, -1.3031115e-9, -1.6255184e-8, 2.0333334e+1
0.039, -1.3026322e-9, -1.6064028e-8, 2.0666668e+1
0.038, -1.0679412e-9, -1.5901710e-8, 2.1000002e+1
0.037, -8.5481799e-10, -1.5815917e-8, 2.1333336e+1
0.036, -7.6359363e-10, -1.5717184e-8, 2.1666670e+1
0.035, -5.5318644e-10, -1.5563733e-8, 2.2000004e+1
0.034, -4.2633502e-10, -1.5395182e-8, 2.2333338e+1
0.033, -2.7719677e-10, -1.5323291e-8, 2.2666672e+1
0.032, -1.2494313e-10, -1.5237257e-8, 2.3000006e+1
0.031, 5.5189072e-11, -1.5086281e-8, 2.3333340e+1
0.030, 1.8851086e-10, -1.4924122e-8, 2.3666674e+1
0.029, 3.2454861e-10, -1.4851591e-8, 2.4000008e+1
0.028, 4.3750065e-10, -1.4793279e-8, 2.4333342e+1
0.027, 6.8712958e-10, -1.4676091e-8, 2.4666676e+1
0.026, 7.0654071e-10, -1.4533184e-8, 2.5000010e+1
0.025, 8.4169971e-10, -1.4403618e-8, 2.5333344e+1
0.024, 1.0254266e-9, -1.4376778e-8, 2.5666677e+1
0.023, 1.1374200e-9, -1.4307040e-8, 2.6000011e+1
0.022, 1.1966920e-9, -1.4192970e-8, 2.6333345e+1
0.021, 1.3700343e-9, -1.4092559e-8, 2.6666679e+1
0.020, 1.5292375e-9, -1.3932797e-8, 2.7000013e+1
0.019, 1.6359588e-9, -1.3875522e-8, 2.7333347e+1
0.018, 1.6561689e-9, -1.3832146e-8, 2.7666681e+1
0.017, 1.8148130e-9, -1.3770477e-8, 2.8000015e+1
0.016, 1.8440495e-9, -1.3688759e-8, 2.8333349e+1
0.015, 2.0304125e-9, -1.3579562e-8, 2.8666683e+1
0.014, 2.1559059e-9, -1.3463815e-8, 2.9000017e+1
0.013, 2.1745183e-9, -1.3413408e-8, 2.9333351e+1
0.012, 2.2627071e-9, -1.3366360e-8, 2.9666685e+1
0.011, 2.5374187e-9, -1.3325140e-8, 3.0000019e+1
0.010, 2.6084332e-9, -1.3289912e-8, 3.0333353e+1
0.009, 2.6244094e-9, -1.3212028e-8, 3.0666687e+1
0.008, 2.7590892e-9, -1.3065286e-8, 3.1000021e+1
0.007, 2.7717104e-9, -1.2955371e-8, 3.1333355e+1
0.006, 2.8804288e-9, -1.2920782e-8, 3.1666689e+1
0.005, 2.9933009e-9, -1.2899933e-8, 3.2000023e+1
0.004, 3.1243061e-9, -1.2858234e-8, 3.2333355e+1
0.003, 3.1591345e-9, -1.2809827e-8, 3.2666687e+1
0.002, 3.1951606e-9, -1.2775478e-8, 3.3000019e+1
0.001, 3.4652394e-9, -1.2720520e-8, 3.3333351e+1
-0.000, 3.4802572e-9, -1.2598062e-8, 3.3666683e+1
-0.001, 3.5677270e-9, -1.2498130e-8, 3.4000015e+1
-0.002, 3.6407386e-9, -1.2447166e-8, 3.4333347e+1
-0.003, 3.6454515e-9, -1.2428474e-8, 3.4666679e+1
-0.004, 3.6899452e-9, -1.2383261e-8, 3.5000011e+1
-0.005, 4.0256061e-9, -1.2364329e-8, 3.5333344e+1
-0.006, 3.9949315e-9, -1.2317439e-8, 3.5666676e+1
-0.007, 4.0639492e-9, -1.2267433e-8, 3.6000008e+1
-0.008, 4.0971000e-9, -1.2222300e-8, 3.6333340e+1
-0.009, 4.1765018e-9, -1.2157596e-8, 3.6666672e+1
-0.010, 4.2296229e-9, -1.2041129e-8, 3.7000004e+1
-0.011, 4.4122315e-9, -1.1978343e-8, 3.7333336e+1
-0.012, 4.5076898e-9, -1.1943833e-8, 3.7666668e+1
-0.013, 4.5445945e-9, -1.1928496e-8, 3.8000000e+1
-0.014, 4.5741508e-9, -1.1890394e-8, 3.8333332e+1
-0.015, 4.6292685e-9, -1.1859080e-8, 3.8666664e+1
-0.016, 4.6700879e-9, -1.1838311e-8, 3.8999996e+1
-0.017, 4.7063540e-9, -1.1785748e-8, 3.9333328e+1
-0.018, 4.9694830e-9, -1.1754834e-8, 3.9666660e+1
-0.019, 4.9444804e-9, -1.1677909e-8, 3.9999992e+1
-0.020, 4.9883346e-9, -1.1632537e-8, 4.0333324e+1
-0.021, 5.0961746e-9, -1.1551218e-8, 4.0666656e+1
-0.022, 5.1004081e-9, -1.1486914e-8, 4.0999989e+1
-0.023, 5.1585620e-9, -1.1459354e-8, 4.1333321e+1
-0.024, 5.2871703e-9, -1.1442260e-8, 4.1666653e+1
-0.025, 5.2245439e-9, -1.1425406e-8, 4.1999985e+1
-0.026, 5.3737619e-9, -1.1397047e-8, 4.2333317e+1
-0.027, 5.4586757e-9, -1.1370286e-8, 4.2666649e+1
-0.028, 5.5229004e-9, -1.1345843e-8, 4.2999981e+1
-0.029, 5.5579683e-9, -1.1327151e-8, 4.3333313e+1
-0.030, 5.5841687e-9, -1.1314690e-8, 4.3666645e+1
-0.031, 5.6215534e-9, -1.1275707e-8, 4.3999977e+1
-0.032, 5.6474350e-9, -1.1226740e-8, 4.4333309e+1
-0.033, 5.6855387e-9, -1.1185522e-8, 4.4666641e+1
-0.034, 5.8448215e-9, -1.1147338e-8, 4.4999973e+1
-0.035, 5.8397891e-9, -1.1029513e-8, 4.5333305e+1
-0.036, 5.8877974e-9, -1.1021206e-8, 4.5666637e+1
-0.037, 6.0621783e-9, -1.0996203e-8, 4.5999969e+1
-0.038, 5.9933210e-9, -1.0957541e-8, 4.6333302e+1
-0.039, 6.0485985e-9, -1.0966088e-8, 4.6666634e+1
-0.040, 6.0979648e-9, -1.0936292e-8, 4.6999966e+1
-0.041, 6.0736816e-9, -1.0915683e-8, 4.7333298e+1
-0.042, 6.1502075e-9, -1.0893156e-8, 4.7666630e+1
-0.043, 6.1331127e-9, -1.0880536e-8, 4.7999962e+1
-0.044, 6.2683516e-9, -1.0860325e-8, 4.8333294e+1
-0.045, 6.3299401e-9, -1.0856811e-8, 4.8666626e+1
-0.046, 6.2759407e-9, -1.0832207e-8, 4.8999958e+1
-0.047, 6.4514398e-9, -1.0824139e-8, 4.9333290e+1
-0.048, 6.4733268e-9, -1.0785077e-8, 4.9666622e+1
-0.049, 6.5074364e-9, -1.0730678e-8, 4.9999954e+1
-0.050, 6.5291643e-9, -1.0764228e-8, 5.0333286e+1
-0.051, 6.5750956e-9, -1.0718695e-8, 5.0666618e+1
-0.052, 6.5625541e-9, -1.0634102e-8, 5.0999950e+1
-0.053, 6.6329302e-9, -1.0583217e-8, 5.1333282e+1
-0.054, 6.6177526e-9, -1.0579383e-8, 5.1666615e+1
-0.055, 6.6580124e-9, -1.0514119e-8, 5.1999947e+1
-0.056, 6.7338997e-9, -1.0527540e-8, 5.2333279e+1
-0.057, 6.6982726e-9, -1.0466350e-8, 5.2666611e+1
-0.058, 6.7156072e-9, -1.0494869e-8, 5.2999943e+1
-0.059, 6.7888579e-9, -1.0469706e-8, 5.3333275e+1
-0.060, 6.7727215e-9, -1.0447099e-8, 5.3666607e+1
-0.061, 6.8633073e-9, -1.0424094e-8, 5.3999939e+1
-0.062, 6.8437362e-9, -1.0410034e-8, 5.4333271e+1
-0.063, 6.9384756e-9, -1.0415786e-8, 5.4666603e+1
-0.064, 7.0003034e-9, -1.0383194e-8, 5.4999935e+1
-0.065, 6.9535733e-9, -1.0361946e-8, 5.5333267e+1
-0.066, 7.0660460e-9, -1.0342535e-8, 5.5666599e+1
-0.067, 7.0254660e-9, -1.0350683e-8, 5.5999931e+1
-0.068, 7.0630901e-9, -1.0283983e-8, 5.6333263e+1
-0.069, 7.0797852e-9, -1.0305789e-8, 5.6666595e+1
-0.070, 7.0392057e-9, -1.0299240e-8, 5.6999928e+1
-0.071, 7.0883326e-9, -1.0252109e-8, 5.7333260e+1
-0.072, 7.0881732e-9, -1.0236691e-8, 5.7666592e+1
-0.073, 7.0839392e-9, -1.0169592e-8, 5.7999924e+1
-0.074, 7.0879334e-9, -1.0158248e-8, 5.8333256e+1
-0.075, 7.1167707e-9, -1.0134125e-8, 5.8666588e+1
-0.076, 7.2101520e-9, -1.0111039e-8, 5.8999920e+1
-0.077, 7.2432229e-9, -1.0111199e-8, 5.9333252e+1
-0.078, 7.2421047e-9, -1.0053204e-8, 5.9666584e+1
-0.079, 7.4053816e-9, -1.0029959e-8, 5.9999916e+1
-0.080, 7.2490538e-9, -9.9922550e-9, 6.0333248e+1
-0.081, 7.3442719e-9, -1.0000163e-8, 6.0666580e+1
-0.082, 7.4416473e-9, -9.9909778e-9, 6.0999912e+1
-0.083, 7.4543482e-9, -9.9821102e-9, 6.1333244e+1
-0.084, 7.3903634e-9, -9.9746016e-9, 6.1666576e+1
-0.085, 7.5056326e-9, -9.9485611e-9, 6.1999908e+1
-0.086, 7.4816686e-9, -9.9459250e-9, 6.2333241e+1
-0.087, 7.4888575e-9, -9.9252349e-9, 6.2666573e+1
-0.088, 7.5174551e-9, -9.9218003e-9, 6.2999905e+1
-0.089, 7.5125826e-9, -9.9159685e-9, 6.3333237e+1
-0.090, 7.4485973e-9, -9.8866524e-9, 6.3666569e+1
-0.091, 7.5579552e-9, -9.8928830e-9, 6.3999901e+1
-0.092, 7.4990822e-9, -9.8703561e-9, 6.4333237e+1
-0.093, 7.5431767e-9, -9.8694777e-9, 6.4666573e+1
-0.094, 7.5617095e-9, -9.8737116e-9, 6.4999908e+1
-0.095, 7.6000521e-9, -9.8534221e-9, 6.5333244e+1
-0.096, 7.6280102e-9, -9.8227471e-9, 6.5666580e+1
-0.097, 7.5758484e-9, -9.8021378e-9, 6.5999916e+1
-0.098, 7.6999838e-9, -9.8033359e-9, 6.6333252e+1
-0.099, 7.6020488e-9, -9.7815294e-9, 6.6666588e+1
-0.100, 7.6724245e-9, -9.7658717e-9, 6.6999924e+1
-0.101, 7.8024707e-9, -9.7633164e-9, 6.7333260e+1
-0.102, 7.7749913e-9, -9.7200994e-9, 6.7666595e+1
-0.103, 7.8544735e-9, -9.6869490e-9, 6.7999931e+1
-0.104, 7.9028819e-9, -9.6315116e-9, 6.8333267e+1
-0.105, 7.8407343e-9, -9.6307131e-9, 6.8666603e+1
-0.106, 7.9543252e-9, -9.6291952e-9, 6.8999939e+1
-0.107, 7.8313080e-9, -9.5644115e-9, 6.9333275e+1
-0.108, 7.9262872e-9, -9.5566630e-9, 6.9666611e+1
-0.109, 7.9973814e-9, -9.5410062e-9, 6.9999947e+1
-0.110, 7.9534468e-9, -9.5350954e-9, 7.0333282e+1
-0.111, 7.9996978e-9, -9.5208765e-9, 7.0666618e+1
-0.112, 7.9882749e-9, -9.5141663e-9, 7.0999954e+1
-0.113, 7.9746947e-9, -9.5117700e-9, 7.1333290e+1
-0.114, 8.0235827e-9, -9.5031423e-9, 7.1666626e+1
-0.115, 8.0368423e-9, -9.4996286e-9, 7.1999962e+1
-0.116, 8.0350855e-9, -9.4951549e-9, 7.2333298e+1
-0.117, 8.1049816e-9, -9.4972314e-9, 7.2666634e+1
-0.118, 8.0496241e-9, -9.4910808e-9, 7.2999969e+1
-0.119, 8.0668778e-9, -9.4692734e-9, 7.3333305e+1
-0.120, 8.2083478e-9, -9.4794972e-9, 7.3666641e+1
-0.121, 8.0644016e-9, -9.4613650e-9, 7.3999977e+1
-0.122, 8.1676879e-9, -9.4724690e-9, 7.4333313e+1
-0.123, 8.1914129e-9, -9.4494625e-9, 7.4666649e+1
-0.124, 8.1842240e-9, -9.4509804e-9, 7.4999985e+1
-0.125, 8.2177740e-9, -9.4420338e-9, 7.5333321e+1
-0.126, 8.2756078e-9, -9.4505008e-9, 7.5666656e+1
-0.127, 8.4540623e-9, -9.4282147e-9, 7.5999992e+1
-0.128, 8.4134024e-9, -9.4276551e-9, 7.6333328e+1
-0.129, 8.2847142e-9, -9.4246193e-9, 7.6666664e+1
-0.130, 8.4939229e-9, -9.4068060e-9, 7.7000000e+1
-0.131, 8.4376861e-9, -9.4110391e-9, 7.7333336e+1
-0.132, 8.4512664e-9, -9.3848387e-9, 7.7666672e+1
-0.133, 8.4991951e-9, -9.3921075e-9, 7.8000008e+1
-0.134, 8.4720355e-9, -9.3900310e-9, 7.8333344e+1
-0.135, 8.5163698e-9, -9.3690220e-9, 7.8666679e+1
-0.136, 8.5424912e-9, -9.3691819e-9, 7.9000015e+1
-0.137, 8.5138137e-9, -9.3619121e-9, 7.9333351e+1
-0.138, 8.5318659e-9, -9.3457766e-9, 7.9666687e+1
-0.139, 8.5707690e-9, -9.3650279e-9, 8.0000023e+1
-0.140, 8.5638190e-9, -9.3495309e-9, 8.0333359e+1
-0.141, 8.6130258e-9, -9.3481729e-9, 8.0666695e+1
-0.142, 8.6293213e-9, -9.3544035e-9, 8.1000031e+1
-0.143, 8.6941858e-9, -9.3071142e-9, 8.1333366e+1
-0.144, 8.6868361e-9, -9.3430605e-9, 8.1666702e+1
-0.145, 8.6582386e-9, -9.2984074e-9, 8.2000038e+1
-0.146, 8.8890157e-9, -9.3013623e-9, 8.2333374e+1
-0.147, 8.7727887e-9, -9.2888213e-9, 8.2666710e+1
-0.148, 8.8708827e-9, -9.2823509e-9, 8.3000046e+1
-0.149, 8.9502841e-9, -9.2781169e-9, 8.3333382e+1
-0.150, 8.9355066e-9, -9.2903392e-9, 8.3666718e+1
-0.151, 8.9577128e-9, -9.2417709e-9, 8.4000053e+1
-0.152, 8.9690566e-9, -9.2386561e-9, 8.4333389e+1
-0.153, 8.9881480e-9, -9.2200434e-9, 8.4666725e+1
-0.154, 8.9852730e-9, -9.2251566e-9, 8.5000061e+1
-0.155, 9.0220178e-9, -9.2199643e-9, 8.5333397e+1
-0.156, 9.0290477e-9, -9.2217212e-9, 8.5666733e+1
-0.157, 9.0491774e-9, -9.1823393e-9, 8.6000069e+1
-0.158, 9.1139611e-9, -9.1783461e-9, 8.6333405e+1
-0.159, 9.2159693e-9, -9.1864933e-9, 8.6666740e+1
-0.160, 9.2195647e-9, -9.1978363e-9, 8.7000076e+1
-0.161, 9.2247561e-9, -9.1597334e-9, 8.7333412e+1
-0.162, 9.4221431e-9, -9.1531032e-9, 8.7666748e+1
-0.163, 9.3579189e-9, -9.1573362e-9, 8.8000084e+1
-0.164, 9.3627115e-9, -9.1246655e-9, 8.8333420e+1
-0.165, 9.4986694e-9, -9.1315355e-9, 8.8666756e+1
-0.166, 9.4829327e-9, -9.1302566e-9, 8.9000092e+1
-0.167, 9.4974713e-9, -9.1357686e-9, 8.9333427e+1
-0.168, 9.5441219e-9, -9.1054142e-9, 8.9666763e+1
-0.169, 9.5227932e-9, -9.1128429e-9, 9.0000099e+1
-0.170, 9.6128199e-9, -9.0980654e-9, 9.0333435e+1
-0.171, 9.6111421e-9, -9.0782546e-9, 9.0666771e+1
-0.172, 9.7059605e-9, -9.0836068e-9, 9.1000107e+1
-0.173, 9.8820996e-9, -9.1082892e-9, 9.1333443e+1
-0.174, 9.8181143e-9, -9.0899173e-9, 9.1666779e+1
-0.175, 9.9601438e-9, -9.0919947e-9, 9.2000114e+1
-0.176, 9.9644568e-9, -9.0792129e-9, 9.2333450e+1
-0.177, 9.9733235e-9, -9.0689882e-9, 9.2666786e+1
-0.178, 1.0127255e-8, -9.1188346e-9, 9.3000122e+1
-0.179, 1.0012625e-8, -9.0883994e-9, 9.3333458e+1
-0.180, 1.0190361e-8, -9.1296979e-9, 9.3666794e+1
-0.181, 1.0326159e-8, -9.0662722e-9, 9.4000130e+1
-0.182, 1.0312579e-8, -9.0878398e-9, 9.4333466e+1
-0.183, 1.0367857e-8, -9.1057331e-9, 9.4666801e+1
-0.184, 1.0489436e-8, -9.0773753e-9, 9.5000137e+1
-0.185, 1.0517155e-8, -9.0619592e-9, 9.5333473e+1
-0.186, 1.0456844e-8, -9.1451948e-9, 9.5666809e+1
-0.187, 1.0569638e-8, -9.1249053e-9, 9.6000145e+1
-0.188, 1.0642649e-8, -9.0899173e-9, 9.6333481e+1
-0.189, 1.0658705e-8, -9.1360084e-9, 9.6666817e+1
-0.190, 1.0716938e-8, -9.1109253e-9, 9.7000153e+1
-0.191, 1.0904978e-8, -9.1132426e-9, 9.7333488e+1
-0.192, 1.0971918e-8, -9.1067713e-9, 9.7666824e+1
-0.193, 1.0858249e-8, -9.2076622e-9, 9.8000160e+1
-0.194, 1.1053078e-8, -9.1568575e-9, 9.8333496e+1
-0.195, 1.1064102e-8, -9.1487893e-9, 9.8666832e+1
-0.196, 1.1207329e-8, -9.2517567e-9, 9.9000168e+1
-0.197, 1.1393612e-8, -9.2611820e-9, 9.9333504e+1
-0.198, 1.1330985e-8, -9.2457650e-9, 9.9666840e+1
-0.199, 1.1454402e-8, -9.2580672e-9, 1.0000018e+2
-0.200, 1.1504087e-8, -9.2916963e-9, 1.0033351e+2
-0.201, 1.1555052e-8, -9.3093506e-9, 1.0066685e+2
-0.202, 1.1637809e-8, -9.3313179e-9, 1.0100018e+2
-0.203, 1.1859480e-8, -9.3438599e-9, 1.0133352e+2
-0.204, 1.1910363e-8, -9.3649479e-9, 1.0166685e+2
-0.205, 1.1747406e-8, -9.3841992e-9, 1.0200019e+2
-0.206, 1.2003026e-8, -9.3877146e-9, 1.0233353e+2
-0.207, 1.2240114e-8, -9.4064063e-9, 1.0266686e+2
-0.208, 1.2358897e-8, -9.4484243e-9, 1.0300020e+2
-0.209, 1.2423681e-8, -9.4481045e-9, 1.0333353e+2
-0.210, 1.2543902e-8, -9.4636015e-9, 1.0366687e+2
-0.211, 1.2652460e-8, -9.4957935e-9, 1.0400021e+2
-0.212, 1.2831713e-8, -9.5040207e-9, 1.0433354e+2
-0.213, 1.2938916e-8, -9.5438821e-9, 1.0466688e+2
-0.214, 1.3012006e-8, -9.5708819e-9, 1.0500021e+2
-0.215, 1.3154274e-8, -9.6811981e-9, 1.0533355e+2
-0.216, 1.3383773e-8, -9.7153876e-9, 1.0566689e+2
-0.217, 1.3457982e-8, -9.8310551e-9, 1.0600022e+2
-0.218, 1.3618864e-8, -9.8657233e-9, 1.0633356e+2
-0.219, 1.3768241e-8, -9.9211608e-9, 1.0666689e+2
-0.220, 1.3921054e-8, -9.9372173e-9, 1.0700023e+2
-0.221, 1.4053097e-8, -9.9830686e-9, 1.0733356e+2
-0.222, 1.4317425e-8, -1.0073095e-8, 1.0766690e+2
-0.223, 1.4459054e-8, -1.0211449e-8, 1.0800024e+2
-0.224, 1.4698859e-8, -1.0326080e-8, 1.0833357e+2
-0.225, 1.4868365e-8, -1.0353958e-8, 1.0866691e+2
-0.226, 1.5168720e-8, -1.0441267e-8, 1.0900024e+2
-0.227, 1.5320094e-8, -1.0470904e-8, 1.0933358e+2
-0.228, 1.5403730e-8, -1.0642170e-8, 1.0966692e+2
-0.229, 1.5705123e-8, -1.0765746e-8, 1.1000025e+2
-0.230, 1.5876628e-8, -1.0853135e-8, 1.1033359e+2
-0.231, 1.6255264e-8, -1.0919037e-8, 1.1066692e+2
-0.232, 1.6420779e-8, -1.0998280e-8, 1.1100026e+2
-0.233, 1.6586373e-8, -1.1188956e-8, 1.1133360e+2
-0.234, 1.6902781e-8, -1.1319482e-8, 1.1166693e+2
-0.235, 1.7102325e-8, -1.1437387e-8, 1.1200027e+2
-0.236, 1.7392853e-8, -1.1515191e-8, 1.1233360e+2
-0.237, 1.7698399e-8, -1.1760666e-8, 1.1266694e+2
-0.238, 1.7918552e-8, -1.1897184e-8, 1.1300027e+2
-0.239, 1.8314442e-8, -1.2016207e-8, 1.1333361e+2
-0.240, 1.8486586e-8, -1.2262001e-8, 1.1366695e+2
-0.241, 1.8801879e-8, -1.2401315e-8, 1.1400028e+2
-0.242, 1.9208073e-8, -1.2531521e-8, 1.1433362e+2
-0.243, 1.9338680e-8, -1.2771005e-8, 1.1466695e+2
-0.244, 1.9709169e-8, -1.2907921e-8, 1.1500029e+2
-0.245, 2.0042433e-8, -1.3082780e-8, 1.1533363e+2
-0.246, 2.0273450e-8, -1.3322825e-8, 1.1566696e+2
-0.247, 2.0646576e-8, -1.3451193e-8, 1.1600030e+2
-0.248, 2.0939899e-8, -1.3707373e-8, 1.1633363e+2
-0.249, 2.1243050e-8, -1.3874645e-8, 1.1666697e+2
-0.250, 2.1660348e-8, -1.4086010e-8, 1.1700031e+2
-0.251, 2.1790635e-8, -1.4313032e-8, 1.1733364e+2
-0.252, 2.2196271e-8, -1.4475909e-8, 1.1766698e+2
-0.253, 2.2393978e-8, -1.4754215e-8, 1.1800031e+2
-0.254, 2.2679393e-8, -1.4907268e-8, 1.1833365e+2
-0.255, 2.3062105e-8, -1.5179662e-8, 1.1866698e+2
-0.256, 2.3223864e-8, -1.5327203e-8, 1.1900032e+2
-0.257, 2.3533882e-8, -1.5539049e-8, 1.1933366e+2
-0.258, 2.3793897e-8, -1.5759921e-8, 1.1966699e+2
-0.259, 2.4124287e-8, -1.5900431e-8, 1.2000033e+2
-0.260, 2.4265596e-8, -1.6207336e-8, 1.2033366e+2
-0.261, 2.4647427e-8, -1.6337303e-8, 1.2066700e+2
-0.262, 2.4741528e-8, -1.6556337e-8, 1.2100034e+2
-0.263, 2.5097878e-8, -1.6767142e-8, 1.2133367e+2
-0.264, 2.5216261e-8, -1.6884089e-8, 1.2166701e+2
-0.265, 2.5407818e-8, -1.7137712e-8, 1.2200034e+2
-0.266, 2.5679974e-8, -1.7289405e-8, 1.2233368e+2
-0.267, 2.5910909e-8, -1.7397646e-8, 1.2266702e+2
-0.268, 2.6114925e-8, -1.7683700e-8, 1.2300035e+2
-0.269, 2.6220849e-8, -1.7801126e-8, 1.2333369e+2
-0.270, 2.6385564e-8, -1.7950185e-8, 1.2366702e+2
-0.271, 2.6629682e-8, -1.8186952e-8, 1.2400036e+2
-0.272, 2.6709403e-8, -1.8289839e-8, 1.2433369e+2
-0.273, 2.6853828e-8, -1.8399117e-8, 1.2466703e+2
-0.274, 2.7130216e-8, -1.8630374e-8, 1.2500037e+2
-0.275, 2.7150346e-8, -1.8710654e-8, 1.2533370e+2
-0.276, 2.7256188e-8, -1.8822567e-8, 1.2566704e+2
-0.277, 2.7537611e-8, -1.8972745e-8, 1.2600037e+2
-0.278, 2.7583622e-8, -1.9140256e-8, 1.2633371e+2
-0.279, 2.7625081e-8, -1.9244659e-8, 1.2666705e+2
-0.280, 2.7878782e-8, -1.9295943e-8, 1.2700038e+2
-0.281, 2.7999961e-8, -1.9432621e-8, 1.2733372e+2
-0.282, 2.8161962e-8, -1.9609317e-8, 1.2766705e+2
-0.283, 2.8137917e-8, -1.9670027e-8, 1.2800038e+2
-0.284, 2.8295684e-8, -1.9734891e-8, 1.2833371e+2
-0.285, 2.8229863e-8, -1.9792326e-8, 1.2866704e+2
-0.286, 2.8301436e-8, -1.9909830e-8, 1.2900037e+2
-0.287, 2.8580061e-8, -2.0107217e-8, 1.2933369e+2
-0.288, 2.8603147e-8, -2.0168967e-8, 1.2966702e+2
-0.289, 2.8598274e-8, -2.0228477e-8, 1.3000035e+2
-0.290, 2.8765864e-8, -2.0258511e-8, 1.3033368e+2
-0.291, 2.8860603e-8, -2.0315788e-8, 1.3066701e+2
-0.292, 2.8908772e-8, -2.0380092e-8, 1.3100034e+2
-0.293, 2.9055112e-8, -2.0535701e-8, 1.3133366e+2
-0.294, 2.9053197e-8, -2.0597849e-8, 1.3166699e+2
-0.295, 2.9074366e-8, -2.0655282e-8, 1.3200032e+2
-0.296, 2.9146019e-8, -2.0721105e-8, 1.3233365e+2
-0.297, 2.9134116e-8, -2.0743391e-8, 1.3266698e+2
-0.298, 2.9257295e-8, -2.0776303e-8, 1.3300031e+2
-0.299, 2.9335178e-8, -2.0872720e-8, 1.3333363e+2
-0.300, 2.9389978e-8, -2.0918810e-8, 1.3366696e+2
-0.301, 2.9493345e-8, -2.1034319e-8, 1.3400029e+2
-0.302, 2.9539034e-8, -2.1100300e-8, 1.3433362e+2
-0.303, 2.9537198e-8, -2.1137048e-8, 1.3466695e+2
-0.304, 2.9579455e-8, -2.1168679e-8, 1.3500027e+2
-0.305, 2.9592714e-8, -2.1203348e-8, 1.3533360e+2
-0.306, 2.9746808e-8, -2.1226674e-8, 1.3566693e+2
-0.307, 2.9701594e-8, -2.1243768e-8, 1.3600026e+2
-0.308, 2.9870144e-8, -2.1281233e-8, 1.3633359e+2
-0.309, 3.0041729e-8, -2.1308471e-8, 1.3666692e+2
-0.310, 3.0015766e-8, -2.1399934e-8, 1.3700024e+2
-0.311, 3.0040528e-8, -2.1443711e-8, 1.3733357e+2
-0.312, 3.0088700e-8, -2.1539488e-8, 1.3766690e+2
-0.313, 3.0085182e-8, -2.1597883e-8, 1.3800023e+2
-0.314, 3.0131755e-8, -2.1604512e-8, 1.3833356e+2
-0.315, 3.0169296e-8, -2.1641817e-8, 1.3866689e+2
-0.316, 3.0220662e-8, -2.1657153e-8, 1.3900021e+2
-0.317, 3.0214988e-8, -2.1698373e-8, 1.3933354e+2
-0.318, 3.0272105e-8, -2.1709075e-8, 1.3966687e+2
-0.319, 3.0345038e-8, -2.1742705e-8, 1.4000020e+2
-0.320, 3.0493137e-8, -2.1744862e-8, 1.4033353e+2
-0.321, 3.0478358e-8, -2.1784404e-8, 1.4066685e+2
-0.322, 3.0543223e-8, -2.1839282e-8, 1.4100018e+2
-0.323, 3.0527485e-8, -2.1863407e-8, 1.4133351e+2
-0.324, 3.0542424e-8, -2.1859252e-8, 1.4166684e+2
-0.325, 3.0621024e-8, -2.1976998e-8, 1.4200017e+2
-0.326, 3.0619429e-8, -2.2028122e-8, 1.4233350e+2
-0.327, 3.0710254e-8, -2.2062711e-8, 1.4266682e+2
-0.328, 3.0783905e-8, -2.2064388e-8, 1.4300015e+2
-0.329, 3.0733659e-8, -2.2104327e-8, 1.4333348e+2
-0.330, 3.0895418e-8, -2.2125736e-8, 1.4366681e+2
-0.331, 3.0942630e-8, -2.2154094e-8, 1.4400014e+2
-0.332, 3.0930885e-8, -2.2161762e-8, 1.4433347e+2
-0.333, 3.0991597e-8, -2.2183491e-8, 1.4466679e+2
-0.334, 3.1026904e-8, -2.2203301e-8, 1.4500012e+2
-0.335, 3.1033455e-8, -2.2216641e-8, 1.4533345e+2
-0.336, 3.1038407e-8, -2.2221114e-8, 1.4566678e+2
-0.337, 3.1049350e-8, -2.2246756e-8, 1.4600011e+2
-0.338, 3.1139454e-8, -2.2257140e-8, 1.4633344e+2
-0.339, 3.1106705e-8, -2.2290452e-8, 1.4666676e+2
-0.340, 3.1128273e-8, -2.2309223e-8, 1.4700009e+2
-0.341, 3.1299376e-8, -2.2371053e-8, 1.4733342e+2
-0.342, 3.1200482e-8, -2.2437753e-8, 1.4766675e+2
-0.343, 3.1364479e-8, -2.2450694e-8, 1.4800008e+2
-0.344, 3.1368476e-8, -2.2458602e-8, 1.4833340e+2
-0.345, 3.1414967e-8, -2.2575787e-8, 1.4866673e+2
-0.346, 3.1370551e-8, -2.2540799e-8, 1.4900006e+2
-0.347, 3.1451712e-8, -2.2575147e-8, 1.4933339e+2
-0.348, 3.1474638e-8, -2.2577145e-8, 1.4966672e+2
-0.349, 3.1498359e-8, -2.2594399e-8, 1.5000005e+2
-0.350, 3.1523765e-8, -2.2611173e-8, 1.5033337e+2
-0.351, 3.1536146e-8, -2.2609816e-8, 1.5066670e+2
-0.352, 3.1521925e-8, -2.2622919e-8, 1.5100003e+2
-0.353, 3.1541258e-8, -2.2622597e-8, 1.5133336e+2
-0.354, 3.1658285e-8, -2.2660142e-8, 1.5166669e+2
-0.355, 3.1603648e-8, -2.2662778e-8, 1.5200002e+2
-0.356, 3.1620740e-8, -2.2663496e-8, 1.5233334e+2
-0.357, 3.1782260e-8, -2.2700322e-8, 1.5266667e+2
-0.358, 3.1659642e-8, -2.2694410e-8, 1.5300000e+2
-0.359, 3.1817006e-8, -2.2711028e-8, 1.5333333e+2
-0.360, 3.1895532e-8, -2.2696806e-8, 1.5366666e+2
-0.361, 3.1732732e-8, -2.2726045e-8, 1.5399998e+2
-0.362, 3.1929083e-8, -2.2722929e-8, 1.5433331e+2
-0.363, 3.1950488e-8, -2.2742020e-8, 1.5466664e+2
-0.364, 3.1922930e-8, -2.2762149e-8, 1.5499997e+2
-0.365, 3.2019667e-8, -2.2782361e-8, 1.5533330e+2
-0.366, 3.2006408e-8, -2.2800014e-8, 1.5566663e+2
-0.367, 3.2040596e-8, -2.2797058e-8, 1.5599995e+2
-0.368, 3.1998578e-8, -2.2832126e-8, 1.5633328e+2
-0.369, 3.2011517e-8, -2.2866477e-8, 1.5666661e+2
-0.370, 3.2069515e-8, -2.2872786e-8, 1.5699994e+2
-0.371, 3.2078219e-8, -2.2870710e-8, 1.5733327e+2
-0.372, 3.2066719e-8, -2.2915044e-8, 1.5766660e+2
-0.373, 3.2213297e-8, -2.2959137e-8, 1.5799992e+2
-0.374, 3.2189178e-8, -2.2969681e-8, 1.5833325e+2
-0.375, 3.2191490e-8, -2.2999878e-8, 1.5866658e+2
-0.376, 3.2305564e-8, -2.3042533e-8, 1.5899991e+2
-0.377, 3.2303085e-8, -2.3029193e-8, 1.5933324e+2
-0.378, 3.2374739e-8, -2.3036144e-8, 1.5966656e+2
-0.379, 3.2352691e-8, -2.3060746e-8, 1.5999989e+2
-0.380, 3.2441360e-8, -2.3061546e-8, 1.6033322e+2
-0.381, 3.2436169e-8, -2.3072888e-8, 1.6066655e+2
-0.382, 3.2498797e-8, -2.3065779e-8, 1.6099988e+2
-0.383, 3.2492405e-8, -2.3081835e-8, 1.6133321e+2
-0.384, 3.2503589e-8, -2.3090623e-8, 1.6166653e+2
-0.385, 3.2505344e-8, -2.3091021e-8, 1.6199986e+2
-0.386, 3.2568291e-8, -2.3089184e-8, 1.6233319e+2
-0.387, 3.2529229e-8, -2.3101325e-8, 1.6266652e+2
-0.388, 3.2519164e-8, -2.3118261e-8, 1.6299985e+2
-0.389, 3.2612785e-8, -2.3122254e-8, 1.6333318e+2
-0.390, 3.2607115e-8, -2.3109074e-8, 1.6366650e+2
-0.391, 3.2620054e-8, -2.3116664e-8, 1.6399983e+2
-0.392, 3.2733485e-8, -2.3116424e-8, 1.6433316e+2
-0.393, 3.2820399e-8, -2.3143743e-8, 1.6466649e+2
-0.394, 3.2739397e-8, -2.3157323e-8, 1.6499982e+2
-0.395, 3.2840845e-8, -2.3136474e-8, 1.6533315e+2
-0.396, 3.2916972e-8, -2.3164832e-8, 1.6566647e+2
-0.397, 3.2914258e-8, -2.3151092e-8, 1.6599980e+2
-0.398, 3.2876553e-8, -2.3161796e-8, 1.6633313e+2
-0.399, 3.2972093e-8, -2.3168187e-8, 1.6666646e+2
-0.400, 3.2986069e-8, -2.3165551e-8, 1.6699979e+2
-0.401, 3.2946609e-8, -2.3169227e-8, 1.6733311e+2
-0.402, 3.3023934e-8, -2.3168745e-8, 1.6766644e+2
-0.403, 3.3010114e-8, -2.3180968e-8, 1.6799977e+2
-0.404, 3.3036315e-8, -2.3196625e-8, 1.6833310e+2
-0.405, 3.3079292e-8, -2.3185841e-8, 1.6866643e+2
-0.406, 3.3053730e-8, -2.3187837e-8, 1.6899976e+2
-0.407, 3.3103415e-8, -2.3196865e-8, 1.6933308e+2
-0.408, 3.3197036e-8, -2.3193030e-8, 1.6966641e+2
-0.409, 3.3270208e-8, -2.3208607e-8, 1.6999974e+2
-0.410, 3.3310386e-8, -2.3205251e-8, 1.7033307e+2
-0.411, 3.3296011e-8, -2.3213959e-8, 1.7066640e+2
-0.412, 3.3320532e-8, -2.3208766e-8, 1.7099973e+2
-0.413, 3.3378846e-8, -2.3214518e-8, 1.7133305e+2
-0.414, 3.3350727e-8, -2.3220510e-8, 1.7166638e+2
-0.415, 3.3439317e-8, -2.3206130e-8, 1.7199971e+2
-0.416, 3.3460324e-8, -2.3228496e-8, 1.7233304e+2
-0.417, 3.3460008e-8, -2.3232571e-8, 1.7266637e+2
-0.418, 3.3527346e-8, -2.3242714e-8, 1.7299969e+2
-0.419, 3.3525190e-8, -2.3255017e-8, 1.7333302e+2
-0.420, 3.3495873e-8, -2.3253898e-8, 1.7366635e+2
-0.421, 3.3633508e-8, -2.3268358e-8, 1.7399968e+2
-0.422, 3.3617532e-8, -2.3309976e-8, 1.7433301e+2
-0.423, 3.3612018e-8, -2.3306940e-8, 1.7466634e+2
-0.424, 3.3716425e-8, -2.3254378e-8, 1.7499966e+2
-0.425, 3.3693258e-8, -2.3298552e-8, 1.7533299e+2
-0.426, 3.3738392e-8, -2.3261007e-8, 1.7566632e+2
-0.427, 3.3830975e-8, -2.3325233e-8, 1.7599965e+2
-0.428, 3.3855500e-8, -2.3337215e-8, 1.7633298e+2
-0.429, 3.3952471e-8, -2.3327150e-8, 1.7666631e+2
-0.430, 3.3918603e-8, -2.3354950e-8, 1.7699963e+2
-0.431, 3.3977077e-8, -2.3382828e-8, 1.7733296e+2
-0.432, 3.3993135e-8, -2.3405594e-8, 1.7766629e+2
-0.433, 3.4004636e-8, -2.3409667e-8, 1.7799962e+2
-0.434, 3.4064545e-8, -2.3412543e-8, 1.7833295e+2
-0.435, 3.4043698e-8, -2.3388418e-8, 1.7866628e+2
-0.436, 3.4128533e-8, -2.3458234e-8, 1.7899960e+2
-0.437, 3.4193874e-8, -2.3392973e-8, 1.7933293e+2
-0.438, 3.4253546e-8, -2.3437387e-8, 1.7966626e+2
-0.439, 3.4262094e-8, -2.3472934e-8, 1.7999959e+2
-0.440, 3.4360667e-8, -2.3483958e-8, 1.8033292e+2
-0.441, 3.4320884e-8, -2.3469898e-8, 1.8066624e+2
-0.442, 3.4417621e-8, -2.3443377e-8, 1.8099957e+2
-0.443, 3.4445502e-8, -2.3508241e-8, 1.8133290e+2
-0.444, 3.4439189e-8, -2.3525335e-8, 1.8166623e+2
-0.445, 3.4474098e-8, -2.3524695e-8, 1.8199956e+2
-0.446, 3.4640010e-8, -2.3507042e-8, 1.8233289e+2
-0.447, 3.4674201e-8, -2.3557527e-8, 1.8266621e+2
-0.448, 3.4755917e-8, -2.3565356e-8, 1.8299954e+2
-0.449, 3.4550066e-8, -2.3571745e-8, 1.8333287e+2
-0.450, 3.4780363e-8, -2.3579496e-8, 1.8366620e+2
-0.451, 3.4801211e-8, -2.3577979e-8, 1.8399953e+2
-0.452, 3.4903060e-8, -2.3574064e-8, 1.8433286e+2
-0.453, 3.4925588e-8, -2.3574703e-8, 1.8466618e+2
-0.454, 3.4934132e-8, -2.3587004e-8, 1.8499951e+2
-0.455, 3.4958017e-8, -2.3605617e-8, 1.8533284e+2
-0.456, 3.5007304e-8, -2.3601062e-8, 1.8566617e+2
-0.457, 3.5003872e-8, -2.3609610e-8, 1.8599950e+2
-0.458, 3.5263565e-8, -2.3597069e-8, 1.8633282e+2
-0.459, 3.4945955e-8, -2.3627026e-8, 1.8666615e+2
-0.460, 3.5326991e-8, -2.3605777e-8, 1.8699948e+2
-0.461, 3.5268595e-8, -2.3666088e-8, 1.8733281e+2
-0.462, 3.5342246e-8, -2.3650429e-8, 1.8766614e+2
-0.463, 3.5468940e-8, -2.3643080e-8, 1.8799947e+2
-0.464, 3.5462548e-8, -2.3644519e-8, 1.8833279e+2
-0.465, 3.5436109e-8, -2.3672158e-8, 1.8866612e+2
-0.466, 3.5665845e-8, -2.3657300e-8, 1.8899945e+2
-0.467, 3.5582691e-8, -2.3674154e-8, 1.8933278e+2
-0.468, 3.5671039e-8, -2.3651866e-8, 1.8966611e+2
-0.469, 3.5706346e-8, -2.3694044e-8, 1.8999944e+2
-0.470, 3.5867227e-8, -2.3685656e-8, 1.9033276e+2
-0.471, 3.5913398e-8, -2.3697240e-8, 1.9066609e+2
-0.472, 3.5941039e-8, -2.3716172e-8, 1.9099942e+2
-0.473, 3.5948705e-8, -2.3709783e-8, 1.9133275e+2
-0.474, 3.5994876e-8, -2.3766496e-8, 1.9166608e+2
-0.475, 3.6213592e-8, -2.3828406e-8, 1.9199940e+2
-0.476, 3.6240831e-8, -2.3790383e-8, 1.9233273e+2
-0.477, 3.6324547e-8, -2.3910443e-8, 1.9266606e+2
-0.478, 3.6406906e-8, -2.3899579e-8, 1.9299939e+2
-0.479, 3.6427991e-8, -2.3890392e-8, 1.9333272e+2
-0.480, 3.6484867e-8, -2.3842464e-8, 1.9366605e+2
-0.481, 3.6540627e-8, -2.3982976e-8, 1.9399937e+2
-0.482, 3.6817333e-8, -2.3998153e-8, 1.9433270e+2
-0.483, 3.6685371e-8, -2.3974428e-8, 1.9466603e+2
-0.484, 3.6793530e-8, -2.3994797e-8, 1.9499936e+2
-0.485, 3.6939710e-8, -2.4015087e-8, 1.9533269e+2
-0.486, 3.6907679e-8, -2.4044803e-8, 1.9566602e+2
-0.487, 3.6976218e-8, -2.4036177e-8, 1.9599934e+2
-0.488, 3.7107380e-8, -2.4060780e-8, 1.9633267e+2
-0.489, 3.7144769e-8, -2.4071484e-8, 1.9666600e+2
-0.490, 3.7202682e-8, -2.4091054e-8, 1.9699933e+2
-0.491, 3.7355015e-8, -2.4096167e-8, 1.9733266e+2
-0.492, 3.7398710e-8, -2.4124205e-8, 1.9766599e+2
-0.493, 3.7458541e-8, -2.4143215e-8, 1.9799931e+2
-0.494, 3.7566380e-8, -2.4140341e-8, 1.9833264e+2
-0.495, 3.7782939e-8, -2.4160871e-8, 1.9866597e+2
-0.496, 3.7796198e-8, -2.4175730e-8, 1.9899930e+2
-0.497, 3.7850757e-8, -2.4190905e-8, 1.9933263e+2
-0.498, 3.7955562e-8, -2.4187871e-8, 1.9966595e+2
-0.499, 3.8026254e-8, -2.4233163e-8, 1.9999928e+2
