Dec. 21, 2005   07:02:04
Cyclic Voltammetry
File: d:\ida_biofilms\12_10_18_dphzstar\a_760b\75um_pyo\a_75um_pyo_gc_final.txt
Data Source:  Experiment
Instrument Model:  CHI760E
Header: 
Note: 

Init E (V) = 0.1
High E (V) = 0.1
Low E (V) = -0.5
Init P/N = N
Scan Rate (V/s) = 0.003
Segment = 2
Sample Interval (V) = 0.001
Quiet Time (sec) = 2
Sensitivity (A/V) = 1e-7
2nd E (V) = 0.1
Sens 2 (A/V) = 1e-7

Potential/V, i1/A, i2/A, Time/s

0.100, -9.3909911e-8, -8.0346773e-8, 3.3333334e-1
0.099, -7.7337589e-8, -7.2405065e-8, 6.6666669e-1
0.098, -6.7006944e-8, -6.5988843e-8, 1.0000000e+0
0.097, -5.9358879e-8, -6.0893939e-8, 1.3333334e+0
0.096, -5.3299164e-8, -5.6542248e-8, 1.6666667e+0
0.095, -4.8423459e-8, -5.2841752e-8, 2.0000000e+0
0.094, -4.4031108e-8, -4.9566541e-8, 2.3333333e+0
0.093, -4.0437971e-8, -4.6748969e-8, 2.6666665e+0
0.092, -3.7269480e-8, -4.4119997e-8, 2.9999998e+0
0.091, -3.4271856e-8, -4.1817820e-8, 3.3333330e+0
0.090, -3.1821742e-8, -3.9668294e-8, 3.6666663e+0
0.089, -2.9589298e-8, -3.7755139e-8, 3.9999995e+0
0.088, -2.7593225e-8, -3.5948066e-8, 4.3333330e+0
0.087, -2.5756517e-8, -3.4308904e-8, 4.6666665e+0
0.086, -2.4181498e-8, -3.2756333e-8, 5.0000000e+0
0.085, -2.2595694e-8, -3.1393796e-8, 5.3333335e+0
0.084, -2.1193220e-8, -3.0128479e-8, 5.6666670e+0
0.083, -1.9972475e-8, -2.8937849e-8, 6.0000005e+0
0.082, -1.8807647e-8, -2.7672691e-8, 6.3333340e+0
0.081, -1.7594569e-8, -2.6675451e-8, 6.6666675e+0
0.080, -1.6654528e-8, -2.5763127e-8, 7.0000010e+0
0.079, -1.5794207e-8, -2.4879162e-8, 7.3333344e+0
0.078, -1.4755352e-8, -2.4077554e-8, 7.6666679e+0
0.077, -1.3973953e-8, -2.3291284e-8, 8.0000010e+0
0.076, -1.3166355e-8, -2.2642009e-8, 8.3333340e+0
0.075, -1.2395341e-8, -2.2015980e-8, 8.6666670e+0
0.074, -1.1630318e-8, -2.1311987e-8, 9.0000000e+0
0.073, -1.1073466e-8, -2.0759927e-8, 9.3333330e+0
0.072, -1.0371389e-8, -2.0224883e-8, 9.6666660e+0
0.071, -9.7366533e-9, -1.9733612e-8, 9.9999990e+0
0.070, -9.1594314e-9, -1.9216301e-8, 1.0333332e+1
0.069, -8.6336529e-9, -1.8778074e-8, 1.0666665e+1
0.068, -8.1325586e-9, -1.8301263e-8, 1.0999998e+1
0.067, -7.6126119e-9, -1.7883963e-8, 1.1333331e+1
0.066, -7.1741431e-9, -1.7484156e-8, 1.1666664e+1
0.065, -6.6637016e-9, -1.7178133e-8, 1.1999997e+1
0.064, -6.2056627e-9, -1.6789510e-8, 1.2333330e+1
0.063, -5.8139253e-9, -1.6423973e-8, 1.2666663e+1
0.062, -5.3117120e-9, -1.6143032e-8, 1.2999996e+1
0.061, -4.9847579e-9, -1.5835409e-8, 1.3333329e+1
0.060, -4.7030171e-9, -1.5500467e-8, 1.3666662e+1
0.059, -4.2353121e-9, -1.5291576e-8, 1.3999995e+1
0.058, -3.9635561e-9, -1.4937543e-8, 1.4333328e+1
0.057, -3.6402770e-9, -1.4749023e-8, 1.4666661e+1
0.056, -3.3340921e-9, -1.4433094e-8, 1.4999994e+1
0.055, -2.9382006e-9, -1.4248967e-8, 1.5333327e+1
0.054, -2.7353022e-9, -1.3931519e-8, 1.5666660e+1
0.053, -2.3841442e-9, -1.3782780e-8, 1.5999993e+1
0.052, -2.0595070e-9, -1.3521888e-8, 1.6333326e+1
0.051, -1.7899078e-9, -1.3352220e-8, 1.6666660e+1
0.050, -1.5981129e-9, -1.3130389e-8, 1.6999994e+1
0.049, -1.2567805e-9, -1.2914550e-8, 1.7333328e+1
0.048, -1.0223290e-9, -1.2788817e-8, 1.7666662e+1
0.047, -8.4786833e-10, -1.2563233e-8, 1.7999996e+1
0.046, -5.6668636e-10, -1.2412258e-8, 1.8333330e+1
0.045, -3.6690340e-10, -1.2283329e-8, 1.8666664e+1
0.044, -2.3685673e-10, -1.2053910e-8, 1.8999998e+1
0.043, 1.3850521e-10, -1.1894068e-8, 1.9333332e+1
0.042, 2.0504627e-10, -1.1760107e-8, 1.9666666e+1
0.041, 4.0379078e-10, -1.1539155e-8, 2.0000000e+1
0.040, 6.6028943e-10, -1.1419814e-8, 2.0333334e+1
0.039, 7.1452882e-10, -1.1328189e-8, 2.0666668e+1
0.038, 9.3803654e-10, -1.1164113e-8, 2.1000002e+1
0.037, 1.1541952e-9, -1.0980706e-8, 2.1333336e+1
0.036, 1.2395882e-9, -1.0895073e-8, 2.1666670e+1
0.035, 1.4996816e-9, -1.0826056e-8, 2.2000004e+1
0.034, 1.6031276e-9, -1.0710867e-8, 2.2333338e+1
0.033, 1.7851770e-9, -1.0518992e-8, 2.2666672e+1
0.032, 1.8485230e-9, -1.0453570e-8, 2.3000006e+1
0.031, 2.0872082e-9, -1.0374408e-8, 2.3333340e+1
0.030, 2.2208493e-9, -1.0270561e-8, 2.3666674e+1
0.029, 2.2045537e-9, -1.0085636e-8, 2.4000008e+1
0.028, 2.5363005e-9, -9.9767581e-9, 2.4333342e+1
0.027, 2.6546045e-9, -9.9124549e-9, 2.4666676e+1
0.026, 2.6885540e-9, -9.8378452e-9, 2.5000010e+1
0.025, 2.8384912e-9, -9.7157073e-9, 2.5333344e+1
0.024, 3.0686289e-9, -9.5649701e-9, 2.5666677e+1
0.023, 3.0937917e-9, -9.4849293e-9, 2.6000011e+1
0.022, 3.1732734e-9, -9.4439505e-9, 2.6333345e+1
0.021, 3.2521164e-9, -9.3766905e-9, 2.6666679e+1
0.020, 3.4535765e-9, -9.3099093e-9, 2.7000013e+1
0.019, 3.5891350e-9, -9.1849763e-9, 2.7333347e+1
0.018, 3.6033541e-9, -9.0360768e-9, 2.7666681e+1
0.017, 3.7587231e-9, -8.9900647e-9, 2.8000015e+1
0.016, 3.8179149e-9, -8.9577936e-9, 2.8333349e+1
0.015, 3.8906869e-9, -8.8855812e-9, 2.8666683e+1
0.014, 4.1109991e-9, -8.8320604e-9, 2.9000017e+1
0.013, 4.1070054e-9, -8.7342862e-9, 2.9333351e+1
0.012, 4.1617239e-9, -8.6088727e-9, 2.9666685e+1
0.011, 4.3597495e-9, -8.5330649e-9, 3.0000019e+1
0.010, 4.4350772e-9, -8.4944025e-9, 3.0333353e+1
0.009, 4.5423580e-9, -8.4614111e-9, 3.0666687e+1
0.008, 4.6051447e-9, -8.4081311e-9, 3.1000021e+1
0.007, 4.6274318e-9, -8.3649949e-9, 3.1333355e+1
0.006, 4.6915760e-9, -8.2946991e-9, 3.1666689e+1
0.005, 4.8287321e-9, -8.2159364e-9, 3.2000023e+1
0.004, 4.9430424e-9, -8.0894047e-9, 3.2333355e+1
0.003, 5.0369029e-9, -8.0497031e-9, 3.2666687e+1
0.002, 5.0643818e-9, -8.0067268e-9, 3.3000019e+1
0.001, 5.1905942e-9, -7.9602360e-9, 3.3333351e+1
-0.000, 5.1276476e-9, -7.9344344e-9, 3.3666683e+1
-0.001, 5.2607296e-9, -7.9006446e-9, 3.4000015e+1
-0.002, 5.4792850e-9, -7.8659763e-9, 3.4333347e+1
-0.003, 5.5201044e-9, -7.7439983e-9, 3.4666679e+1
-0.004, 5.5469442e-9, -7.6723445e-9, 3.5000011e+1
-0.005, 5.6105298e-9, -7.5838358e-9, 3.5333344e+1
-0.006, 5.6211538e-9, -7.5333517e-9, 3.5666676e+1
-0.007, 5.7207661e-9, -7.5365465e-9, 3.6000008e+1
-0.008, 5.8874785e-9, -7.4971647e-9, 3.6333340e+1
-0.009, 5.8280465e-9, -7.4552275e-9, 3.6666672e+1
-0.010, 6.0097762e-9, -7.4243935e-9, 3.7000004e+1
-0.011, 6.0404508e-9, -7.4065798e-9, 3.7333336e+1
-0.012, 6.0909358e-9, -7.3839734e-9, 3.7666668e+1
-0.013, 6.0947700e-9, -7.3409967e-9, 3.8000000e+1
-0.014, 6.1112257e-9, -7.2266073e-9, 3.8333332e+1
-0.015, 6.3234702e-9, -7.1981692e-9, 3.8666664e+1
-0.016, 6.4434516e-9, -7.1186879e-9, 3.8999996e+1
-0.017, 6.3904109e-9, -7.0656463e-9, 3.9333328e+1
-0.018, 6.5590395e-9, -7.0336941e-9, 3.9666660e+1
-0.019, 6.5613559e-9, -7.0183570e-9, 3.9999992e+1
-0.020, 6.5887558e-9, -7.0015820e-9, 4.0333324e+1
-0.021, 6.6707133e-9, -6.9745818e-9, 4.0666656e+1
-0.022, 6.6270984e-9, -6.9590853e-9, 4.0999989e+1
-0.023, 6.7003496e-9, -6.9391146e-9, 4.1333321e+1
-0.024, 6.7455619e-9, -6.9010109e-9, 4.1666653e+1
-0.025, 6.8540409e-9, -6.8873520e-9, 4.1999985e+1
-0.026, 6.9602835e-9, -6.8324733e-9, 4.2333317e+1
-0.027, 6.9855259e-9, -6.7670505e-9, 4.2666649e+1
-0.028, 7.0225901e-9, -6.7091368e-9, 4.2999981e+1
-0.029, 7.0141235e-9, -6.6426753e-9, 4.3333313e+1
-0.030, 7.0213124e-9, -6.6057706e-9, 4.3666645e+1
-0.031, 7.1317880e-9, -6.6004180e-9, 4.3999977e+1
-0.032, 7.1033499e-9, -6.5784507e-9, 4.4333309e+1
-0.033, 7.1009540e-9, -6.5524093e-9, 4.4666641e+1
-0.034, 7.3046516e-9, -6.5222143e-9, 4.4999973e+1
-0.035, 7.2814057e-9, -6.5159038e-9, 4.5333305e+1
-0.036, 7.2861983e-9, -6.5037615e-9, 4.5666637e+1
-0.037, 7.4680884e-9, -6.4764425e-9, 4.5999969e+1
-0.038, 7.4285471e-9, -6.4604664e-9, 4.6333302e+1
-0.039, 7.4983637e-9, -6.4435310e-9, 4.6666634e+1
-0.040, 7.4898159e-9, -6.4175705e-9, 4.6999966e+1
-0.041, 7.4795912e-9, -6.3784280e-9, 4.7333298e+1
-0.042, 7.5466913e-9, -6.3459962e-9, 4.7666630e+1
-0.043, 7.5445348e-9, -6.3013426e-9, 4.7999962e+1
-0.044, 7.5462117e-9, -6.2628405e-9, 4.8333294e+1
-0.045, 7.5553981e-9, -6.1827192e-9, 4.8666626e+1
-0.046, 7.5750490e-9, -6.1614709e-9, 4.8999958e+1
-0.047, 7.6847266e-9, -6.1250449e-9, 4.9333290e+1
-0.048, 7.6658742e-9, -6.0950893e-9, 4.9666622e+1
-0.049, 7.6387145e-9, -6.0811103e-9, 4.9999954e+1
-0.050, 7.8681337e-9, -6.0657728e-9, 5.0333286e+1
-0.051, 7.7737141e-9, -6.0562670e-9, 5.0666618e+1
-0.052, 7.8121367e-9, -6.0425274e-9, 5.0999950e+1
-0.053, 7.9417042e-9, -6.0279892e-9, 5.1333282e+1
-0.054, 7.9310798e-9, -6.0266312e-9, 5.1666615e+1
-0.055, 7.9126270e-9, -5.9962764e-9, 5.1999947e+1
-0.056, 7.9945854e-9, -5.9811787e-9, 5.2333279e+1
-0.057, 7.9774907e-9, -5.9745489e-9, 5.2666611e+1
-0.058, 8.0159133e-9, -5.9401200e-9, 5.2999943e+1
-0.059, 8.0101623e-9, -5.9161556e-9, 5.3333275e+1
-0.060, 8.0000975e-9, -5.8813270e-9, 5.3666607e+1
-0.061, 8.0289340e-9, -5.9044929e-9, 5.3999939e+1
-0.062, 8.0099225e-9, -5.8703038e-9, 5.4333271e+1
-0.063, 8.0446707e-9, -5.8270078e-9, 5.4666603e+1
-0.064, 8.0409963e-9, -5.7604672e-9, 5.4999935e+1
-0.065, 8.0359639e-9, -5.7430527e-9, 5.5333267e+1
-0.066, 8.1432452e-9, -5.6819438e-9, 5.5666599e+1
-0.067, 8.1291853e-9, -5.6693223e-9, 5.5999931e+1
-0.068, 8.0808578e-9, -5.6344143e-9, 5.6333263e+1
-0.069, 8.2174543e-9, -5.6401661e-9, 5.6666595e+1
-0.070, 8.1202387e-9, -5.6127663e-9, 5.6999928e+1
-0.071, 8.1626554e-9, -5.5923968e-9, 5.7333260e+1
-0.072, 8.2722522e-9, -5.5810538e-9, 5.7666592e+1
-0.073, 8.1315816e-9, -5.5713882e-9, 5.7999924e+1
-0.074, 8.2068299e-9, -5.5783378e-9, 5.8333256e+1
-0.075, 8.2466105e-9, -5.5524563e-9, 5.8666588e+1
-0.076, 8.2640250e-9, -5.5499001e-9, 5.8999920e+1
-0.077, 8.3704261e-9, -5.5332046e-9, 5.9333252e+1
-0.078, 8.2379836e-9, -5.5267346e-9, 5.9666584e+1
-0.079, 8.4038172e-9, -5.5094000e-9, 5.9999916e+1
-0.080, 8.2930214e-9, -5.4951017e-9, 6.0333248e+1
-0.081, 8.3369560e-9, -5.4867138e-9, 6.0666580e+1
-0.082, 8.4621306e-9, -5.4727347e-9, 6.0999912e+1
-0.083, 8.3840863e-9, -5.4678622e-9, 6.1333244e+1
-0.084, 8.4421599e-9, -5.4440572e-9, 6.1666576e+1
-0.085, 8.5035881e-9, -5.4311164e-9, 6.1999908e+1
-0.086, 8.4538234e-9, -5.4256049e-9, 6.2333241e+1
-0.087, 8.3908764e-9, -5.4152203e-9, 6.2666573e+1
-0.088, 8.5018312e-9, -5.3914158e-9, 6.2999905e+1
-0.089, 8.4454355e-9, -5.4001226e-9, 6.3333237e+1
-0.090, 8.4564586e-9, -5.3494777e-9, 6.3666569e+1
-0.091, 8.4754710e-9, -5.2806204e-9, 6.3999901e+1
-0.092, 8.4815417e-9, -5.2498663e-9, 6.4333237e+1
-0.093, 8.4988763e-9, -5.2165556e-9, 6.4666573e+1
-0.094, 8.4799439e-9, -5.2216680e-9, 6.4999908e+1
-0.095, 8.5138137e-9, -5.2131206e-9, 6.5333244e+1
-0.096, 8.5108578e-9, -5.1949076e-9, 6.5666580e+1
-0.097, 8.5095797e-9, -5.1627955e-9, 6.5999916e+1
-0.098, 8.5474436e-9, -5.1293254e-9, 6.6333252e+1
-0.099, 8.5208436e-9, -5.1364348e-9, 6.6666588e+1
-0.100, 8.5110177e-9, -5.1327600e-9, 6.6999924e+1
-0.101, 8.5394554e-9, -5.0937778e-9, 6.7333260e+1
-0.102, 8.5276328e-9, -5.0998490e-9, 6.7666595e+1
-0.103, 8.5941743e-9, -5.1006479e-9, 6.7999931e+1
-0.104, 8.6034406e-9, -5.0799587e-9, 6.8333267e+1
-0.105, 8.5510381e-9, -5.0844320e-9, 6.8666603e+1
-0.106, 8.5530347e-9, -5.0775624e-9, 6.8999939e+1
-0.107, 8.5746032e-9, -5.0569526e-9, 6.9333275e+1
-0.108, 8.5762810e-9, -5.0690949e-9, 6.9666611e+1
-0.109, 8.6049576e-9, -5.0585505e-9, 6.9999947e+1
-0.110, 8.5564702e-9, -5.0584705e-9, 7.0333282e+1
-0.111, 8.6598364e-9, -5.0352251e-9, 7.0666618e+1
-0.112, 8.5892218e-9, -5.0319500e-9, 7.0999954e+1
-0.113, 8.6412237e-9, -5.0207669e-9, 7.1333290e+1
-0.114, 8.7263770e-9, -5.0293139e-9, 7.1666626e+1
-0.115, 8.6258067e-9, -5.0101425e-9, 7.1999962e+1
-0.116, 8.6548040e-9, -5.0037521e-9, 7.2333298e+1
-0.117, 8.7450696e-9, -4.9880153e-9, 7.2666634e+1
-0.118, 8.6412237e-9, -4.9894533e-9, 7.2999969e+1
-0.119, 8.7119991e-9, -4.9753943e-9, 7.3333305e+1
-0.120, 8.7988292e-9, -4.9643702e-9, 7.3666641e+1
-0.121, 8.7233420e-9, -4.9336961e-9, 7.3999977e+1
-0.122, 8.7972323e-9, -4.9567821e-9, 7.4333313e+1
-0.123, 8.6969809e-9, -4.9450395e-9, 7.4666649e+1
-0.124, 8.7956344e-9, -4.9356133e-9, 7.4999985e+1
-0.125, 8.7529779e-9, -4.8913593e-9, 7.5333321e+1
-0.126, 8.8480370e-9, -4.9166018e-9, 7.5666656e+1
-0.127, 8.8847019e-9, -4.8860072e-9, 7.5999992e+1
-0.128, 8.9057108e-9, -4.8932760e-9, 7.6333328e+1
-0.129, 8.8640135e-9, -4.8629212e-9, 7.6666664e+1
-0.130, 8.9099448e-9, -4.8201847e-9, 7.7000000e+1
-0.131, 8.9045127e-9, -4.8079629e-9, 7.7333336e+1
-0.132, 8.9045127e-9, -4.7986970e-9, 7.7666672e+1
-0.133, 8.9696961e-9, -4.8361612e-9, 7.8000008e+1
-0.134, 8.9048315e-9, -4.7934248e-9, 7.8333344e+1
-0.135, 8.9545180e-9, -4.7391056e-9, 7.8666679e+1
-0.136, 8.9776835e-9, -4.7252060e-9, 7.9000015e+1
-0.137, 8.9599501e-9, -4.7081112e-9, 7.9333351e+1
-0.138, 8.9887076e-9, -4.7444577e-9, 7.9666687e+1
-0.139, 8.9582723e-9, -4.6910169e-9, 8.0000023e+1
-0.140, 8.9958965e-9, -4.7069930e-9, 8.0333359e+1
-0.141, 8.9606687e-9, -4.6728839e-9, 8.0666695e+1
-0.142, 8.9979739e-9, -4.6600230e-9, 8.1000031e+1
-0.143, 9.0119530e-9, -4.6475614e-9, 8.1333366e+1
-0.144, 9.0133110e-9, -4.6506772e-9, 8.1666702e+1
-0.145, 8.9771248e-9, -4.6377360e-9, 8.2000038e+1
-0.146, 9.0278496e-9, -4.6507567e-9, 8.2333374e+1
-0.147, 9.0423873e-9, -4.6351003e-9, 8.2666710e+1
-0.148, 9.0387928e-9, -4.6144111e-9, 8.3000046e+1
-0.149, 9.0561274e-9, -4.6193636e-9, 8.3333382e+1
-0.150, 9.0717043e-9, -4.6179256e-9, 8.3666718e+1
-0.151, 9.0614787e-9, -4.6140114e-9, 8.4000053e+1
-0.152, 9.1147605e-9, -4.6058637e-9, 8.4333389e+1
-0.153, 9.1276204e-9, -4.5953192e-9, 8.4666725e+1
-0.154, 9.1652446e-9, -4.5983546e-9, 8.5000061e+1
-0.155, 9.1636476e-9, -4.6009907e-9, 8.5333397e+1
-0.156, 9.2468042e-9, -4.5916444e-9, 8.5666733e+1
-0.157, 9.2528749e-9, -4.5897277e-9, 8.6000069e+1
-0.158, 9.3520871e-9, -4.5871711e-9, 8.6333405e+1
-0.159, 9.3817238e-9, -4.5857331e-9, 8.6666740e+1
-0.160, 9.1991943e-9, -4.5695177e-9, 8.7000076e+1
-0.161, 9.2170884e-9, -4.5840558e-9, 8.7333412e+1
-0.162, 9.3946637e-9, -4.5702366e-9, 8.7666748e+1
-0.163, 9.3777288e-9, -4.5621684e-9, 8.8000084e+1
-0.164, 9.4642401e-9, -4.5742303e-9, 8.8333420e+1
-0.165, 9.4777404e-9, -4.5481889e-9, 8.8666756e+1
-0.166, 9.4348440e-9, -4.5594524e-9, 8.9000092e+1
-0.167, 9.4902814e-9, -4.5655235e-9, 8.9333427e+1
-0.168, 9.5532284e-9, -4.5503459e-9, 8.9666763e+1
-0.169, 9.4773416e-9, -4.5364468e-9, 9.0000099e+1
-0.170, 9.4945953e-9, -4.5286983e-9, 9.0333435e+1
-0.171, 9.5052997e-9, -4.5348494e-9, 9.0666771e+1
-0.172, 9.5187191e-9, -4.5318136e-9, 9.1000107e+1
-0.173, 9.5508312e-9, -4.5244648e-9, 9.1333443e+1
-0.174, 9.5176009e-9, -4.5212696e-9, 9.1666779e+1
-0.175, 9.6212869e-9, -4.5101660e-9, 9.2000114e+1
-0.176, 9.5973220e-9, -4.4807695e-9, 9.2333450e+1
-0.177, 9.4927577e-9, -4.4602397e-9, 9.2666786e+1
-0.178, 9.9129336e-9, -4.5243049e-9, 9.3000122e+1
-0.179, 9.7818482e-9, -4.5316542e-9, 9.3333458e+1
-0.180, 9.8557384e-9, -4.5184736e-9, 9.3666794e+1
-0.181, 9.9539923e-9, -4.5201509e-9, 9.4000130e+1
-0.182, 9.9190842e-9, -4.5361275e-9, 9.4333466e+1
-0.183, 9.9482413e-9, -4.4937902e-9, 9.4666801e+1
-0.184, 9.9747615e-9, -4.5268611e-9, 9.5000137e+1
-0.185, 1.0000483e-8, -4.5140003e-9, 9.5333473e+1
-0.186, 9.9798738e-9, -4.5155977e-9, 9.5666809e+1
-0.187, 9.9968087e-9, -4.5193520e-9, 9.6000145e+1
-0.188, 1.0046974e-8, -4.5175148e-9, 9.6333481e+1
-0.189, 9.9923350e-9, -4.4464206e-9, 9.6666817e+1
-0.190, 9.9915365e-9, -4.4119122e-9, 9.7000153e+1
-0.191, 1.0021252e-8, -4.4298849e-9, 9.7333488e+1
-0.192, 1.0026205e-8, -4.4165449e-9, 9.7666824e+1
-0.193, 1.0038506e-8, -4.4177431e-9, 9.8000160e+1
-0.194, 1.0339819e-8, -4.4326010e-9, 9.8333496e+1
-0.195, 1.0089710e-8, -4.4175037e-9, 9.8666832e+1
-0.196, 1.0207295e-8, -4.4227759e-9, 9.9000168e+1
-0.197, 1.0347487e-8, -4.4051220e-9, 9.9333504e+1
-0.198, 1.0321446e-8, -4.4193409e-9, 9.9666840e+1
-0.199, 1.0337502e-8, -4.4384323e-9, 1.0000018e+2
-0.200, 1.0433839e-8, -4.4123909e-9, 1.0033351e+2
-0.201, 1.0372331e-8, -4.4178230e-9, 1.0066685e+2
-0.202, 1.0479211e-8, -4.3984119e-9, 1.0100018e+2
-0.203, 1.0466909e-8, -4.3613473e-9, 1.0133352e+2
-0.204, 1.0482407e-8, -4.3591104e-9, 1.0166685e+2
-0.205, 1.0242283e-8, -4.3879478e-9, 1.0200019e+2
-0.206, 1.0489117e-8, -4.3698947e-9, 1.0233353e+2
-0.207, 1.0540879e-8, -4.3810777e-9, 1.0266686e+2
-0.208, 1.0534889e-8, -4.3510422e-9, 1.0300020e+2
-0.209, 1.0664776e-8, -4.3923407e-9, 1.0333353e+2
-0.210, 1.0640412e-8, -4.3682169e-9, 1.0366687e+2
-0.211, 1.0579861e-8, -4.3611070e-9, 1.0400021e+2
-0.212, 1.0652953e-8, -4.3518416e-9, 1.0433354e+2
-0.213, 1.0783319e-8, -4.3771635e-9, 1.0466688e+2
-0.214, 1.0729000e-8, -4.3849120e-9, 1.0500021e+2
-0.215, 1.0871428e-8, -4.5239053e-9, 1.0533355e+2
-0.216, 1.0922633e-8, -4.4402695e-9, 1.0566689e+2
-0.217, 1.0851938e-8, -4.3320307e-9, 1.0600022e+2
-0.218, 1.0829091e-8, -4.3280366e-9, 1.0633356e+2
-0.219, 1.0927585e-8, -4.3456900e-9, 1.0666689e+2
-0.220, 1.0925667e-8, -4.3578323e-9, 1.0700023e+2
-0.221, 1.0949552e-8, -4.3375428e-9, 1.0733356e+2
-0.222, 1.0962972e-8, -4.3927404e-9, 1.0766690e+2
-0.223, 1.0991569e-8, -4.3590305e-9, 1.0800024e+2
-0.224, 1.1089185e-8, -4.3981725e-9, 1.0833357e+2
-0.225, 1.1003313e-8, -4.4004089e-9, 1.0866691e+2
-0.226, 1.1112510e-8, -4.5089679e-9, 1.0900024e+2
-0.227, 1.1328829e-8, -4.4054413e-9, 1.0933358e+2
-0.228, 1.1171143e-8, -4.4113531e-9, 1.0966692e+2
-0.229, 1.1385784e-8, -4.3964947e-9, 1.1000025e+2
-0.230, 1.1362857e-8, -4.4554471e-9, 1.1033359e+2
-0.231, 1.1377876e-8, -4.4308437e-9, 1.1066692e+2
-0.232, 1.1436429e-8, -4.4362758e-9, 1.1100026e+2
-0.233, 1.1404317e-8, -4.4356367e-9, 1.1133360e+2
-0.234, 1.1453044e-8, -4.4474593e-9, 1.1166693e+2
-0.235, 1.1469419e-8, -4.4660715e-9, 1.1200027e+2
-0.236, 1.1511357e-8, -4.4755772e-9, 1.1233360e+2
-0.237, 1.1514632e-8, -4.4666306e-9, 1.1266694e+2
-0.238, 1.1597868e-8, -4.4858819e-9, 1.1300027e+2
-0.239, 1.1699318e-8, -4.5061714e-9, 1.1333361e+2
-0.240, 1.1849973e-8, -4.6795141e-9, 1.1366695e+2
-0.241, 1.1965002e-8, -4.6989252e-9, 1.1400028e+2
-0.242, 1.2225734e-8, -4.8081228e-9, 1.1433362e+2
-0.243, 1.2005582e-8, -4.5227071e-9, 1.1466695e+2
-0.244, 1.1922106e-8, -4.5196717e-9, 1.1500029e+2
-0.245, 1.1979541e-8, -4.5346091e-9, 1.1533363e+2
-0.246, 1.1979301e-8, -4.5566568e-9, 1.1566696e+2
-0.247, 1.2022357e-8, -4.5616892e-9, 1.1600030e+2
-0.248, 1.2162309e-8, -4.5866919e-9, 1.1633363e+2
-0.249, 1.2211835e-8, -4.5874908e-9, 1.1666697e+2
-0.250, 1.2256010e-8, -4.5895678e-9, 1.1700031e+2
-0.251, 1.2388453e-8, -4.5967572e-9, 1.1733364e+2
-0.252, 1.2408823e-8, -4.6172866e-9, 1.1766698e+2
-0.253, 1.2421045e-8, -4.6247952e-9, 1.1800031e+2
-0.254, 1.2433826e-8, -4.6410116e-9, 1.1833365e+2
-0.255, 1.2480796e-8, -4.6660937e-9, 1.1866698e+2
-0.256, 1.2522174e-8, -4.6752002e-9, 1.1900032e+2
-0.257, 1.2474724e-8, -4.7142623e-9, 1.1933366e+2
-0.258, 1.2636085e-8, -4.7716968e-9, 1.1966699e+2
-0.259, 1.2626019e-8, -4.7932649e-9, 1.2000033e+2
-0.260, 1.2788019e-8, -4.8423119e-9, 1.2033366e+2
-0.261, 1.2790655e-8, -4.8581286e-9, 1.2066700e+2
-0.262, 1.2877885e-8, -4.8586077e-9, 1.2100034e+2
-0.263, 1.2875969e-8, -4.9326578e-9, 1.2133367e+2
-0.264, 1.2892904e-8, -4.9471165e-9, 1.2166701e+2
-0.265, 1.3139656e-8, -4.9538262e-9, 1.2200034e+2
-0.266, 1.3043718e-8, -4.8813740e-9, 1.2233368e+2
-0.267, 1.2809827e-8, -4.9947255e-9, 1.2266702e+2
-0.268, 1.2969589e-8, -4.9978404e-9, 1.2300035e+2
-0.269, 1.3098277e-8, -5.0237223e-9, 1.2333369e+2
-0.270, 1.3125198e-8, -5.0205267e-9, 1.2366702e+2
-0.271, 1.3196771e-8, -5.0326689e-9, 1.2400036e+2
-0.272, 1.3131589e-8, -5.0566333e-9, 1.2433369e+2
-0.273, 1.3189422e-8, -5.0416156e-9, 1.2466703e+2
-0.274, 1.3386808e-8, -5.0382609e-9, 1.2500037e+2
-0.275, 1.3357173e-8, -5.0698135e-9, 1.2533370e+2
-0.276, 1.3417882e-8, -5.5497402e-9, 1.2566704e+2
-0.277, 1.3759615e-8, -5.3461227e-9, 1.2600037e+2
-0.278, 1.3581878e-8, -5.4428595e-9, 1.2633371e+2
-0.279, 1.3470125e-8, -5.0865889e-9, 1.2666705e+2
-0.280, 1.3433539e-8, -5.0909024e-9, 1.2700038e+2
-0.281, 1.3399510e-8, -5.1499347e-9, 1.2733372e+2
-0.282, 1.3735490e-8, -5.2093663e-9, 1.2766705e+2
-0.283, 1.3461098e-8, -5.1264495e-9, 1.2800038e+2
-0.284, 1.3551204e-8, -5.1420264e-9, 1.2833371e+2
-0.285, 1.3510944e-8, -5.1243725e-9, 1.2866704e+2
-0.286, 1.3538903e-8, -5.1391504e-9, 1.2900037e+2
-0.287, 1.3619903e-8, -5.1913931e-9, 1.2933369e+2
-0.288, 1.3595378e-8, -5.1734994e-9, 1.2966702e+2
-0.289, 1.3611914e-8, -5.2030558e-9, 1.3000035e+2
-0.290, 1.3835820e-8, -5.3023479e-9, 1.3033368e+2
-0.291, 1.3685804e-8, -5.2691171e-9, 1.3066701e+2
-0.292, 1.3752584e-8, -5.2513838e-9, 1.3100034e+2
-0.293, 1.3891419e-8, -5.2576943e-9, 1.3133366e+2
-0.294, 1.3822082e-8, -5.2556972e-9, 1.3166699e+2
-0.295, 1.3799715e-8, -5.2648037e-9, 1.3200032e+2
-0.296, 1.3864019e-8, -5.2854134e-9, 1.3233365e+2
-0.297, 1.3887026e-8, -5.3124931e-9, 1.3266698e+2
-0.298, 1.3884469e-8, -5.4328742e-9, 1.3300031e+2
-0.299, 1.4044391e-8, -5.3964482e-9, 1.3333363e+2
-0.300, 1.3934714e-8, -5.3708060e-9, 1.3366696e+2
-0.301, 1.3913945e-8, -5.3613003e-9, 1.3400029e+2
-0.302, 1.3933116e-8, -5.4188947e-9, 1.3433362e+2
-0.303, 1.4045351e-8, -5.4923857e-9, 1.3466695e+2
-0.304, 1.4248008e-8, -5.4853557e-9, 1.3500027e+2
-0.305, 1.4045351e-8, -5.3753597e-9, 1.3533360e+2
-0.306, 1.4074427e-8, -5.3918150e-9, 1.3566693e+2
-0.307, 1.4058849e-8, -5.3991642e-9, 1.3600026e+2
-0.308, 1.4104780e-8, -5.4101879e-9, 1.3633359e+2
-0.309, 1.4269176e-8, -5.3964482e-9, 1.3666692e+2
-0.310, 1.4262067e-8, -5.3936522e-9, 1.3700024e+2
-0.311, 1.4217574e-8, -5.4209717e-9, 1.3733357e+2
-0.312, 1.4286271e-8, -5.4038769e-9, 1.3766690e+2
-0.313, 1.4300650e-8, -5.4481313e-9, 1.3800023e+2
-0.314, 1.4346582e-8, -5.4685008e-9, 1.3833356e+2
-0.315, 1.4368150e-8, -5.4394240e-9, 1.3866689e+2
-0.316, 1.4385004e-8, -5.4270428e-9, 1.3900021e+2
-0.317, 1.4373023e-8, -5.5189062e-9, 1.3933354e+2
-0.318, 1.4401220e-8, -5.4309570e-9, 1.3966687e+2
-0.319, 1.4421350e-8, -5.4390248e-9, 1.4000020e+2
-0.320, 1.4384606e-8, -5.4419806e-9, 1.4033353e+2
-0.321, 1.4401301e-8, -5.4356697e-9, 1.4066685e+2
-0.322, 1.4496279e-8, -5.5102789e-9, 1.4100018e+2
-0.323, 1.4683281e-8, -5.4411018e-9, 1.4133351e+2
-0.324, 1.4407851e-8, -5.4555604e-9, 1.4166684e+2
-0.325, 1.4506345e-8, -5.4571578e-9, 1.4200017e+2
-0.326, 1.4462889e-8, -5.4576370e-9, 1.4233350e+2
-0.327, 1.4552036e-8, -5.4827201e-9, 1.4266682e+2
-0.328, 1.4507543e-8, -5.4349507e-9, 1.4300015e+2
-0.329, 1.4548521e-8, -5.4722555e-9, 1.4333348e+2
-0.330, 1.4548122e-8, -5.4702585e-9, 1.4366681e+2
-0.331, 1.4612507e-8, -5.5370393e-9, 1.4400014e+2
-0.332, 1.4797990e-8, -5.4602731e-9, 1.4433347e+2
-0.333, 1.4677609e-8, -5.4750515e-9, 1.4466679e+2
-0.334, 1.4709403e-8, -5.4818412e-9, 1.4500012e+2
-0.335, 1.4684240e-8, -5.5062048e-9, 1.4533345e+2
-0.336, 1.4799587e-8, -5.4730545e-9, 1.4566678e+2
-0.337, 1.4747906e-8, -5.4909477e-9, 1.4600011e+2
-0.338, 1.4790722e-8, -5.4829594e-9, 1.4633344e+2
-0.339, 1.4794316e-8, -5.4716964e-9, 1.4666676e+2
-0.340, 1.4817083e-8, -5.4819211e-9, 1.4700009e+2
-0.341, 1.4863015e-8, -5.4830394e-9, 1.4733342e+2
-0.342, 1.4855505e-8, -5.4970983e-9, 1.4766675e+2
-0.343, 1.4867727e-8, -5.4914269e-9, 1.4800008e+2
-0.344, 1.4890174e-8, -5.5019709e-9, 1.4833340e+2
-0.345, 1.4864291e-8, -5.4885509e-9, 1.4866673e+2
-0.346, 1.4880029e-8, -5.5033293e-9, 1.4900006e+2
-0.347, 1.4889295e-8, -5.5083618e-9, 1.4933339e+2
-0.348, 1.4896405e-8, -5.4977378e-9, 1.4966672e+2
-0.349, 1.4912780e-8, -5.5085216e-9, 1.5000005e+2
-0.350, 1.4910784e-8, -5.5139533e-9, 1.5033337e+2
-0.351, 1.5193244e-8, -5.5477432e-9, 1.5066670e+2
-0.352, 1.4939859e-8, -5.5288911e-9, 1.5100003e+2
-0.353, 1.4913660e-8, -5.5205835e-9, 1.5133336e+2
-0.354, 1.5101779e-8, -5.5272937e-9, 1.5166669e+2
-0.355, 1.5032443e-8, -5.5115570e-9, 1.5200002e+2
-0.356, 1.5216170e-8, -5.5380776e-9, 1.5233334e+2
-0.357, 1.5153303e-8, -5.5146723e-9, 1.5266667e+2
-0.358, 1.5041948e-8, -5.4975779e-9, 1.5300000e+2
-0.359, 1.5121431e-8, -5.5265748e-9, 1.5333333e+2
-0.360, 1.5202749e-8, -5.5220215e-9, 1.5366666e+2
-0.361, 1.5152743e-8, -5.5259357e-9, 1.5399998e+2
-0.362, 1.5187650e-8, -5.5230598e-9, 1.5433331e+2
-0.363, 1.5259623e-8, -5.5372786e-9, 1.5466664e+2
-0.364, 1.5263778e-8, -5.5389560e-9, 1.5499997e+2
-0.365, 1.5317779e-8, -5.5681131e-9, 1.5533330e+2
-0.366, 1.5334074e-8, -5.5470242e-9, 1.5566663e+2
-0.367, 1.5327842e-8, -5.7384195e-9, 1.5599995e+2
-0.368, 1.5359635e-8, -5.5604445e-9, 1.5633328e+2
-0.369, 1.5337109e-8, -5.5362404e-9, 1.5666661e+2
-0.370, 1.5380007e-8, -5.5434293e-9, 1.5699994e+2
-0.371, 1.5376251e-8, -5.5506191e-9, 1.5733327e+2
-0.372, 1.5399097e-8, -5.5875242e-9, 1.5766660e+2
-0.373, 1.5420266e-8, -5.8883569e-9, 1.5799992e+2
-0.374, 1.5517880e-8, -5.5485421e-9, 1.5833325e+2
-0.375, 1.5387995e-8, -5.5549325e-9, 1.5866658e+2
-0.376, 1.5426735e-8, -5.5455862e-9, 1.5899991e+2
-0.377, 1.5524350e-8, -6.2242576e-9, 1.5933324e+2
-0.378, 1.5656315e-8, -5.5609233e-9, 1.5966656e+2
-0.379, 1.5653519e-8, -5.8731797e-9, 1.5999989e+2
-0.380, 1.6186805e-8, -5.5854472e-9, 1.6033322e+2
-0.381, 1.5770944e-8, -5.6851386e-9, 1.6066655e+2
-0.382, 1.5758085e-8, -5.6106098e-9, 1.6099988e+2
-0.383, 1.5792992e-8, -5.6733165e-9, 1.6133321e+2
-0.384, 1.5750494e-8, -5.6678848e-9, 1.6166653e+2
-0.385, 1.6045655e-8, -6.5164625e-9, 1.6199986e+2
-0.386, 1.5954910e-8, -5.5661959e-9, 1.6233319e+2
-0.387, 1.5776935e-8, -5.6200355e-9, 1.6266652e+2
-0.388, 1.5787000e-8, -5.6088525e-9, 1.6299985e+2
-0.389, 1.5949718e-8, -5.5952727e-9, 1.6333318e+2
-0.390, 1.6646762e-8, -5.7990497e-9, 1.6366650e+2
-0.391, 1.5851784e-8, -5.5834501e-9, 1.6399983e+2
-0.392, 1.6220676e-8, -5.6685234e-9, 1.6433316e+2
-0.393, 1.5861929e-8, -5.5864056e-9, 1.6466649e+2
-0.394, 1.5865524e-8, -5.5835301e-9, 1.6499982e+2
-0.395, 1.5893882e-8, -5.5824914e-9, 1.6533315e+2
-0.396, 1.5917607e-8, -5.5935154e-9, 1.6566647e+2
-0.397, 1.5899394e-8, -5.5856870e-9, 1.6599980e+2
-0.398, 1.5931825e-8, -5.5784177e-9, 1.6633313e+2
-0.399, 1.5994132e-8, -5.5923968e-9, 1.6666646e+2
-0.400, 1.6029999e-8, -5.5975891e-9, 1.6699979e+2
-0.401, 1.5985824e-8, -5.5898406e-9, 1.6733311e+2
-0.402, 1.6153177e-8, -5.5875242e-9, 1.6766644e+2
-0.403, 1.6122423e-8, -5.5864056e-9, 1.6799977e+2
-0.404, 1.6132486e-8, -5.5876836e-9, 1.6833310e+2
-0.405, 1.6279868e-8, -5.6180389e-9, 1.6866643e+2
-0.406, 1.6259257e-8, -5.6284231e-9, 1.6899976e+2
-0.407, 1.6272439e-8, -5.6344942e-9, 1.6933308e+2
-0.408, 1.6301675e-8, -5.6118079e-9, 1.6966641e+2
-0.409, 1.6308704e-8, -5.6027014e-9, 1.6999974e+2
-0.410, 1.6355115e-8, -5.7546354e-9, 1.7033307e+2
-0.411, 1.6365021e-8, -5.6571805e-9, 1.7066640e+2
-0.412, 1.6491313e-8, -5.6331362e-9, 1.7099973e+2
-0.413, 1.6368775e-8, -5.6094915e-9, 1.7133305e+2
-0.414, 1.6368856e-8, -5.6328169e-9, 1.7166638e+2
-0.415, 1.6426130e-8, -5.6336953e-9, 1.7199971e+2
-0.416, 1.6432839e-8, -5.6269855e-9, 1.7233304e+2
-0.417, 1.6426689e-8, -5.6671658e-9, 1.7266637e+2
-0.418, 1.6512162e-8, -5.6387282e-9, 1.7299969e+2
-0.419, 1.6447778e-8, -5.6589382e-9, 1.7333302e+2
-0.420, 1.6515278e-8, -5.6781890e-9, 1.7366635e+2
-0.421, 1.6726004e-8, -5.6967218e-9, 1.7399968e+2
-0.422, 1.6699085e-8, -5.6968816e-9, 1.7433301e+2
-0.423, 1.6622399e-8, -5.9064900e-9, 1.7466634e+2
-0.424, 1.8245265e-8, -7.8662961e-9, 1.7499966e+2
-0.425, 1.9410892e-8, -5.8556857e-9, 1.7533299e+2
-0.426, 1.6792466e-8, -5.7315499e-9, 1.7566632e+2
-0.427, 1.6788233e-8, -5.7630229e-9, 1.7599965e+2
-0.428, 1.6834083e-8, -5.7444907e-9, 1.7633298e+2
-0.429, 1.6836001e-8, -5.7166121e-9, 1.7666631e+2
-0.430, 1.6831448e-8, -5.7047895e-9, 1.7699963e+2
-0.431, 1.6877859e-8, -5.7690941e-9, 1.7733296e+2
-0.432, 1.8182158e-8, -6.5389893e-9, 1.7766629e+2
-0.433, 1.6966048e-8, -5.7663780e-9, 1.7799962e+2
-0.434, 1.8171376e-8, -8.7250998e-9, 1.7833295e+2
-0.435, 2.0288788e-8, -9.4470662e-9, 1.7866628e+2
-0.436, 2.1145993e-8, -8.7235019e-9, 1.7899960e+2
-0.437, 2.0455021e-8, -9.3408241e-9, 1.7933293e+2
-0.438, 2.0769752e-8, -9.4238208e-9, 1.7966626e+2
-0.439, 2.0677330e-8, -9.6151362e-9, 1.7999959e+2
-0.440, 2.1226434e-8, -9.9116546e-9, 1.8033292e+2
-0.441, 2.1162128e-8, -9.2215613e-9, 1.8066624e+2
-0.442, 2.0690511e-8, -9.4767021e-9, 1.8099957e+2
-0.443, 2.0659916e-8, -9.2392956e-9, 1.8133290e+2
-0.444, 2.0507903e-8, -9.1701180e-9, 1.8166623e+2
-0.445, 2.1216289e-8, -8.3282492e-9, 1.8199956e+2
-0.446, 1.9321186e-8, -8.3096374e-9, 1.8233289e+2
-0.447, 2.1136646e-8, -9.9245163e-9, 1.8266621e+2
-0.448, 2.1734717e-8, -9.5457997e-9, 1.8299954e+2
-0.449, 2.1166203e-8, -9.6964552e-9, 1.8333287e+2
-0.450, 2.1726011e-8, -1.0008391e-8, 1.8366620e+2
-0.451, 2.1268530e-8, -9.9299484e-9, 1.8399953e+2
-0.452, 2.1520396e-8, -1.0456765e-8, 1.8433286e+2
-0.453, 2.2081561e-8, -1.0142752e-8, 1.8466618e+2
-0.454, 2.2081961e-8, -3.2932949e-8, 1.8499951e+2
-0.455, 1.0419357e-7, -2.1663864e-8, 1.8533284e+2
-0.456, 2.1842558e-8, -9.1726733e-9, 1.8566617e+2
-0.457, 2.1021298e-8, -8.0440321e-9, 1.8599950e+2
-0.458, 1.9174523e-8, -6.9928743e-9, 1.8633282e+2
-0.459, 1.8937357e-8, -6.9464638e-9, 1.8666615e+2
-0.460, 1.8931525e-8, -7.1480044e-9, 1.8699948e+2
-0.461, 1.9103750e-8, -7.0713178e-9, 1.8733281e+2
-0.462, 1.8955170e-8, -6.9302479e-9, 1.8766614e+2
-0.463, 1.9167574e-8, -6.9927948e-9, 1.8799947e+2
-0.464, 1.9185707e-8, -7.0324959e-9, 1.8833279e+2
-0.465, 1.9293468e-8, -7.2145450e-9, 1.8866612e+2
-0.466, 1.9430942e-8, -7.2289237e-9, 1.8899945e+2
-0.467, 1.9423913e-8, -7.0405641e-9, 1.8933278e+2
-0.468, 1.9349464e-8, -7.0228303e-9, 1.8966611e+2
-0.469, 1.9401067e-8, -7.1286732e-9, 1.8999944e+2
-0.470, 1.9666194e-8, -7.3747866e-9, 1.9033276e+2
-0.471, 1.9646862e-8, -7.0312178e-9, 1.9066609e+2
-0.472, 1.9599652e-8, -7.4085764e-9, 1.9099942e+2
-0.473, 1.9775950e-8, -7.3079267e-9, 1.9133275e+2
-0.474, 1.9752305e-8, -7.3113613e-9, 1.9166608e+2
-0.475, 1.9806386e-8, -7.0971997e-9, 1.9199940e+2
-0.476, 1.9784338e-8, -7.1514390e-9, 1.9233273e+2
-0.477, 1.9804867e-8, -7.0686816e-9, 1.9266606e+2
-0.478, 1.9817170e-8, -7.0863360e-9, 1.9299939e+2
-0.479, 1.9905197e-8, -7.1320283e-9, 1.9333272e+2
-0.480, 1.9996742e-8, -7.1275550e-9, 1.9366605e+2
-0.481, 2.0067358e-8, -7.1767614e-9, 1.9399937e+2
-0.482, 2.0226640e-8, -7.1674155e-9, 1.9433270e+2
-0.483, 2.0261309e-8, -7.1945752e-9, 1.9466603e+2
-0.484, 2.0248208e-8, -7.1730866e-9, 1.9499936e+2
-0.485, 2.0346542e-8, -7.2128676e-9, 1.9533269e+2
-0.486, 2.0312431e-8, -7.1727673e-9, 1.9566602e+2
-0.487, 2.0432093e-8, -7.2647905e-9, 1.9599934e+2
-0.488, 2.0479943e-8, -7.3175119e-9, 1.9633267e+2
-0.489, 2.0749063e-8, -7.6426288e-9, 1.9666600e+2
-0.490, 2.0770871e-8, -7.3823760e-9, 1.9699933e+2
-0.491, 2.0742913e-8, -7.3894055e-9, 1.9733266e+2
-0.492, 2.0789162e-8, -7.3778219e-9, 1.9766599e+2
-0.493, 2.0814246e-8, -7.4058608e-9, 1.9799931e+2
-0.494, 2.0994857e-8, -7.4597013e-9, 1.9833264e+2
-0.495, 2.1188649e-8, -7.4890165e-9, 1.9866597e+2
-0.496, 2.1291536e-8, -7.5712148e-9, 1.9899930e+2
-0.497, 2.1379327e-8, -7.6226589e-9, 1.9933263e+2
-0.498, 2.1444508e-8, -7.8629414e-9, 1.9966595e+2
-0.499, 2.1559059e-8, -7.8468050e-9, 1.9999928e+2
-0.500, 2.1250637e-8, -7.9311597e-9, 2.0033261e+2
-0.499, 1.5706480e-8, -7.6272118e-9, 2.0066594e+2
-0.498, 1.4237624e-8, -7.5298363e-9, 2.0099927e+2
-0.497, 1.3081822e-8, -7.5268805e-9, 2.0133260e+2
-0.496, 1.2452278e-8, -7.4690467e-9, 2.0166592e+2
-0.495, 1.1923624e-8, -7.4828659e-9, 2.0199925e+2
-0.494, 1.1210125e-8, -7.4166446e-9, 2.0233258e+2
-0.493, 1.0726843e-8, -7.4216771e-9, 2.0266591e+2
-0.492, 1.0302035e-8, -7.4648128e-9, 2.0299924e+2
-0.491, 9.7025259e-9, -7.2552844e-9, 2.0333257e+2
-0.490, 9.6446922e-9, -7.6561291e-9, 2.0366589e+2
-0.489, 9.2242773e-9, -7.3321305e-9, 2.0399922e+2
-0.488, 8.6342746e-9, -7.0821824e-9, 2.0433255e+2
-0.487, 8.5176479e-9, -7.5101854e-9, 2.0466588e+2
-0.486, 8.0493043e-9, -7.2099122e-9, 2.0499921e+2
-0.485, 7.9361131e-9, -7.1059869e-9, 2.0533253e+2
-0.484, 7.3041715e-9, -7.0205139e-9, 2.0566586e+2
-0.483, 7.0701196e-9, -7.5354283e-9, 2.0599919e+2
-0.482, 7.6116349e-9, -7.7993558e-9, 2.0633252e+2
-0.481, 7.6004509e-9, -8.7866079e-9, 2.0666585e+2
-0.480, 8.1645730e-9, -8.2708951e-9, 2.0699918e+2
-0.479, 7.4537896e-9, -8.0572118e-9, 2.0733250e+2
-0.478, 6.6716725e-9, -7.8526368e-9, 2.0766583e+2
-0.477, 6.2487806e-9, -7.4924520e-9, 2.0799916e+2
-0.476, 5.8274074e-9, -7.8206837e-9, 2.0833249e+2
-0.475, 5.9996315e-9, -7.9651894e-9, 2.0866582e+2
-0.474, 6.2153105e-9, -7.9440206e-9, 2.0899915e+2
-0.473, 5.6371303e-9, -7.7175573e-9, 2.0933247e+2
-0.472, 5.7774816e-9, -7.0416020e-9, 2.0966580e+2
-0.471, 5.0575921e-9, -8.0886853e-9, 2.0999913e+2
-0.470, 5.7103815e-9, -7.6592439e-9, 2.1033246e+2
-0.469, 5.5943139e-9, -8.1654514e-9, 2.1066579e+2
-0.468, 5.4237677e-9, -9.0744994e-9, 2.1099911e+2
-0.467, 6.6975536e-9, -9.9675725e-9, 2.1133244e+2
-0.466, 7.0538237e-9, -9.5169623e-9, 2.1166577e+2
-0.465, 6.1013199e-9, -9.3311590e-9, 2.1199910e+2
-0.464, 6.4668568e-9, -9.2845873e-9, 2.1233243e+2
-0.463, 6.0045040e-9, -9.2842676e-9, 2.1266576e+2
-0.462, 5.7723692e-9, -9.2225196e-9, 2.1299908e+2
-0.461, 6.1889498e-9, -9.5724788e-9, 2.1333241e+2
-0.460, 5.9217471e-9, -9.6587511e-9, 2.1366574e+2
-0.459, 6.0012288e-9, -9.4958734e-9, 2.1399907e+2
-0.458, 5.7173311e-9, -9.7497361e-9, 2.1433240e+2
-0.457, 5.6346541e-9, -9.9928945e-9, 2.1466573e+2
-0.456, 5.3128124e-9, -9.1983958e-9, 2.1499905e+2
-0.455, 4.8839301e-9, -9.2251566e-9, 2.1533238e+2
-0.454, 5.5019709e-9, -9.7268096e-9, 2.1566571e+2
-0.453, 5.6057368e-9, -9.8090878e-9, 2.1599904e+2
-0.452, 5.1907540e-9, -9.8349693e-9, 2.1633237e+2
-0.451, 5.4422200e-9, -9.1269019e-9, 2.1666570e+2
-0.450, 4.9727582e-9, -9.3784482e-9, 2.1699902e+2
-0.449, 4.4270894e-9, -9.0933518e-9, 2.1733235e+2
-0.448, 4.7542827e-9, -8.8914121e-9, 2.1766568e+2
-0.447, 4.1399959e-9, -8.9082670e-9, 2.1799901e+2
-0.446, 4.1196264e-9, -8.6795673e-9, 2.1833234e+2
-0.445, 4.1976702e-9, -8.9376639e-9, 2.1866566e+2
-0.444, 3.7989034e-9, -8.9124210e-9, 2.1899899e+2
-0.443, 3.7897969e-9, -8.8712824e-9, 2.1933232e+2
-0.442, 3.9736836e-9, -8.8445216e-9, 2.1966565e+2
-0.441, 3.6214072e-9, -8.9863104e-9, 2.1999898e+2
-0.440, 3.9926151e-9, -8.9218473e-9, 2.2033231e+2
-0.439, 3.6671792e-9, -8.9834353e-9, 2.2066563e+2
-0.438, 3.6764454e-9, -8.9514023e-9, 2.2099896e+2
-0.437, 3.6736496e-9, -8.8531484e-9, 2.2133229e+2
-0.436, 3.5507921e-9, -8.9398196e-9, 2.2166562e+2
-0.435, 3.5321799e-9, -8.7759044e-9, 2.2199895e+2
-0.434, 3.1684806e-9, -8.8176018e-9, 2.2233228e+2
-0.433, 3.1930838e-9, -8.6948244e-9, 2.2266560e+2
-0.432, 3.3426215e-9, -8.5761203e-9, 2.2299893e+2
-0.431, 2.8656508e-9, -8.5332248e-9, 2.2333226e+2
-0.430, 3.0667917e-9, -8.8128891e-9, 2.2366559e+2
-0.429, 2.9993719e-9, -8.4086098e-9, 2.2399892e+2
-0.428, 2.6920688e-9, -8.4706775e-9, 2.2433224e+2
-0.427, 2.5783977e-9, -8.5698906e-9, 2.2466557e+2
-0.426, 3.0704663e-9, -8.4689198e-9, 2.2499890e+2
-0.425, 2.7520595e-9, -9.2396943e-9, 2.2533223e+2
-0.424, 3.6544778e-9, -9.5042614e-9, 2.2566556e+2
-0.423, 3.0943508e-9, -8.9394208e-9, 2.2599889e+2
-0.422, 2.8545473e-9, -9.0658725e-9, 2.2633221e+2
-0.421, 2.6911902e-9, -8.5439291e-9, 2.2666554e+2
-0.420, 2.2693374e-9, -8.7227834e-9, 2.2699887e+2
-0.419, 2.6323175e-9, -8.8137675e-9, 2.2733220e+2
-0.418, 2.7382403e-9, -8.9025152e-9, 2.2766553e+2
-0.417, 2.7538170e-9, -8.6806855e-9, 2.2799886e+2
-0.416, 2.1213173e-9, -8.2963769e-9, 2.2833218e+2
-0.415, 4.9549442e-10, -8.2117033e-9, 2.2866551e+2
-0.414, 2.9631857e-9, -9.3747738e-9, 2.2899884e+2
-0.413, 2.9523219e-9, -9.1042960e-9, 2.2933217e+2
-0.412, 2.9014375e-9, -9.2249159e-9, 2.2966550e+2
-0.411, 2.5434896e-9, -9.0660324e-9, 2.2999883e+2
-0.410, 2.6806457e-9, -8.7704723e-9, 2.3033215e+2
-0.409, 2.7582103e-9, -8.7160732e-9, 2.3066548e+2
-0.408, 2.3044051e-9, -8.9535597e-9, 2.3099881e+2
-0.407, 2.2112636e-9, -8.5389766e-9, 2.3133214e+2
-0.406, 1.9234514e-9, -8.4743519e-9, 2.3166547e+2
-0.405, 1.6694290e-9, -8.1640135e-9, 2.3199879e+2
-0.404, 1.1318284e-9, -8.1076177e-9, 2.3233212e+2
-0.403, 1.6393937e-9, -8.7807770e-9, 2.3266545e+2
-0.402, 2.0522999e-9, -8.2771257e-9, 2.3299878e+2
-0.401, 1.6726245e-9, -8.5102183e-9, 2.3333211e+2
-0.400, 1.6022490e-9, -7.9520088e-9, 2.3366544e+2
-0.399, 1.3306528e-9, -8.1473184e-9, 2.3399876e+2
-0.398, 1.4204393e-9, -8.1958067e-9, 2.3433209e+2
-0.397, 1.6790150e-9, -8.4416811e-9, 2.3466542e+2
-0.396, 1.6806925e-9, -8.2657028e-9, 2.3499875e+2
-0.395, 1.6028082e-9, -8.4999945e-9, 2.3533208e+2
-0.394, 1.6294885e-9, -8.5408933e-9, 2.3566541e+2
-0.393, 1.6861244e-9, -8.5195646e-9, 2.3599873e+2
-0.392, 1.6251749e-9, -8.4602929e-9, 2.3633206e+2
-0.391, 1.6558492e-9, -8.4799439e-9, 2.3666539e+2
-0.390, 1.5099063e-9, -8.1674489e-9, 2.3699872e+2
-0.389, 1.1779998e-9, -8.0894047e-9, 2.3733205e+2
-0.388, 7.9848406e-10, -7.9374702e-9, 2.3766537e+2
-0.387, 1.0892517e-9, -8.0012956e-9, 2.3799870e+2
-0.386, 1.0532253e-9, -8.4053342e-9, 2.3833203e+2
-0.385, 1.2251297e-9, -8.4341725e-9, 2.3866536e+2
-0.384, 1.2781709e-9, -8.4038172e-9, 2.3899869e+2
-0.383, 1.1651389e-9, -8.4264231e-9, 2.3933202e+2
-0.382, 1.1299113e-9, -8.4230685e-9, 2.3966534e+2
-0.381, 5.7122185e-10, -7.0873747e-9, 2.3999867e+2
-0.380, 3.7239747e-10, -8.0889251e-9, 2.4033200e+2
-0.379, 7.1109396e-10, -7.8082225e-9, 2.4066533e+2
-0.378, 7.1141343e-10, -8.0205469e-9, 2.4099866e+2
-0.377, 6.6532196e-10, -8.1465190e-9, 2.4133199e+2
-0.376, 8.9138591e-10, -7.7634885e-9, 2.4166531e+2
-0.375, 5.3535520e-10, -7.9709404e-9, 2.4199864e+2
-0.374, 7.1317086e-10, -7.9181390e-9, 2.4233197e+2
-0.373, 6.2474231e-10, -8.0733482e-9, 2.4266530e+2
-0.372, 6.7650535e-10, -8.0175111e-9, 2.4299863e+2
-0.371, 6.9631589e-10, -8.0063280e-9, 2.4333195e+2
-0.370, 6.6180716e-10, -7.9298017e-9, 2.4366528e+2
-0.369, 3.0537711e-10, -7.7038180e-9, 2.4399861e+2
-0.368, 5.7593486e-10, -7.8635001e-9, 2.4433194e+2
-0.367, 1.7756713e-10, -7.7687616e-9, 2.4466527e+2
-0.366, 2.1894560e-10, -7.8325861e-9, 2.4499860e+2
-0.365, 3.8789444e-10, -7.8975297e-9, 2.4533192e+2
-0.364, 3.8901277e-10, -7.9011251e-9, 2.4566525e+2
-0.363, 3.4939168e-10, -7.9402662e-9, 2.4599858e+2
-0.362, 4.9102111e-10, -7.8232398e-9, 2.4633191e+2
-0.361, -2.3182421e-10, -7.7197937e-9, 2.4666524e+2
-0.360, 7.4999703e-12, -7.4142479e-9, 2.4699857e+2
-0.359, -8.0289511e-11, -7.6550899e-9, 2.4733189e+2
-0.358, 4.9916907e-11, -7.5984543e-9, 2.4766522e+2
-0.357, 1.3251419e-11, -7.4610584e-9, 2.4799855e+2
-0.356, -1.7638664e-10, -7.4615381e-9, 2.4833188e+2
-0.355, -2.8598368e-10, -7.3251010e-9, 2.4866521e+2
-0.354, -2.8246894e-10, -7.4401298e-9, 2.4899854e+2
-0.353, -2.5794539e-10, -7.2536066e-9, 2.4933186e+2
-0.352, -2.6201932e-10, -7.2468169e-9, 2.4966519e+2
-0.351, -4.4191187e-10, -7.8152524e-9, 2.4999852e+2
-0.350, 8.3626793e-11, -7.5571558e-9, 2.5033185e+2
-0.349, -2.8726180e-10, -7.5069906e-9, 2.5066518e+2
-0.348, -3.0451616e-10, -7.4376532e-9, 2.5099850e+2
-0.347, -3.5572004e-10, -7.4063400e-9, 2.5133183e+2
-0.346, -4.3687937e-10, -6.8013191e-9, 2.5166516e+2
-0.345, -1.0057136e-9, -7.1690129e-9, 2.5199849e+2
-0.344, -6.9114131e-10, -7.3147164e-9, 2.5233182e+2
-0.343, -6.6462075e-10, -7.4480377e-9, 2.5266515e+2
-0.342, -7.3619433e-10, -6.8380648e-9, 2.5299847e+2
-0.341, -9.0729996e-10, -7.1472854e-9, 2.5333180e+2
-0.340, -7.7222079e-10, -7.0562205e-9, 2.5366513e+2
-0.339, -7.2732753e-10, -7.0422410e-9, 2.5399846e+2
-0.338, -9.5698616e-10, -7.2425834e-9, 2.5433179e+2
-0.337, -8.0353424e-10, -6.9825701e-9, 2.5466512e+2
-0.336, -9.5986186e-10, -7.1199655e-9, 2.5499844e+2
-0.335, -7.9690415e-10, -7.4003488e-9, 2.5533177e+2
-0.334, -8.1120283e-10, -7.0388064e-9, 2.5566510e+2
-0.333, -8.3181223e-10, -7.1469657e-9, 2.5599843e+2
-0.332, -8.2030932e-10, -7.3119200e-9, 2.5633176e+2
-0.331, -7.9962009e-10, -7.3480266e-9, 2.5666510e+2
-0.330, -8.2542173e-10, -7.2726190e-9, 2.5699844e+2
-0.329, -1.0070716e-9, -6.8236061e-9, 2.5733179e+2
-0.328, -1.0772873e-9, -7.2953052e-9, 2.5766513e+2
-0.327, -7.6670897e-10, -7.3588908e-9, 2.5799847e+2
-0.326, -7.2884526e-10, -7.7054150e-9, 2.5833182e+2
-0.325, -4.0844161e-10, -7.5248039e-9, 2.5866516e+2
-0.324, -7.4585998e-10, -6.9350405e-9, 2.5899850e+2
-0.323, -1.2209137e-9, -7.1050281e-9, 2.5933185e+2
-0.322, -1.2642892e-9, -6.7890173e-9, 2.5966519e+2
-0.321, -1.2821028e-9, -7.5188931e-9, 2.5999854e+2
-0.320, -7.3531570e-10, -7.3332491e-9, 2.6033188e+2
-0.319, -1.2120469e-9, -7.0307382e-9, 2.6066522e+2
-0.318, -1.3637413e-9, -7.0566997e-9, 2.6099857e+2
-0.317, -1.2322569e-9, -6.9638775e-9, 2.6133191e+2
-0.316, -1.4348357e-9, -6.6572934e-9, 2.6166525e+2
-0.315, -1.6971657e-9, -6.8584347e-9, 2.6199860e+2
-0.314, -1.2931263e-9, -6.8150587e-9, 2.6233194e+2
-0.313, -1.7693782e-9, -6.8477304e-9, 2.6266528e+2
-0.312, -1.8536531e-9, -6.5643917e-9, 2.6299863e+2
-0.311, -1.7850351e-9, -6.5829240e-9, 2.6333197e+2
-0.310, -2.2128790e-9, -6.3674848e-9, 2.6366531e+2
-0.309, -1.7960586e-9, -6.5879568e-9, 2.6399866e+2
-0.308, -1.8082006e-9, -6.5136674e-9, 2.6433200e+2
-0.307, -2.4931823e-9, -6.3163603e-9, 2.6466534e+2
-0.306, -2.2486657e-9, -6.0874208e-9, 2.6499869e+2
-0.305, -2.3307836e-9, -6.0315042e-9, 2.6533203e+2
-0.304, -2.7063853e-9, -6.4207653e-9, 2.6566537e+2
-0.303, -1.9484721e-9, -6.4559931e-9, 2.6599872e+2
-0.302, -2.2703135e-9, -6.4239609e-9, 2.6633206e+2
-0.301, -2.2319706e-9, -6.3943246e-9, 2.6666541e+2
-0.300, -2.2465889e-9, -6.3947239e-9, 2.6699875e+2
-0.299, -2.2333284e-9, -6.4547145e-9, 2.6733209e+2
-0.298, -2.3077780e-9, -6.3499908e-9, 2.6766544e+2
-0.297, -2.7186868e-9, -6.0053829e-9, 2.6799878e+2
-0.296, -2.7303497e-9, -6.0912551e-9, 2.6833212e+2
-0.295, -2.8793281e-9, -5.9369243e-9, 2.6866547e+2
-0.294, -2.5462232e-9, -6.1271219e-9, 2.6899881e+2
-0.293, -2.9235023e-9, -5.6698815e-9, 2.6933215e+2
-0.292, -2.8440206e-9, -5.2740701e-9, 2.6966550e+2
-0.291, -3.3363288e-9, -5.9619274e-9, 2.6999884e+2
-0.290, -2.8127072e-9, -5.3957292e-9, 2.7033218e+2
-0.289, -3.5579990e-9, -5.9633654e-9, 2.7066553e+2
-0.288, -3.1414185e-9, -5.1566444e-9, 2.7099887e+2
-0.287, -3.4388963e-9, -5.4149005e-9, 2.7133221e+2
-0.286, -3.3705179e-9, -5.5679532e-9, 2.7166556e+2
-0.285, -3.3091692e-9, -5.4871134e-9, 2.7199890e+2
-0.284, -3.6786996e-9, -5.3132920e-9, 2.7233224e+2
-0.283, -3.5951440e-9, -5.4854361e-9, 2.7266559e+2
-0.282, -3.5502505e-9, -5.3545102e-9, 2.7299893e+2
-0.281, -3.6501822e-9, -5.4530842e-9, 2.7333228e+2
-0.280, -3.6643211e-9, -5.5202642e-9, 2.7366562e+2
-0.279, -3.4856267e-9, -5.4339924e-9, 2.7399896e+2
-0.278, -3.7648116e-9, -5.3271911e-9, 2.7433231e+2
-0.277, -3.8698555e-9, -5.2526619e-9, 2.7466565e+2
-0.276, -3.8595509e-9, -5.2094462e-9, 2.7499899e+2
-0.275, -4.0260235e-9, -5.4059539e-9, 2.7533234e+2
-0.274, -3.9135504e-9, -5.0691749e-9, 2.7566568e+2
-0.273, -4.3149537e-9, -4.9639710e-9, 2.7599902e+2
-0.272, -4.3401163e-9, -4.9164419e-9, 2.7633237e+2
-0.271, -4.3446695e-9, -5.0083848e-9, 2.7666571e+2
-0.270, -4.4334176e-9, -4.9462376e-9, 2.7699905e+2
-0.269, -4.3540953e-9, -4.9661280e-9, 2.7733240e+2
-0.268, -4.5394999e-9, -4.9894533e-9, 2.7766574e+2
-0.267, -4.4471573e-9, -4.9829829e-9, 2.7799908e+2
-0.266, -4.4970032e-9, -4.9488733e-9, 2.7833243e+2
-0.265, -4.6887183e-9, -4.8268149e-9, 2.7866577e+2
-0.264, -4.7431974e-9, -4.6525139e-9, 2.7899911e+2
-0.263, -4.8543920e-9, -4.5897277e-9, 2.7933246e+2
-0.262, -4.9162994e-9, -4.6457242e-9, 2.7966580e+2
-0.261, -4.8566284e-9, -4.6822297e-9, 2.7999915e+2
-0.260, -4.8137321e-9, -4.7168984e-9, 2.8033249e+2
-0.259, -4.9066338e-9, -4.6368571e-9, 2.8066583e+2
-0.258, -5.0248583e-9, -4.5878901e-9, 2.8099918e+2
-0.257, -5.2290345e-9, -4.5744701e-9, 2.8133252e+2
-0.256, -5.1966031e-9, -4.5465116e-9, 2.8166586e+2
-0.255, -5.2604281e-9, -4.5381241e-9, 2.8199921e+2
-0.254, -5.3367946e-9, -4.5130415e-9, 2.8233255e+2
-0.253, -5.3149867e-9, -4.5615294e-9, 2.8266589e+2
-0.252, -5.3141083e-9, -4.5034558e-9, 2.8299924e+2
-0.251, -5.5626987e-9, -4.4032049e-9, 2.8333258e+2
-0.250, -5.6407425e-9, -4.3692552e-9, 2.8366592e+2
-0.249, -5.6709379e-9, -4.3238031e-9, 2.8399927e+2
-0.248, -5.7784582e-9, -4.1911199e-9, 2.8433261e+2
-0.247, -5.7761413e-9, -4.1356825e-9, 2.8466595e+2
-0.246, -5.8503509e-9, -4.2462385e-9, 2.8499930e+2
-0.245, -5.7891620e-9, -4.1008543e-9, 2.8533264e+2
-0.244, -6.1180332e-9, -4.0573989e-9, 2.8566599e+2
-0.243, -6.1852132e-9, -4.0032395e-9, 2.8599933e+2
-0.242, -6.1705152e-9, -4.0785673e-9, 2.8633267e+2
-0.241, -6.2447247e-9, -4.0068340e-9, 2.8666602e+2
-0.240, -6.2072605e-9, -4.0145824e-9, 2.8699936e+2
-0.239, -6.2765970e-9, -3.9211212e-9, 2.8733270e+2
-0.238, -6.6252790e-9, -3.8859738e-9, 2.8766605e+2
-0.237, -6.5247887e-9, -3.7904360e-9, 2.8799939e+2
-0.236, -6.6152936e-9, -3.8337311e-9, 2.8833273e+2
-0.235, -6.6293531e-9, -3.7661518e-9, 2.8866608e+2
-0.234, -6.6659385e-9, -3.6520817e-9, 2.8899942e+2
-0.233, -6.6561134e-9, -3.5874577e-9, 2.8933276e+2
-0.232, -6.7955064e-9, -3.6227652e-9, 2.8966611e+2
-0.231, -6.6372610e-9, -3.6435344e-9, 2.8999945e+2
-0.230, -7.1500192e-9, -3.5262686e-9, 2.9033279e+2
-0.229, -6.8202688e-9, -3.5130083e-9, 2.9066614e+2
-0.228, -7.0297972e-9, -3.5347361e-9, 2.9099948e+2
-0.227, -7.1192647e-9, -3.5176415e-9, 2.9133282e+2
-0.226, -7.1270132e-9, -3.5189993e-9, 2.9166617e+2
-0.225, -7.1828499e-9, -3.4810559e-9, 2.9199951e+2
-0.224, -7.1693504e-9, -3.4824137e-9, 2.9233286e+2
-0.223, -7.1743824e-9, -3.5026237e-9, 2.9266620e+2
-0.222, -7.2454767e-9, -3.5650110e-9, 2.9299954e+2
-0.221, -7.1894006e-9, -3.5500731e-9, 2.9333289e+2
-0.220, -7.2325363e-9, -3.5245113e-9, 2.9366623e+2
-0.219, -7.1254953e-9, -3.5602183e-9, 2.9399957e+2
-0.218, -7.2295006e-9, -3.5300229e-9, 2.9433292e+2
-0.217, -7.2211930e-9, -3.6074277e-9, 2.9466626e+2
-0.216, -7.2505095e-9, -3.5420054e-9, 2.9499960e+2
-0.215, -7.2178379e-9, -3.5380912e-9, 2.9533295e+2
-0.214, -7.2808648e-9, -3.5209164e-9, 2.9566629e+2
-0.213, -7.3304705e-9, -3.5004668e-9, 2.9599963e+2
-0.212, -7.3938957e-9, -3.5370524e-9, 2.9633298e+2
-0.211, -7.3077047e-9, -3.4880054e-9, 2.9666632e+2
-0.210, -7.3043496e-9, -3.5150052e-9, 2.9699966e+2
-0.209, -7.5586115e-9, -3.5027836e-9, 2.9733301e+2
-0.208, -7.4212156e-9, -3.4421537e-9, 2.9766635e+2
-0.207, -7.4870377e-9, -3.4790588e-9, 2.9799969e+2
-0.206, -7.5459896e-9, -3.5067775e-9, 2.9833304e+2
-0.205, -7.4291235e-9, -3.4697127e-9, 2.9866638e+2
-0.204, -7.3557929e-9, -3.4335264e-9, 2.9899973e+2
-0.203, -7.5723507e-9, -3.4634020e-9, 2.9933307e+2
-0.202, -7.6090965e-9, -3.4210650e-9, 2.9966641e+2
-0.201, -7.6069391e-9, -3.3967011e-9, 2.9999976e+2
-0.200, -7.6365758e-9, -3.4681951e-9, 3.0033310e+2
-0.199, -7.6138891e-9, -3.3658669e-9, 3.0066644e+2
-0.198, -7.6694864e-9, -3.3298406e-9, 3.0099979e+2
-0.197, -7.6113329e-9, -3.3911896e-9, 3.0133313e+2
-0.196, -7.6774747e-9, -3.3808050e-9, 3.0166647e+2
-0.195, -7.6412086e-9, -3.3180982e-9, 3.0199982e+2
-0.194, -7.7219688e-9, -3.1122440e-9, 3.0233316e+2
-0.193, -7.9616918e-9, -3.2116960e-9, 3.0266650e+2
-0.192, -7.7389828e-9, -3.1777467e-9, 3.0299985e+2
-0.191, -7.8572073e-9, -3.2043472e-9, 3.0333319e+2
-0.190, -7.9858964e-9, -3.1876519e-9, 3.0366653e+2
-0.189, -7.9212716e-9, -3.2035485e-9, 3.0399988e+2
-0.188, -7.8647160e-9, -3.2027494e-9, 3.0433322e+2
-0.187, -7.9658458e-9, -3.1830989e-9, 3.0466656e+2
-0.186, -7.8548110e-9, -3.1829390e-9, 3.0499991e+2
-0.185, -7.8781364e-9, -3.1818208e-9, 3.0533325e+2
-0.184, -8.0454869e-9, -3.0606409e-9, 3.0566660e+2
-0.183, -8.0680138e-9, -3.2198442e-9, 3.0599994e+2
-0.182, -7.8685511e-9, -3.1031375e-9, 3.0633328e+2
-0.181, -7.9323756e-9, -3.1981964e-9, 3.0666663e+2
-0.180, -8.0700104e-9, -3.3300802e-9, 3.0699997e+2
-0.179, -7.7972171e-9, -3.4537364e-9, 3.0733331e+2
-0.178, -8.0912601e-9, -3.0270106e-9, 3.0766666e+2
-0.177, -8.2125995e-9, -2.9973750e-9, 3.0800000e+2
-0.176, -8.2521403e-9, -2.9870701e-9, 3.0833334e+2
-0.175, -8.2392795e-9, -2.9897063e-9, 3.0866669e+2
-0.174, -8.3744389e-9, -2.9406593e-9, 3.0900003e+2
-0.173, -8.2148359e-9, -3.0095169e-9, 3.0933337e+2
-0.172, -8.3594207e-9, -2.9985732e-9, 3.0966672e+2
-0.171, -8.3528704e-9, -3.0123126e-9, 3.1000006e+2
-0.170, -8.2757046e-9, -2.9866709e-9, 3.1033340e+2
-0.169, -8.4098257e-9, -2.9825968e-9, 3.1066675e+2
-0.168, -8.3720417e-9, -2.9822773e-9, 3.1100009e+2
-0.167, -8.3788319e-9, -2.9762064e-9, 3.1133344e+2
-0.166, -8.3994411e-9, -2.9416978e-9, 3.1166678e+2
-0.165, -8.3981631e-9, -2.8981624e-9, 3.1200012e+2
-0.164, -8.5516954e-9, -2.8926506e-9, 3.1233347e+2
-0.163, -8.4954586e-9, -2.9358662e-9, 3.1266681e+2
-0.162, -8.4949789e-9, -2.9196505e-9, 3.1300015e+2
-0.161, -8.5665528e-9, -2.9525615e-9, 3.1333350e+2
-0.160, -8.4358671e-9, -2.9215674e-9, 3.1366684e+2
-0.159, -8.5749408e-9, -3.1151197e-9, 3.1400018e+2
-0.158, -8.3653315e-9, -2.9989726e-9, 3.1433353e+2
-0.157, -8.4496063e-9, -3.0429070e-9, 3.1466687e+2
-0.156, -8.3519121e-9, -2.9237244e-9, 3.1500021e+2
-0.155, -8.6148804e-9, -3.0095169e-9, 3.1533356e+2
-0.154, -8.5139114e-9, -2.8869789e-9, 3.1566690e+2
-0.153, -8.6160794e-9, -2.8695648e-9, 3.1600024e+2
-0.152, -8.6313365e-9, -2.8572633e-9, 3.1633359e+2
-0.151, -8.6154399e-9, -2.8489555e-9, 3.1666693e+2
-0.150, -8.6119254e-9, -2.8691656e-9, 3.1700027e+2
-0.149, -8.6028189e-9, -2.8406479e-9, 3.1733362e+2
-0.148, -8.6537035e-9, -2.9492864e-9, 3.1766696e+2
-0.147, -8.5061629e-9, -3.0369960e-9, 3.1800031e+2
-0.146, -8.5641565e-9, -2.9452922e-9, 3.1833365e+2
-0.145, -8.6184757e-9, -2.9621472e-9, 3.1866699e+2
-0.144, -8.6142418e-9, -3.0191025e-9, 3.1900034e+2
-0.143, -8.5330027e-9, -3.0203806e-9, 3.1933368e+2
-0.142, -8.6262242e-9, -2.9709342e-9, 3.1966702e+2
-0.141, -8.6160794e-9, -2.9802802e-9, 3.2000037e+2
-0.140, -8.6370084e-9, -2.9754075e-9, 3.2033371e+2
-0.139, -8.6365288e-9, -2.9686975e-9, 3.2066705e+2
-0.138, -8.6279011e-9, -2.9543190e-9, 3.2100040e+2
-0.137, -8.6326146e-9, -2.9833955e-9, 3.2133374e+2
-0.136, -8.7367793e-9, -2.8327396e-9, 3.2166708e+2
-0.135, -8.6962002e-9, -2.9475291e-9, 3.2200043e+2
-0.134, -8.6648066e-9, -2.9718130e-9, 3.2233377e+2
-0.133, -8.6608125e-9, -2.7352047e-9, 3.2266711e+2
-0.132, -8.8846406e-9, -2.6435809e-9, 3.2300046e+2
-0.131, -8.8552436e-9, -2.6724181e-9, 3.2333380e+2
-0.130, -8.7796765e-9, -2.8484761e-9, 3.2366714e+2
-0.129, -9.0619769e-9, -2.8752365e-9, 3.2400049e+2
-0.128, -8.7128154e-9, -2.8379319e-9, 3.2433383e+2
-0.127, -8.8235304e-9, -2.8783520e-9, 3.2466718e+2
-0.126, -8.8121874e-9, -2.9998510e-9, 3.2500052e+2
-0.125, -8.9187493e-9, -2.8074971e-9, 3.2533386e+2
-0.124, -8.9213055e-9, -2.7788998e-9, 3.2566721e+2
-0.123, -9.0810683e-9, -2.7313705e-9, 3.2600055e+2
-0.122, -9.1047925e-9, -2.8806684e-9, 3.2633389e+2
-0.121, -9.0891366e-9, -2.8800293e-9, 3.2666724e+2
-0.120, -9.0160448e-9, -2.8962452e-9, 3.2700058e+2
-0.119, -9.0366532e-9, -2.8767542e-9, 3.2733392e+2
-0.118, -9.1139789e-9, -2.8173226e-9, 3.2766727e+2
-0.117, -9.1443342e-9, -2.7656393e-9, 3.2800061e+2
-0.116, -9.1738102e-9, -2.8900944e-9, 3.2833395e+2
-0.115, -9.2028865e-9, -2.7076457e-9, 3.2866730e+2
-0.114, -9.2164667e-9, -2.6735363e-9, 3.2900064e+2
-0.113, -9.2695878e-9, -2.6302407e-9, 3.2933398e+2
-0.112, -9.4303090e-9, -2.7479856e-9, 3.2966733e+2
-0.111, -9.2211803e-9, -2.7526985e-9, 3.3000067e+2
-0.110, -9.4350217e-9, -2.7398377e-9, 3.3033401e+2
-0.109, -9.4035482e-9, -2.7424738e-9, 3.3066736e+2
-0.108, -9.3331733e-9, -2.7340863e-9, 3.3100070e+2
-0.107, -9.3692796e-9, -2.7520595e-9, 3.3133405e+2
-0.106, -9.5989376e-9, -2.6332763e-9, 3.3166739e+2
-0.105, -9.6220232e-9, -2.6077143e-9, 3.3200073e+2
-0.104, -9.6339257e-9, -2.7345657e-9, 3.3233408e+2
-0.103, -9.5988577e-9, -2.6721783e-9, 3.3266742e+2
-0.102, -9.7745971e-9, -2.6554832e-9, 3.3300076e+2
-0.101, -9.6262571e-9, -2.7218643e-9, 3.3333411e+2
-0.100, -9.6485442e-9, -2.7530980e-9, 3.3366745e+2
-0.099, -9.6411954e-9, -2.7403171e-9, 3.3400079e+2
-0.098, -9.8067092e-9, -2.6640303e-9, 3.3433414e+2
-0.097, -1.0025424e-8, -2.5918978e-9, 3.3466748e+2
-0.096, -1.0078865e-8, -2.5713682e-9, 3.3500082e+2
-0.095, -1.0117367e-8, -2.5771996e-9, 3.3533417e+2
-0.094, -1.0248213e-8, -2.5434097e-9, 3.3566751e+2
-0.093, -1.0185106e-8, -2.5509186e-9, 3.3600085e+2
-0.092, -1.0174802e-8, -2.5490814e-9, 3.3633420e+2
-0.091, -1.0440806e-8, -2.6189775e-9, 3.3666754e+2
-0.090, -1.0180473e-8, -2.5688121e-9, 3.3700089e+2
-0.089, -1.0539140e-8, -2.5980487e-9, 3.3733423e+2
-0.088, -1.0464531e-8, -2.6838411e-9, 3.3766757e+2
-0.087, -1.0273615e-8, -2.6990186e-9, 3.3800092e+2
-0.086, -1.0559909e-8, -2.5998859e-9, 3.3833426e+2
-0.085, -1.0574608e-8, -2.6883944e-9, 3.3866760e+2
-0.084, -1.0608876e-8, -2.5422116e-9, 3.3900095e+2
-0.083, -1.0632840e-8, -2.5482028e-9, 3.3933429e+2
-0.082, -1.0925845e-8, -2.5407738e-9, 3.3966763e+2
-0.081, -1.0983040e-8, -2.5297500e-9, 3.4000098e+2
-0.080, -1.0899245e-8, -2.5315074e-9, 3.4033432e+2
-0.079, -1.0954603e-8, -2.5124158e-9, 3.4066766e+2
-0.078, -1.1178670e-8, -2.5017117e-9, 3.4100101e+2
-0.077, -1.1112768e-8, -2.5270341e-9, 3.4133435e+2
-0.076, -1.1180507e-8, -2.4901290e-9, 3.4166769e+2
-0.075, -1.1248486e-8, -2.5153715e-9, 3.4200104e+2
-0.074, -1.1280997e-8, -2.5620221e-9, 3.4233438e+2
-0.073, -1.1196962e-8, -2.6421429e-9, 3.4266772e+2
-0.072, -1.1187057e-8, -2.6786489e-9, 3.4300107e+2
-0.071, -1.1490766e-8, -2.5837499e-9, 3.4333441e+2
-0.070, -1.1498673e-8, -2.5312679e-9, 3.4366776e+2
-0.069, -1.1466482e-8, -2.6703411e-9, 3.4400110e+2
-0.068, -1.1527590e-8, -2.6274449e-9, 3.4433444e+2
-0.067, -1.1607631e-8, -2.6219331e-9, 3.4466779e+2
-0.066, -1.1653723e-8, -2.6115485e-9, 3.4500113e+2
-0.065, -1.1869322e-8, -2.5863061e-9, 3.4533447e+2
-0.064, -1.1821314e-8, -2.6382287e-9, 3.4566782e+2
-0.063, -1.1837690e-8, -2.5914981e-9, 3.4600116e+2
-0.062, -1.2128857e-8, -2.5251170e-9, 3.4633450e+2
-0.061, -1.2085322e-8, -2.6156224e-9, 3.4666785e+2
-0.060, -1.2123585e-8, -2.6131461e-9, 3.4700119e+2
-0.059, -1.2308830e-8, -2.5204840e-9, 3.4733453e+2
-0.058, -1.2381761e-8, -2.5187266e-9, 3.4766788e+2
-0.057, -1.2516759e-8, -2.6084332e-9, 3.4800122e+2
-0.056, -1.2511247e-8, -2.5892615e-9, 3.4833456e+2
-0.055, -1.2527305e-8, -2.5577085e-9, 3.4866791e+2
-0.054, -1.2550709e-8, -2.5401348e-9, 3.4900125e+2
-0.053, -1.2612139e-8, -2.4988360e-9, 3.4933459e+2
-0.052, -1.2743222e-8, -2.5007532e-9, 3.4966794e+2
-0.051, -1.2813040e-8, -2.3644759e-9, 3.5000128e+2
-0.050, -1.3052763e-8, -2.3113547e-9, 3.5033463e+2
-0.049, -1.3115550e-8, -2.3003313e-9, 3.5066797e+2
-0.048, -1.3180973e-8, -2.3361180e-9, 3.5100131e+2
-0.047, -1.3175621e-8, -2.2040743e-9, 3.5133466e+2
-0.046, -1.3423012e-8, -2.2876301e-9, 3.5166800e+2
-0.045, -1.3411270e-8, -2.2661419e-9, 3.5200134e+2
-0.044, -1.3504012e-8, -2.2327515e-9, 3.5233469e+2
-0.043, -1.3553779e-8, -2.2699762e-9, 3.5266803e+2
-0.042, -1.3499859e-8, -2.2812396e-9, 3.5300137e+2
-0.041, -1.3604502e-8, -2.2000803e-9, 3.5333472e+2
-0.040, -1.3675916e-8, -2.2214883e-9, 3.5366806e+2
-0.039, -1.3800372e-8, -2.2055122e-9, 3.5400140e+2
-0.038, -1.3868190e-8, -2.2069502e-9, 3.5433475e+2
-0.037, -1.3960932e-8, -2.1837048e-9, 3.5466809e+2
-0.036, -1.4004068e-8, -2.2701361e-9, 3.5500143e+2
-0.035, -1.3954303e-8, -2.2296365e-9, 3.5533478e+2
-0.034, -1.3992965e-8, -2.2492872e-9, 3.5566812e+2
-0.033, -1.4095213e-8, -2.2285178e-9, 3.5600146e+2
-0.032, -1.4099287e-8, -2.2214086e-9, 3.5633481e+2
-0.031, -1.4026196e-8, -2.1796307e-9, 3.5666815e+2
-0.030, -1.4217033e-8, -2.1670894e-9, 3.5700150e+2
-0.029, -1.4130201e-8, -2.2209292e-9, 3.5733484e+2
-0.028, -1.4186837e-8, -2.1769946e-9, 3.5766818e+2
-0.027, -1.4455398e-8, -2.1966453e-9, 3.5800153e+2
-0.026, -1.4477286e-8, -2.1488764e-9, 3.5833487e+2
-0.025, -1.4511953e-8, -2.2391422e-9, 3.5866821e+2
-0.024, -1.4313449e-8, -2.4985964e-9, 3.5900156e+2
-0.023, -1.4498214e-8, -2.1438438e-9, 3.5933490e+2
-0.022, -1.4565633e-8, -2.1475184e-9, 3.5966824e+2
-0.021, -1.4522019e-8, -2.1515123e-9, 3.6000159e+2
-0.020, -1.4665885e-8, -2.1497550e-9, 3.6033493e+2
-0.019, -1.4705106e-8, -2.1281870e-9, 3.6066827e+2
-0.018, -1.4656939e-8, -2.1400894e-9, 3.6100162e+2
-0.017, -1.4898260e-8, -2.1336990e-9, 3.6133496e+2
-0.016, -1.4870860e-8, -2.1380124e-9, 3.6166830e+2
-0.015, -1.4887876e-8, -2.1251516e-9, 3.6200165e+2
-0.014, -1.4996592e-8, -2.1267492e-9, 3.6233499e+2
-0.013, -1.4877491e-8, -2.1224358e-9, 3.6266833e+2
-0.012, -1.5005140e-8, -2.1203588e-9, 3.6300168e+2
-0.011, -1.5009613e-8, -2.1177227e-9, 3.6333502e+2
-0.010, -1.5003064e-8, -2.0872879e-9, 3.6366837e+2
-0.009, -1.5003064e-8, -2.1011872e-9, 3.6400171e+2
-0.008, -1.5042366e-8, -2.0988706e-9, 3.6433505e+2
-0.007, -1.5063533e-8, -2.1126103e-9, 3.6466840e+2
-0.006, -1.5065691e-8, -2.0797790e-9, 3.6500174e+2
-0.005, -1.5061378e-8, -2.0942375e-9, 3.6533508e+2
-0.004, -1.5079349e-8, -2.0986310e-9, 3.6566843e+2
-0.003, -1.5075276e-8, -2.0986310e-9, 3.6600177e+2
-0.002, -1.5109705e-8, -2.1055007e-9, 3.6633511e+2
-0.001, -1.5065451e-8, -2.1106932e-9, 3.6666846e+2
-0.000, -1.5116255e-8, -2.1014270e-9, 3.6700180e+2
0.001, -1.5083264e-8, -2.1025452e-9, 3.6733514e+2
0.002, -1.5199092e-8, -2.0754654e-9, 3.6766849e+2
0.003, -1.5129675e-8, -2.0872879e-9, 3.6800183e+2
0.004, -1.5163225e-8, -2.0838531e-9, 3.6833517e+2
0.005, -1.5360612e-8, -2.0704329e-9, 3.6866852e+2
0.006, -1.5223057e-8, -2.0663589e-9, 3.6900186e+2
0.007, -1.5403108e-8, -2.0626045e-9, 3.6933521e+2
0.008, -1.5332892e-8, -2.0578916e-9, 3.6966855e+2
0.009, -1.5417168e-8, -2.0487054e-9, 3.7000189e+2
0.010, -1.5339923e-8, -2.0823352e-9, 3.7033524e+2
0.011, -1.5408542e-8, -2.0700335e-9, 3.7066858e+2
0.012, -1.5473404e-8, -2.0516608e-9, 3.7100192e+2
0.013, -1.5477239e-8, -2.0542970e-9, 3.7133527e+2
0.014, -1.5497529e-8, -2.0353650e-9, 3.7166861e+2
0.015, -1.5566387e-8, -2.0398385e-9, 3.7200195e+2
0.016, -1.5562632e-8, -2.0346460e-9, 3.7233530e+2
0.017, -1.5542582e-8, -2.0405575e-9, 3.7266864e+2
0.018, -1.5774077e-8, -2.0284954e-9, 3.7300198e+2
0.019, -1.5632367e-8, -2.0264983e-9, 3.7333533e+2
0.020, -1.5713606e-8, -2.0563740e-9, 3.7366867e+2
0.021, -1.5938474e-8, -2.0379214e-9, 3.7400201e+2
0.022, -1.5963716e-8, -2.0249007e-9, 3.7433536e+2
0.023, -1.5958443e-8, -2.0288149e-9, 3.7466870e+2
0.024, -1.5995187e-8, -2.0299333e-9, 3.7500204e+2
0.025, -1.6073312e-8, -2.0223445e-9, 3.7533539e+2
0.026, -1.6104787e-8, -2.0286550e-9, 3.7566873e+2
0.027, -1.6262073e-8, -2.0202675e-9, 3.7600208e+2
0.028, -1.6388125e-8, -2.0249804e-9, 3.7633542e+2
0.029, -1.6393717e-8, -1.9932676e-9, 3.7666876e+2
0.030, -1.6444041e-8, -2.0209068e-9, 3.7700211e+2
0.031, -1.6517932e-8, -2.0036524e-9, 3.7733545e+2
0.032, -1.6537582e-8, -1.9976611e-9, 3.7766879e+2
0.033, -1.6609475e-8, -2.0006168e-9, 3.7800214e+2
0.034, -1.6931716e-8, -1.9948654e-9, 3.7833548e+2
0.035, -1.6843607e-8, -2.0119599e-9, 3.7866882e+2
0.036, -1.6931956e-8, -1.9973416e-9, 3.7900217e+2
0.037, -1.7069112e-8, -1.9820843e-9, 3.7933551e+2
0.038, -1.7100426e-8, -1.9808062e-9, 3.7966885e+2
0.039, -1.7206826e-8, -1.9867175e-9, 3.8000220e+2
0.040, -1.7403655e-8, -1.9645903e-9, 3.8033554e+2
0.041, -1.7439282e-8, -1.9620341e-9, 3.8066888e+2
0.042, -1.7488489e-8, -1.9818447e-9, 3.8100223e+2
0.043, -1.7571086e-8, -1.9382294e-9, 3.8133557e+2
0.044, -1.7855783e-8, -1.9259279e-9, 3.8166891e+2
0.045, -1.7884460e-8, -1.9514899e-9, 3.8200226e+2
0.046, -1.7985670e-8, -1.9338360e-9, 3.8233560e+2
0.047, -1.8126899e-8, -1.9417443e-9, 3.8266895e+2
0.048, -1.8251834e-8, -1.9278450e-9, 3.8300229e+2
0.049, -1.8375570e-8, -1.8803157e-9, 3.8333563e+2
0.050, -1.8505377e-8, -1.9036408e-9, 3.8366898e+2
0.051, -1.8523988e-8, -1.9299218e-9, 3.8400232e+2
0.052, -1.8782725e-8, -1.9343951e-9, 3.8433566e+2
0.053, -1.8944325e-8, -1.8974102e-9, 3.8466901e+2
0.054, -1.8969647e-8, -1.8497210e-9, 3.8500235e+2
0.055, -1.9142190e-8, -1.8605050e-9, 3.8533569e+2
0.056, -1.9275911e-8, -1.8628215e-9, 3.8566904e+2
0.057, -1.9416182e-8, -1.9096320e-9, 3.8600238e+2
0.058, -1.9524261e-8, -1.8650583e-9, 3.8633572e+2
0.059, -1.9750805e-8, -1.8564312e-9, 3.8666907e+2
0.060, -1.9914003e-8, -1.9045996e-9, 3.8700241e+2
0.061, -1.9939725e-8, -1.8551530e-9, 3.8733575e+2
0.062, -2.0265320e-8, -1.8469252e-9, 3.8766910e+2
0.063, -2.0386100e-8, -1.8368602e-9, 3.8800244e+2
0.064, -2.0455118e-8, -1.8122569e-9, 3.8833578e+2
0.065, -2.0624785e-8, -1.7974788e-9, 3.8866913e+2
0.066, -2.0915953e-8, -1.8343040e-9, 3.8900247e+2
0.067, -2.0998391e-8, -1.8045083e-9, 3.8933582e+2
0.068, -2.1195456e-8, -1.8084224e-9, 3.8966916e+2
0.069, -2.1383258e-8, -1.8097006e-9, 3.9000250e+2
0.070, -2.1492696e-8, -1.7601741e-9, 3.9033585e+2
0.071, -2.1776353e-8, -1.7719968e-9, 3.9066919e+2
0.072, -2.1884992e-8, -1.7540234e-9, 3.9100253e+2
0.073, -2.1988519e-8, -1.7720765e-9, 3.9133588e+2
0.074, -2.2257080e-8, -1.7455559e-9, 3.9166922e+2
0.075, -2.2357810e-8, -1.7338134e-9, 3.9200256e+2
0.076, -2.2611433e-8, -1.7451566e-9, 3.9233591e+2
0.077, -2.2834941e-8, -1.7690411e-9, 3.9266925e+2
0.078, -2.2918336e-8, -1.7310975e-9, 3.9300259e+2
0.079, -2.3193847e-8, -1.7414020e-9, 3.9333594e+2
0.080, -2.3296653e-8, -1.7173579e-9, 3.9366928e+2
0.081, -2.3381087e-8, -1.7156804e-9, 3.9400262e+2
0.082, -2.3696858e-8, -1.7054557e-9, 3.9433597e+2
0.083, -2.3830420e-8, -1.7188756e-9, 3.9466931e+2
0.084, -2.3947125e-8, -1.7374082e-9, 3.9500266e+2
0.085, -2.4207459e-8, -1.6969083e-9, 3.9533600e+2
0.086, -2.4313861e-8, -1.6997042e-9, 3.9566934e+2
0.087, -2.4432405e-8, -1.7020207e-9, 3.9600269e+2
0.088, -2.4571397e-8, -1.7087307e-9, 3.9633603e+2
0.089, -2.4808964e-8, -1.6940326e-9, 3.9666937e+2
0.090, -2.4897073e-8, -1.6952308e-9, 3.9700272e+2
0.091, -2.4981828e-8, -1.7028196e-9, 3.9733606e+2
0.092, -2.5308545e-8, -1.6870828e-9, 3.9766940e+2
0.093, -2.5372445e-8, -1.6633581e-9, 3.9800275e+2
0.094, -2.5486518e-8, -1.6830888e-9, 3.9833609e+2
0.095, -2.5732712e-8, -1.6643167e-9, 3.9866943e+2
0.096, -2.5768658e-8, -1.6772576e-9, 3.9900278e+2
0.097, -2.5887124e-8, -1.6627990e-9, 3.9933612e+2
0.098, -2.6183880e-8, -1.6638374e-9, 3.9966946e+2
0.099, -2.6215915e-8, -1.6606422e-9, 4.0000281e+2
