Dec. 21, 2005   06:50:01
Cyclic Voltammetry
File: d:\ida_biofilms\12_10_18_dphzstar\a_760b\75um_pyo\a_75um_pyo_gc_6.txt
Data Source:  Experiment
Instrument Model:  CHI760E
Header: 
Note: 

Init E (V) = 0.1
High E (V) = 0.1
Low E (V) = -0.5
Init P/N = N
Scan Rate (V/s) = 0.003
Segment = 1
Sample Interval (V) = 0.001
Quiet Time (sec) = 2
Sensitivity (A/V) = 1e-7
2nd E (V) = 0.1
Sens 2 (A/V) = 1e-7

Potential/V, i1/A, i2/A, Time/s

0.100, -9.4576443e-8, -8.1886647e-8, 3.3333334e-1
0.099, -7.7819429e-8, -7.3531709e-8, 6.6666669e-1
0.098, -6.7288290e-8, -6.6888546e-8, 1.0000000e+0
0.097, -5.9585425e-8, -6.1561821e-8, 1.3333334e+0
0.096, -5.3392949e-8, -5.7067151e-8, 1.6666667e+0
0.095, -4.8402288e-8, -5.3305858e-8, 2.0000000e+0
0.094, -4.3947470e-8, -4.9910906e-8, 2.3333333e+0
0.093, -4.0390439e-8, -4.7022642e-8, 2.6666665e+0
0.092, -3.7147501e-8, -4.4392873e-8, 2.9999998e+0
0.091, -3.4210029e-8, -4.2023355e-8, 3.3333330e+0
0.090, -3.1738423e-8, -3.9843314e-8, 3.6666663e+0
0.089, -2.9521001e-8, -3.7931358e-8, 3.9999995e+0
0.088, -2.7468610e-8, -3.6067568e-8, 4.3333330e+0
0.087, -2.5709385e-8, -3.4439431e-8, 4.6666665e+0
0.086, -2.4035316e-8, -3.2902594e-8, 5.0000000e+0
0.085, -2.2624851e-8, -3.1533592e-8, 5.3333335e+0
0.084, -2.1142256e-8, -3.0274503e-8, 5.6666670e+0
0.083, -1.9907532e-8, -2.9098091e-8, 6.0000005e+0
0.082, -1.8772418e-8, -2.7898913e-8, 6.3333340e+0
0.081, -1.7540650e-8, -2.6835055e-8, 6.6666675e+0
0.080, -1.6623135e-8, -2.5954444e-8, 7.0000010e+0
0.079, -1.5600895e-8, -2.5075112e-8, 7.3333344e+0
0.078, -1.4800166e-8, -2.4255451e-8, 7.6666679e+0
0.077, -1.3980824e-8, -2.3548900e-8, 8.0000010e+0
0.076, -1.3147502e-8, -2.2832126e-8, 8.3333340e+0
0.075, -1.2361151e-8, -2.2230699e-8, 8.6666670e+0
0.074, -1.1615460e-8, -2.1588615e-8, 9.0000000e+0
0.073, -1.1096392e-8, -2.1074419e-8, 9.3333330e+0
0.072, -1.0252847e-8, -2.0464046e-8, 9.6666660e+0
0.071, -9.7708428e-9, -1.9966308e-8, 9.9999990e+0
0.070, -9.2019281e-9, -1.9452591e-8, 1.0333332e+1
0.069, -8.6489100e-9, -1.9084657e-8, 1.0666665e+1
0.068, -8.1571621e-9, -1.8628695e-8, 1.0999998e+1
0.067, -7.6629361e-9, -1.8231766e-8, 1.1333331e+1
0.066, -7.1755806e-9, -1.7760865e-8, 1.1666664e+1
0.065, -6.6815153e-9, -1.7411146e-8, 1.1999997e+1
0.064, -6.2512751e-9, -1.7083712e-8, 1.2333330e+1
0.063, -5.7504197e-9, -1.6740543e-8, 1.2666663e+1
0.062, -5.3315223e-9, -1.6365741e-8, 1.2999996e+1
0.061, -5.1060973e-9, -1.6153177e-8, 1.3333329e+1
0.060, -4.6971853e-9, -1.5809606e-8, 1.3666662e+1
0.059, -4.2710990e-9, -1.5506217e-8, 1.3999995e+1
0.058, -3.9201007e-9, -1.5298685e-8, 1.4333328e+1
0.057, -3.6277354e-9, -1.5008718e-8, 1.4666661e+1
0.056, -3.3201129e-9, -1.4786488e-8, 1.4999994e+1
0.055, -3.0581824e-9, -1.4474951e-8, 1.5333327e+1
0.054, -2.7595062e-9, -1.4334999e-8, 1.5666660e+1
0.053, -2.3644136e-9, -1.4039839e-8, 1.5999993e+1
0.052, -2.1855595e-9, -1.3846046e-8, 1.6333326e+1
0.051, -1.8141916e-9, -1.3673502e-8, 1.6666660e+1
0.050, -1.6450832e-9, -1.3413408e-8, 1.6999994e+1
0.049, -1.2955228e-9, -1.3297261e-8, 1.7333328e+1
0.048, -1.0421396e-9, -1.3013764e-8, 1.7666662e+1
0.047, -8.8109897e-10, -1.2896179e-8, 1.7999996e+1
0.046, -6.0774535e-10, -1.2764534e-8, 1.8333330e+1
0.045, -3.8687370e-10, -1.2538071e-8, 1.8666664e+1
0.044, -2.8278843e-10, -1.2403151e-8, 1.8999998e+1
0.043, 4.0331162e-11, -1.2265116e-8, 1.9333332e+1
0.042, 1.6782162e-10, -1.2014848e-8, 1.9666666e+1
0.041, 3.3693021e-10, -1.1897662e-8, 2.0000000e+1
0.040, 6.6644035e-10, -1.1794376e-8, 2.0333334e+1
0.039, 7.0334544e-10, -1.1544588e-8, 2.0666668e+1
0.038, 1.0521868e-9, -1.1427402e-8, 2.1000002e+1
0.037, 9.9882613e-10, -1.1354470e-8, 2.1333336e+1
0.036, 1.2494935e-9, -1.1248148e-8, 2.1666670e+1
0.035, 1.3912826e-9, -1.1049883e-8, 2.2000004e+1
0.034, 1.5715746e-9, -1.0951469e-8, 2.2333338e+1
0.033, 1.6932337e-9, -1.0889801e-8, 2.2666672e+1
0.032, 1.8844695e-9, -1.0809361e-8, 2.3000006e+1
0.031, 2.0128386e-9, -1.0649998e-8, 2.3333340e+1
0.030, 2.1734798e-9, -1.0510206e-8, 2.3666674e+1
0.029, 2.2008790e-9, -1.0419300e-8, 2.4000008e+1
0.028, 2.4642475e-9, -1.0371931e-8, 2.4333342e+1
0.027, 2.6601961e-9, -1.0237091e-8, 2.4666676e+1
0.026, 2.6439004e-9, -1.0122622e-8, 2.5000010e+1
0.025, 2.7757046e-9, -9.9928146e-9, 2.5333344e+1
0.024, 2.9566354e-9, -9.9284305e-9, 2.5666677e+1
0.023, 3.0406704e-9, -9.8714752e-9, 2.6000011e+1
0.022, 3.1223890e-9, -9.7792920e-9, 2.6333345e+1
0.021, 3.2044269e-9, -9.5996384e-9, 2.6666679e+1
0.020, 3.3404648e-9, -9.5059391e-9, 2.7000013e+1
0.019, 3.5240320e-9, -9.4859685e-9, 2.7333347e+1
0.018, 3.5849814e-9, -9.4146344e-9, 2.7666681e+1
0.017, 3.6778034e-9, -9.3579189e-9, 2.8000015e+1
0.016, 3.7356371e-9, -9.2822710e-9, 2.8333349e+1
0.015, 3.8797432e-9, -9.1899288e-9, 2.8666683e+1
0.014, 4.0818429e-9, -9.0449435e-9, 2.9000017e+1
0.013, 4.0875943e-9, -9.0183434e-9, 2.9333351e+1
0.012, 4.1395167e-9, -8.9579535e-9, 2.9666685e+1
0.011, 4.3295545e-9, -8.9203294e-9, 3.0000019e+1
0.010, 4.2501527e-9, -8.8553858e-9, 3.0333353e+1
0.009, 4.5342099e-9, -8.7848511e-9, 3.0666687e+1
0.008, 4.6014699e-9, -8.6846796e-9, 3.1000021e+1
0.007, 4.5941206e-9, -8.5698906e-9, 3.1333355e+1
0.006, 4.6991646e-9, -8.5366594e-9, 3.1666689e+1
0.005, 4.7175375e-9, -8.4866540e-9, 3.2000023e+1
0.004, 4.8792970e-9, -8.4509475e-9, 3.2333355e+1
0.003, 5.0345861e-9, -8.4329743e-9, 3.2666687e+1
0.002, 4.9962430e-9, -8.3827283e-9, 3.3000019e+1
0.001, 5.1278075e-9, -8.3465421e-9, 3.3333351e+1
-0.000, 5.0921805e-9, -8.3198612e-9, 3.3666683e+1
-0.001, 5.1597602e-9, -8.1461202e-9, 3.4000015e+1
-0.002, 5.5532547e-9, -8.0563334e-9, 3.4333347e+1
-0.003, 5.4647464e-9, -8.0321296e-9, 3.4666679e+1
-0.004, 5.5769798e-9, -7.9750944e-9, 3.5000011e+1
-0.005, 5.5558114e-9, -7.9778104e-9, 3.5333344e+1
-0.006, 5.6019824e-9, -7.8838696e-9, 3.5666676e+1
-0.007, 5.5968701e-9, -7.9244495e-9, 3.6000008e+1
-0.008, 5.7022334e-9, -7.8731661e-9, 3.6333340e+1
-0.009, 5.7792389e-9, -7.8198052e-9, 3.6666672e+1
-0.010, 5.9931611e-9, -7.6888007e-9, 3.7000004e+1
-0.011, 6.0362169e-9, -7.6435871e-9, 3.7333336e+1
-0.012, 6.0440453e-9, -7.6228979e-9, 3.7666668e+1
-0.013, 6.0597021e-9, -7.5492474e-9, 3.8000000e+1
-0.014, 6.0891781e-9, -7.5296764e-9, 3.8333332e+1
-0.015, 6.2468639e-9, -7.5069906e-9, 3.8666664e+1
-0.016, 6.3602150e-9, -7.4764763e-9, 3.8999996e+1
-0.017, 6.3515881e-9, -7.4469195e-9, 3.9333328e+1
-0.018, 6.5089538e-9, -7.4151272e-9, 3.9666660e+1
-0.019, 6.4752443e-9, -7.4054616e-9, 3.9999992e+1
-0.020, 6.5893948e-9, -7.3677571e-9, 4.0333324e+1
-0.021, 6.6314922e-9, -7.3165536e-9, 4.0666656e+1
-0.022, 6.6028147e-9, -7.2254891e-9, 4.0999989e+1
-0.023, 6.6538588e-9, -7.1569510e-9, 4.1333321e+1
-0.024, 6.7193615e-9, -7.1317086e-9, 4.1666653e+1
-0.025, 6.7764767e-9, -7.0745929e-9, 4.1999985e+1
-0.026, 6.8725736e-9, -7.0733952e-9, 4.2333317e+1
-0.027, 6.9369577e-9, -7.0386470e-9, 4.2666649e+1
-0.028, 6.9883215e-9, -7.0116468e-9, 4.2999981e+1
-0.029, 7.0081319e-9, -7.0098096e-9, 4.3333313e+1
-0.030, 7.0283419e-9, -6.9744224e-9, 4.3666645e+1
-0.031, 7.0628512e-9, -6.9432686e-9, 4.3999977e+1
-0.032, 7.0773090e-9, -6.9389547e-9, 4.4333309e+1
-0.033, 7.0741142e-9, -6.9172272e-9, 4.4666641e+1
-0.034, 7.2977810e-9, -6.8853545e-9, 4.4999973e+1
-0.035, 7.2020838e-9, -6.8728934e-9, 4.5333305e+1
-0.036, 7.2337962e-9, -6.8400623e-9, 4.5666637e+1
-0.037, 7.4122513e-9, -6.7751187e-9, 4.5999969e+1
-0.038, 7.3928401e-9, -6.7196013e-9, 4.6333302e+1
-0.039, 7.3792599e-9, -6.6629648e-9, 4.6666634e+1
-0.040, 7.4767952e-9, -6.6176726e-9, 4.6999966e+1
-0.041, 7.4501947e-9, -6.6060895e-9, 4.7333298e+1
-0.042, 7.5293576e-9, -6.5780514e-9, 4.7666630e+1
-0.043, 7.5110647e-9, -6.5754153e-9, 4.7999962e+1
-0.044, 7.5384632e-9, -6.5464185e-9, 4.8333294e+1
-0.045, 7.5632265e-9, -6.5341963e-9, 4.8666626e+1
-0.046, 7.5736111e-9, -6.5233330e-9, 4.8999958e+1
-0.047, 7.6191435e-9, -6.4968924e-9, 4.9333290e+1
-0.048, 7.6195423e-9, -6.4968924e-9, 4.9666622e+1
-0.049, 7.6071611e-9, -6.4669363e-9, 4.9999954e+1
-0.050, 7.8003941e-9, -6.4403363e-9, 5.0333286e+1
-0.051, 7.7139628e-9, -6.4324284e-9, 5.0666618e+1
-0.052, 7.8002342e-9, -6.4075052e-9, 5.0999950e+1
-0.053, 7.9348341e-9, -6.3509487e-9, 5.1333282e+1
-0.054, 7.8305096e-9, -6.3758718e-9, 5.1666615e+1
-0.055, 7.7822611e-9, -6.3185968e-9, 5.1999947e+1
-0.056, 7.9487341e-9, -6.2790559e-9, 5.2333279e+1
-0.057, 7.9505709e-9, -6.2164287e-9, 5.2666611e+1
-0.058, 8.0088043e-9, -6.2003727e-9, 5.2999943e+1
-0.059, 7.9837221e-9, -6.1576362e-9, 5.3333275e+1
-0.060, 8.0053697e-9, -6.1627490e-9, 5.3666607e+1
-0.061, 8.0192688e-9, -6.1230478e-9, 5.3999939e+1
-0.062, 8.0119191e-9, -6.0849445e-9, 5.4333271e+1
-0.063, 8.0524192e-9, -6.0667316e-9, 5.4666603e+1
-0.064, 8.0326092e-9, -6.0571459e-9, 5.4999935e+1
-0.065, 8.0378806e-9, -6.0499565e-9, 5.5333267e+1
-0.066, 8.0843714e-9, -6.0335013e-9, 5.5666599e+1
-0.067, 8.0596889e-9, -6.0384533e-9, 5.5999931e+1
-0.068, 8.0587297e-9, -6.0135306e-9, 5.6333263e+1
-0.069, 8.1689668e-9, -5.9948384e-9, 5.6666595e+1
-0.070, 8.0896436e-9, -5.9767853e-9, 5.6999928e+1
-0.071, 8.1383718e-9, -5.9874097e-9, 5.7333260e+1
-0.072, 8.2108240e-9, -5.9450724e-9, 5.7666592e+1
-0.073, 8.2390219e-9, -5.9382024e-9, 5.7999924e+1
-0.074, 8.1960465e-9, -5.9239840e-9, 5.8333256e+1
-0.075, 8.2160962e-9, -5.9294956e-9, 5.8666588e+1
-0.076, 8.3096374e-9, -5.8889160e-9, 5.8999920e+1
-0.077, 8.3812912e-9, -5.8981025e-9, 5.9333252e+1
-0.078, 8.2707343e-9, -5.7610263e-9, 5.9666584e+1
-0.079, 8.2643439e-9, -5.8325198e-9, 5.9999916e+1
-0.080, 8.3269720e-9, -5.8053602e-9, 6.0333248e+1
-0.081, 8.4080511e-9, -5.7994489e-9, 6.0666580e+1
-0.082, 8.4674818e-9, -5.7034319e-9, 6.0999912e+1
-0.083, 8.3909564e-9, -5.6555831e-9, 6.1333244e+1
-0.084, 8.3435063e-9, -5.6948046e-9, 6.1666576e+1
-0.085, 8.4475920e-9, -5.6411245e-9, 6.1999908e+1
-0.086, 8.3249745e-9, -5.6554232e-9, 6.2333241e+1
-0.087, 8.4169978e-9, -5.5968701e-9, 6.2666573e+1
-0.088, 8.4633287e-9, -5.6151630e-9, 6.2999905e+1
-0.089, 8.4802636e-9, -5.5955920e-9, 6.3333237e+1
-0.090, 8.4871328e-9, -5.5807341e-9, 6.3666569e+1
-0.091, 8.4888105e-9, -5.5885625e-9, 6.3999901e+1
-0.092, 8.4684411e-9, -5.5739440e-9, 6.4333237e+1
-0.093, 8.4903284e-9, -5.5637197e-9, 6.4666573e+1
-0.094, 8.4727549e-9, -5.5556515e-9, 6.4999908e+1
-0.095, 8.5152516e-9, -5.5560507e-9, 6.5333244e+1
-0.096, 8.4892102e-9, -5.5340039e-9, 6.5666580e+1
-0.097, 8.5049470e-9, -5.5355214e-9, 6.5999916e+1
-0.098, 8.5289118e-9, -5.5203437e-9, 6.6333252e+1
-0.099, 8.5210825e-9, -5.5109979e-9, 6.6666588e+1
-0.100, 8.5071035e-9, -5.4931046e-9, 6.6999924e+1
-0.101, 8.5447276e-9, -5.4924651e-9, 6.7333260e+1
-0.102, 8.5255554e-9, -5.4724154e-9, 6.7666595e+1
-0.103, 8.5700496e-9, -5.4537228e-9, 6.7999931e+1
-0.104, 8.5855474e-9, -5.4545217e-9, 6.8333267e+1
-0.105, 8.5527958e-9, -5.4542024e-9, 6.8666603e+1
-0.106, 8.5666150e-9, -5.4433382e-9, 6.8999939e+1
-0.107, 8.5831502e-9, -5.4233684e-9, 6.9333275e+1
-0.108, 8.5900203e-9, -5.4208118e-9, 6.9666611e+1
-0.109, 8.5917780e-9, -5.4166582e-9, 6.9999947e+1
-0.110, 8.5499199e-9, -5.4018798e-9, 7.0333282e+1
-0.111, 8.6267660e-9, -5.3896581e-9, 7.0666618e+1
-0.112, 8.5873841e-9, -5.3349396e-9, 7.0999954e+1
-0.113, 8.5552712e-9, -5.3445253e-9, 7.1333290e+1
-0.114, 8.7217442e-9, -5.2758273e-9, 7.1666626e+1
-0.115, 8.6086329e-9, -5.3065019e-9, 7.1999962e+1
-0.116, 8.6141450e-9, -5.3055431e-9, 7.2333298e+1
-0.117, 8.8321404e-9, -5.2628870e-9, 7.2666634e+1
-0.118, 8.7143954e-9, -5.2379638e-9, 7.2999969e+1
-0.119, 8.8357348e-9, -5.1663100e-9, 7.3333305e+1
-0.120, 8.9095451e-9, -5.1310027e-9, 7.3666641e+1
-0.121, 8.5724468e-9, -5.1509730e-9, 7.3999977e+1
-0.122, 8.8363734e-9, -5.2010587e-9, 7.4333313e+1
-0.123, 8.6742151e-9, -5.1417870e-9, 7.4666649e+1
-0.124, 8.6107095e-9, -5.1523310e-9, 7.4999985e+1
-0.125, 8.8517105e-9, -5.1144675e-9, 7.5333321e+1
-0.126, 8.7202263e-9, -5.1176627e-9, 7.5666656e+1
-0.127, 8.7879659e-9, -5.1069584e-9, 7.5999992e+1
-0.128, 8.8972438e-9, -5.1040030e-9, 7.6333328e+1
-0.129, 8.8427639e-9, -5.1055209e-9, 7.6666664e+1
-0.130, 8.9173735e-9, -5.0765241e-9, 7.7000000e+1
-0.131, 8.8758352e-9, -5.0801185e-9, 7.7333336e+1
-0.132, 8.8831049e-9, -5.0855502e-9, 7.7666672e+1
-0.133, 8.9632248e-9, -5.0764437e-9, 7.8000008e+1
-0.134, 8.8839833e-9, -5.0674176e-9, 7.8333344e+1
-0.135, 8.9573939e-9, -5.0645417e-9, 7.8666679e+1
-0.136, 8.9815986e-9, -5.0531188e-9, 7.9000015e+1
-0.137, 8.9343883e-9, -5.0720508e-9, 7.9333351e+1
-0.138, 8.9679384e-9, -5.0472075e-9, 7.9666687e+1
-0.139, 8.9937400e-9, -5.0441722e-9, 8.0000023e+1
-0.140, 8.9846335e-9, -5.0395390e-9, 8.0333359e+1
-0.141, 8.9851921e-9, -5.0380211e-9, 8.0666695e+1
-0.142, 8.9932604e-9, -5.0364233e-9, 8.1000031e+1
-0.143, 9.0047640e-9, -5.0338671e-9, 8.1333366e+1
-0.144, 9.0007690e-9, -5.0178111e-9, 8.1666702e+1
-0.145, 9.0022070e-9, -5.0016751e-9, 8.2000038e+1
-0.146, 9.0593231e-9, -4.9888143e-9, 8.2333374e+1
-0.147, 9.0080388e-9, -4.9956039e-9, 8.2666710e+1
-0.148, 9.0192218e-9, -4.9852198e-9, 8.3000046e+1
-0.149, 9.1275414e-9, -4.9842606e-9, 8.3333382e+1
-0.150, 9.0657135e-9, -4.9880153e-9, 8.3666718e+1
-0.151, 9.0750589e-9, -4.9674060e-9, 8.4000053e+1
-0.152, 9.0765768e-9, -4.9638111e-9, 8.4333389e+1
-0.153, 9.1030170e-9, -4.9608557e-9, 8.4666725e+1
-0.154, 9.1695584e-9, -4.9547046e-9, 8.5000061e+1
-0.155, 9.1558192e-9, -4.9493529e-9, 8.5333397e+1
-0.156, 9.3707797e-9, -4.9433617e-9, 8.5666733e+1
-0.157, 9.1925640e-9, -4.9440807e-9, 8.6000069e+1
-0.158, 9.2099786e-9, -4.9260276e-9, 8.6333405e+1
-0.159, 9.3415427e-9, -4.9321782e-9, 8.6666740e+1
-0.160, 9.3528865e-9, -4.9109299e-9, 8.7000076e+1
-0.161, 9.3391463e-9, -4.8749036e-9, 8.7333412e+1
-0.162, 9.4493826e-9, -4.8804152e-9, 8.7666748e+1
-0.163, 9.4088026e-9, -4.8812940e-9, 8.8000084e+1
-0.164, 9.4284536e-9, -4.8545337e-9, 8.8333420e+1
-0.165, 9.4693524e-9, -4.8713087e-9, 8.8666756e+1
-0.166, 9.4675157e-9, -4.8450279e-9, 8.9000092e+1
-0.167, 9.4680752e-9, -4.8840900e-9, 8.9333427e+1
-0.168, 9.5115302e-9, -4.8479034e-9, 8.9666763e+1
-0.169, 9.4780601e-9, -4.8596460e-9, 9.0000099e+1
-0.170, 9.5072163e-9, -4.8105995e-9, 9.0333435e+1
-0.171, 9.5449204e-9, -4.7823212e-9, 9.0666771e+1
-0.172, 9.5394892e-9, -4.7642676e-9, 9.1000107e+1
-0.173, 9.5799884e-9, -4.7617918e-9, 9.1333443e+1
-0.174, 9.5433226e-9, -4.7398245e-9, 9.1666779e+1
-0.175, 9.6693755e-9, -4.7453361e-9, 9.2000114e+1
-0.176, 9.6595505e-9, -4.7617918e-9, 9.2333450e+1
-0.177, 9.6029140e-9, -4.7241677e-9, 9.2666786e+1
-0.178, 9.8726733e-9, -4.6952504e-9, 9.3000122e+1
-0.179, 9.7463806e-9, -4.7095492e-9, 9.3333458e+1
-0.180, 9.8316137e-9, -4.6895789e-9, 9.3666794e+1
-0.181, 9.9327435e-9, -4.6704076e-9, 9.4000130e+1
-0.182, 9.8906465e-9, -4.6843067e-9, 9.4333466e+1
-0.183, 9.9000728e-9, -4.6625792e-9, 9.4666801e+1
-0.184, 9.9574269e-9, -4.6709667e-9, 9.5000137e+1
-0.185, 9.9384954e-9, -4.6700879e-9, 9.5333473e+1
-0.186, 9.9863442e-9, -4.6437272e-9, 9.5666809e+1
-0.187, 9.9891402e-9, -4.6467630e-9, 9.6000145e+1
-0.188, 9.9846673e-9, -4.6402122e-9, 9.6333481e+1
-0.189, 1.0010069e-8, -4.6670525e-9, 9.6666817e+1
-0.190, 9.9879420e-9, -4.6419699e-9, 9.7000153e+1
-0.191, 1.0094903e-8, -4.6331827e-9, 9.7333488e+1
-0.192, 1.0101613e-8, -4.6146504e-9, 9.7666824e+1
-0.193, 1.0060874e-8, -4.6182449e-9, 9.8000160e+1
-0.194, 1.0285340e-8, -4.6275113e-9, 9.8333496e+1
-0.195, 1.0241725e-8, -4.6347806e-9, 9.8666832e+1
-0.196, 1.0308585e-8, -4.6291091e-9, 9.9000168e+1
-0.197, 1.0407319e-8, -4.6409312e-9, 9.9333504e+1
-0.198, 1.0344053e-8, -4.6074611e-9, 9.9666840e+1
-0.199, 1.0399330e-8, -4.6221591e-9, 1.0000018e+2
-0.200, 1.0470185e-8, -4.6221591e-9, 1.0033351e+2
-0.201, 1.0409076e-8, -4.6121742e-9, 1.0066685e+2
-0.202, 1.0487200e-8, -4.6279105e-9, 1.0100018e+2
-0.203, 1.0496546e-8, -4.6064228e-9, 1.0133352e+2
-0.204, 1.0500300e-8, -4.5997925e-9, 1.0166685e+2
-0.205, 1.0375685e-8, -4.5890087e-9, 1.0200019e+2
-0.206, 1.0511005e-8, -4.6133724e-9, 1.0233353e+2
-0.207, 1.0578823e-8, -4.5945203e-9, 1.0266686e+2
-0.208, 1.0561809e-8, -4.6025086e-9, 1.0300020e+2
-0.209, 1.0607182e-8, -4.6068220e-9, 1.0333353e+2
-0.210, 1.0712225e-8, -4.6061031e-9, 1.0366687e+2
-0.211, 1.0677397e-8, -4.5956390e-9, 1.0400021e+2
-0.212, 1.0807044e-8, -4.5919641e-9, 1.0433354e+2
-0.213, 1.0864639e-8, -4.6033075e-9, 1.0466688e+2
-0.214, 1.0823819e-8, -4.5950799e-9, 1.0500021e+2
-0.215, 1.0883570e-8, -4.6027484e-9, 1.0533355e+2
-0.216, 1.0963531e-8, -4.5779052e-9, 1.0566689e+2
-0.217, 1.0803848e-8, -4.5956390e-9, 1.0600022e+2
-0.218, 1.0967366e-8, -4.6243960e-9, 1.0633356e+2
-0.219, 1.0957780e-8, -4.6060231e-9, 1.0666689e+2
-0.220, 1.1004270e-8, -4.6108961e-9, 1.0700023e+2
-0.221, 1.1002434e-8, -4.5983546e-9, 1.0733356e+2
-0.222, 1.1021685e-8, -4.6110555e-9, 1.0766690e+2
-0.223, 1.1168427e-8, -4.6145705e-9, 1.0800024e+2
-0.224, 1.1150374e-8, -4.6206416e-9, 1.0833357e+2
-0.225, 1.1224503e-8, -4.6154494e-9, 1.0866691e+2
-0.226, 1.1325233e-8, -4.6262332e-9, 1.0900024e+2
-0.227, 1.1325154e-8, -4.6173660e-9, 1.0933358e+2
-0.228, 1.1404077e-8, -4.6333426e-9, 1.0966692e+2
-0.229, 1.1454002e-8, -4.6297481e-9, 1.1000025e+2
-0.230, 1.1423168e-8, -4.6291890e-9, 1.1033359e+2
-0.231, 1.1459913e-8, -4.6449258e-9, 1.1066692e+2
-0.232, 1.1487392e-8, -4.6510764e-9, 1.1100026e+2
-0.233, 1.1520942e-8, -4.6701678e-9, 1.1133360e+2
-0.234, 1.1556330e-8, -4.6564281e-9, 1.1166693e+2
-0.235, 1.1709862e-8, -4.6811914e-9, 1.1200027e+2
-0.236, 1.1769613e-8, -4.7049964e-9, 1.1233360e+2
-0.237, 1.1855725e-8, -4.7401438e-9, 1.1266694e+2
-0.238, 1.1900139e-8, -4.7893507e-9, 1.1300027e+2
-0.239, 1.1938003e-8, -4.7757709e-9, 1.1333361e+2
-0.240, 1.1918751e-8, -4.8019717e-9, 1.1366695e+2
-0.241, 1.1955257e-8, -4.8320872e-9, 1.1400028e+2
-0.242, 1.2123007e-8, -4.9125277e-9, 1.1433362e+2
-0.243, 1.2083786e-8, -4.9058975e-9, 1.1466695e+2
-0.244, 1.2088818e-8, -4.9376103e-9, 1.1500029e+2
-0.245, 1.2302421e-8, -4.9417643e-9, 1.1533363e+2
-0.246, 1.2293794e-8, -4.9654885e-9, 1.1566696e+2
-0.247, 1.2409062e-8, -4.9847402e-9, 1.1600030e+2
-0.248, 1.2455074e-8, -4.9818647e-9, 1.1633363e+2
-0.249, 1.2456911e-8, -5.0103823e-9, 1.1666697e+2
-0.250, 1.2502684e-8, -5.0198081e-9, 1.1700031e+2
-0.251, 1.2552530e-8, -5.0252402e-9, 1.1733364e+2
-0.252, 1.2636964e-8, -5.0567133e-9, 1.1766698e+2
-0.253, 1.2717724e-8, -5.0812368e-9, 1.1800031e+2
-0.254, 1.2723475e-8, -5.0794791e-9, 1.1833365e+2
-0.255, 1.2848489e-8, -5.1062394e-9, 1.1866698e+2
-0.256, 1.2896417e-8, -5.0982512e-9, 1.1900032e+2
-0.257, 1.2875648e-8, -5.1259699e-9, 1.1933366e+2
-0.258, 1.2945704e-8, -5.1380322e-9, 1.1966699e+2
-0.259, 1.2984526e-8, -5.2072893e-9, 1.2000033e+2
-0.260, 1.2956647e-8, -5.1917923e-9, 1.2033366e+2
-0.261, 1.3211788e-8, -5.2634461e-9, 1.2066700e+2
-0.262, 1.3140455e-8, -5.3064220e-9, 1.2100034e+2
-0.263, 1.3249013e-8, -5.3593832e-9, 1.2133367e+2
-0.264, 1.3279049e-8, -5.3880607e-9, 1.2166701e+2
-0.265, 1.3345590e-8, -5.4176166e-9, 1.2200034e+2
-0.266, 1.3373868e-8, -5.4469327e-9, 1.2233368e+2
-0.267, 1.3406299e-8, -5.4693796e-9, 1.2266702e+2
-0.268, 1.3419001e-8, -5.4693796e-9, 1.2300035e+2
-0.269, 1.3432421e-8, -5.4794445e-9, 1.2333369e+2
-0.270, 1.3455027e-8, -5.4945422e-9, 1.2366702e+2
-0.271, 1.3474279e-8, -5.5010125e-9, 1.2400036e+2
-0.272, 1.3523247e-8, -5.5333644e-9, 1.2433369e+2
-0.273, 1.3677097e-8, -5.5485421e-9, 1.2466703e+2
-0.274, 1.3855073e-8, -5.5236193e-9, 1.2500037e+2
-0.275, 1.3605844e-8, -5.5677134e-9, 1.2533370e+2
-0.276, 1.3948374e-8, -5.5509384e-9, 1.2566704e+2
-0.277, 1.3678456e-8, -5.6262666e-9, 1.2600037e+2
-0.278, 1.3799875e-8, -5.5953526e-9, 1.2633371e+2
-0.279, 1.3800832e-8, -5.5960712e-9, 1.2666705e+2
-0.280, 1.3917460e-8, -5.5929559e-9, 1.2700038e+2
-0.281, 1.3860505e-8, -5.6315383e-9, 1.2733372e+2
-0.282, 1.3908832e-8, -5.6306599e-9, 1.2766705e+2
-0.283, 1.3899326e-8, -5.6722778e-9, 1.2800038e+2
-0.284, 1.3928004e-8, -5.6571006e-9, 1.2833371e+2
-0.285, 1.3955483e-8, -5.6809055e-9, 1.2866704e+2
-0.286, 1.4013398e-8, -5.7311507e-9, 1.2900037e+2
-0.287, 1.4059728e-8, -5.7093432e-9, 1.2933369e+2
-0.288, 1.4067318e-8, -5.7265970e-9, 1.2966702e+2
-0.289, 1.4074827e-8, -5.7560734e-9, 1.3000035e+2
-0.290, 1.4285393e-8, -5.7795586e-9, 1.3033368e+2
-0.291, 1.4134418e-8, -5.8187006e-9, 1.3066701e+2
-0.292, 1.4090483e-8, -5.8365135e-9, 1.3100034e+2
-0.293, 1.4298174e-8, -5.8505729e-9, 1.3133366e+2
-0.294, 1.4273171e-8, -5.8536882e-9, 1.3166699e+2
-0.295, 1.4295378e-8, -5.8550462e-9, 1.3200032e+2
-0.296, 1.4383726e-8, -5.9000196e-9, 1.3233365e+2
-0.297, 1.4373502e-8, -5.8883569e-9, 1.3266698e+2
-0.298, 1.4384446e-8, -5.8877179e-9, 1.3300031e+2
-0.299, 1.4365274e-8, -5.9120016e-9, 1.3333363e+2
-0.300, 1.4405534e-8, -5.9280580e-9, 1.3366696e+2
-0.301, 1.4404416e-8, -5.9146377e-9, 1.3400029e+2
-0.302, 1.4400102e-8, -5.9298952e-9, 1.3433362e+2
-0.303, 1.4466403e-8, -5.9270993e-9, 1.3466695e+2
-0.304, 1.4457616e-8, -5.9425962e-9, 1.3500027e+2
-0.305, 1.4448829e-8, -5.9408385e-9, 1.3533360e+2
-0.306, 1.4556431e-8, -5.9509837e-9, 1.3566693e+2
-0.307, 1.4496120e-8, -5.9648029e-9, 1.3600026e+2
-0.308, 1.4588783e-8, -5.9713536e-9, 1.3633359e+2
-0.309, 1.4755574e-8, -5.9650431e-9, 1.3666692e+2
-0.310, 1.4577759e-8, -5.9566556e-9, 1.3700024e+2
-0.311, 1.4737441e-8, -5.9783827e-9, 1.3733357e+2
-0.312, 1.4756373e-8, -5.9870104e-9, 1.3766690e+2
-0.313, 1.4636231e-8, -5.9562559e-9, 1.3800023e+2
-0.314, 1.4768913e-8, -5.9857319e-9, 1.3833356e+2
-0.315, 1.4806937e-8, -5.9940399e-9, 1.3866689e+2
-0.316, 1.4816843e-8, -5.9914838e-9, 1.3900021e+2
-0.317, 1.4852071e-8, -5.9912439e-9, 1.3933354e+2
-0.318, 1.4819958e-8, -5.9908443e-9, 1.3966687e+2
-0.319, 1.4885301e-8, -5.9961964e-9, 1.4000020e+2
-0.320, 1.4863414e-8, -5.9835750e-9, 1.4033353e+2
-0.321, 1.4883703e-8, -5.9979541e-9, 1.4066685e+2
-0.322, 1.4927798e-8, -6.0176846e-9, 1.4100018e+2
-0.323, 1.4906949e-8, -6.0104153e-9, 1.4133351e+2
-0.324, 1.4896805e-8, -6.0123324e-9, 1.4166684e+2
-0.325, 1.5043947e-8, -6.0269509e-9, 1.4200017e+2
-0.326, 1.4969894e-8, -6.0341399e-9, 1.4233350e+2
-0.327, 1.4943694e-8, -5.9989924e-9, 1.4266682e+2
-0.328, 1.5067510e-8, -6.0164065e-9, 1.4300015e+2
-0.329, 1.5015827e-8, -6.0462022e-9, 1.4333348e+2
-0.330, 1.5008878e-8, -6.0309446e-9, 1.4366681e+2
-0.331, 1.5180701e-8, -6.0380541e-9, 1.4400014e+2
-0.332, 1.5117516e-8, -6.0359775e-9, 1.4433347e+2
-0.333, 1.5205703e-8, -6.0363767e-9, 1.4466679e+2
-0.334, 1.5189649e-8, -6.0354179e-9, 1.4500012e+2
-0.335, 1.5277918e-8, -6.0435661e-9, 1.4533345e+2
-0.336, 1.5283110e-8, -6.0418888e-9, 1.4566678e+2
-0.337, 1.5260262e-8, -6.0553882e-9, 1.4600011e+2
-0.338, 1.5342382e-8, -6.0516339e-9, 1.4633344e+2
-0.339, 1.5364508e-8, -6.0594623e-9, 1.4666676e+2
-0.340, 1.5328801e-8, -6.0348588e-9, 1.4700009e+2
-0.341, 1.5377449e-8, -6.0451635e-9, 1.4733342e+2
-0.342, 1.5376811e-8, -6.0470007e-9, 1.4766675e+2
-0.343, 1.5402293e-8, -6.0787935e-9, 1.4800008e+2
-0.344, 1.5325128e-8, -6.0833472e-9, 1.4833340e+2
-0.345, 1.5322412e-8, -6.0656129e-9, 1.4866673e+2
-0.346, 1.5390549e-8, -6.0601812e-9, 1.4900006e+2
-0.347, 1.5360275e-8, -6.0742407e-9, 1.4933339e+2
-0.348, 1.5382561e-8, -6.0563470e-9, 1.4966672e+2
-0.349, 1.5393985e-8, -6.0759180e-9, 1.5000005e+2
-0.350, 1.5405567e-8, -6.0574656e-9, 1.5033337e+2
-0.351, 1.5475383e-8, -6.0731220e-9, 1.5066670e+2
-0.352, 1.5439596e-8, -6.0732819e-9, 1.5100003e+2
-0.353, 1.5432008e-8, -6.0815895e-9, 1.5133336e+2
-0.354, 1.5484330e-8, -6.0830274e-9, 1.5166669e+2
-0.355, 1.5526428e-8, -6.0738410e-9, 1.5200002e+2
-0.356, 1.5523872e-8, -6.0823884e-9, 1.5233334e+2
-0.357, 1.5657353e-8, -6.0724830e-9, 1.5266667e+2
-0.358, 1.5580028e-8, -6.0841456e-9, 1.5300000e+2
-0.359, 1.5600877e-8, -6.0938112e-9, 1.5333333e+2
-0.360, 1.5684593e-8, -6.0887788e-9, 1.5366666e+2
-0.361, 1.5625162e-8, -6.0820686e-9, 1.5399998e+2
-0.362, 1.5674287e-8, -6.0819891e-9, 1.5433331e+2
-0.363, 1.5737633e-8, -6.0834267e-9, 1.5466664e+2
-0.364, 1.5784126e-8, -6.0958083e-9, 1.5499997e+2
-0.365, 1.5788277e-8, -6.0886989e-9, 1.5533330e+2
-0.366, 1.5796426e-8, -6.0955689e-9, 1.5566663e+2
-0.367, 1.5844275e-8, -6.0794330e-9, 1.5599995e+2
-0.368, 1.5827261e-8, -6.1048349e-9, 1.5633328e+2
-0.369, 1.5814800e-8, -6.1026784e-9, 1.5666661e+2
-0.370, 1.5852343e-8, -6.1403824e-9, 1.5699994e+2
-0.371, 1.5879982e-8, -6.1014003e-9, 1.5733327e+2
-0.372, 1.5841000e-8, -6.1331127e-9, 1.5766660e+2
-0.373, 1.5899074e-8, -6.1228080e-9, 1.5799992e+2
-0.374, 1.5890846e-8, -6.1133023e-9, 1.5833325e+2
-0.375, 1.5891645e-8, -6.1080305e-9, 1.5866658e+2
-0.376, 1.5932224e-8, -6.1520447e-9, 1.5899991e+2
-0.377, 1.5915770e-8, -6.1217698e-9, 1.5933324e+2
-0.378, 1.6008190e-8, -6.1136221e-9, 1.5966656e+2
-0.379, 1.5995891e-8, -6.1343113e-9, 1.5999989e+2
-0.380, 1.6049889e-8, -6.1323941e-9, 1.6033322e+2
-0.381, 1.6013624e-8, -6.1382255e-9, 1.6066655e+2
-0.382, 1.6043977e-8, -6.1384648e-9, 1.6099988e+2
-0.383, 1.6210210e-8, -6.1434178e-9, 1.6133321e+2
-0.384, 1.6195115e-8, -6.1580359e-9, 1.6166653e+2
-0.385, 1.6234655e-8, -6.1629088e-9, 1.6199986e+2
-0.386, 1.6304231e-8, -6.1639471e-9, 1.6233319e+2
-0.387, 1.6258939e-8, -6.1549206e-9, 1.6266652e+2
-0.388, 1.6289054e-8, -6.1550005e-9, 1.6299985e+2
-0.389, 1.6356553e-8, -6.1771273e-9, 1.6333318e+2
-0.390, 1.6313098e-8, -6.1895888e-9, 1.6366650e+2
-0.391, 1.6333228e-8, -6.1659442e-9, 1.6399983e+2
-0.392, 1.6359509e-8, -6.1657843e-9, 1.6433316e+2
-0.393, 1.6348965e-8, -6.2199437e-9, 1.6466649e+2
-0.394, 1.6372530e-8, -6.1803225e-9, 1.6499982e+2
-0.395, 1.6369334e-8, -6.2455059e-9, 1.6533315e+2
-0.396, 1.6390263e-8, -6.2306480e-9, 1.6566647e+2
-0.397, 1.6403204e-8, -6.2471033e-9, 1.6599980e+2
-0.398, 1.6434836e-8, -6.2235386e-9, 1.6633313e+2
-0.399, 1.6473580e-8, -6.2232188e-9, 1.6666646e+2
-0.400, 1.6565204e-8, -6.2753811e-9, 1.6699979e+2
-0.401, 1.6574790e-8, -6.2436687e-9, 1.6733311e+2
-0.402, 1.6656667e-8, -6.2087602e-9, 1.6766644e+2
-0.403, 1.6637257e-8, -6.2202634e-9, 1.6799977e+2
-0.404, 1.6641010e-8, -6.2771388e-9, 1.6833310e+2
-0.405, 1.6838397e-8, -6.2570886e-9, 1.6866643e+2
-0.406, 1.6694612e-8, -6.2649170e-9, 1.6899976e+2
-0.407, 1.6829850e-8, -6.2301684e-9, 1.6933308e+2
-0.408, 1.6656507e-8, -6.3469554e-9, 1.6966641e+2
-0.409, 1.6739744e-8, -6.3525469e-9, 1.6999974e+2
-0.410, 1.6879296e-8, -6.3342540e-9, 1.7033307e+2
-0.411, 1.6821621e-8, -6.3744343e-9, 1.7066640e+2
-0.412, 1.6852375e-8, -6.3474341e-9, 1.7099973e+2
-0.413, 1.6860445e-8, -6.3085319e-9, 1.7133305e+2
-0.414, 1.6856690e-8, -6.3502306e-9, 1.7166638e+2
-0.415, 1.6916681e-8, -6.3478338e-9, 1.7199971e+2
-0.416, 1.6928103e-8, -6.3507892e-9, 1.7233304e+2
-0.417, 1.6916681e-8, -6.3531056e-9, 1.7266637e+2
-0.418, 1.7075324e-8, -6.3525469e-9, 1.7299969e+2
-0.419, 1.6982822e-8, -6.3863368e-9, 1.7333302e+2
-0.420, 1.7035225e-8, -6.3773902e-9, 1.7366635e+2
-0.421, 1.7241637e-8, -6.4080643e-9, 1.7399968e+2
-0.422, 1.7171901e-8, -6.4184489e-9, 1.7433301e+2
-0.423, 1.7247389e-8, -6.3960823e-9, 1.7466634e+2
-0.424, 1.7295639e-8, -6.3995169e-9, 1.7499966e+2
-0.425, 1.7222627e-8, -6.4389782e-9, 1.7533299e+2
-0.426, 1.7277584e-8, -6.4358630e-9, 1.7566632e+2
-0.427, 1.7332463e-8, -6.4544752e-9, 1.7599965e+2
-0.428, 1.7318802e-8, -6.4561525e-9, 1.7633298e+2
-0.429, 1.7338134e-8, -6.4485639e-9, 1.7666631e+2
-0.430, 1.7366972e-8, -6.4597474e-9, 1.7699963e+2
-0.431, 1.7388620e-8, -6.4598269e-9, 1.7733296e+2
-0.432, 1.7393733e-8, -6.4664571e-9, 1.7766629e+2
-0.433, 1.7439824e-8, -6.4948149e-9, 1.7799962e+2
-0.434, 1.7586085e-8, -6.4914598e-9, 1.7833295e+2
-0.435, 1.7650310e-8, -6.4885848e-9, 1.7866628e+2
-0.436, 1.7683861e-8, -6.4786794e-9, 1.7899960e+2
-0.437, 1.7744650e-8, -6.5113510e-9, 1.7933293e+2
-0.438, 1.7626906e-8, -6.5095134e-9, 1.7966626e+2
-0.439, 1.7755912e-8, -6.4958536e-9, 1.7999959e+2
-0.440, 1.7767336e-8, -6.5111108e-9, 1.8033292e+2
-0.441, 1.7801446e-8, -6.4995280e-9, 1.8066624e+2
-0.442, 1.7824291e-8, -6.5064780e-9, 1.8099957e+2
-0.443, 1.7813747e-8, -6.5127890e-9, 1.8133290e+2
-0.444, 1.7835555e-8, -6.5255694e-9, 1.8166623e+2
-0.445, 1.7833877e-8, -6.5249304e-9, 1.8199956e+2
-0.446, 1.7845460e-8, -6.5171815e-9, 1.8233289e+2
-0.447, 1.8017603e-8, -6.5421046e-9, 1.8266621e+2
-0.448, 1.8010974e-8, -6.5348358e-9, 1.8299954e+2
-0.449, 1.7969676e-8, -6.5386700e-9, 1.8333287e+2
-0.450, 1.8231844e-8, -6.5436221e-9, 1.8366620e+2
-0.451, 1.8183837e-8, -6.5561636e-9, 1.8399953e+2
-0.452, 1.8223858e-8, -6.5512116e-9, 1.8433286e+2
-0.453, 1.8309890e-8, -6.5482557e-9, 1.8466618e+2
-0.454, 1.8304057e-8, -6.5677463e-9, 1.8499951e+2
-0.455, 1.8311805e-8, -6.5573618e-9, 1.8533284e+2
-0.456, 1.8349031e-8, -6.5714212e-9, 1.8566617e+2
-0.457, 1.8342881e-8, -6.5666281e-9, 1.8599950e+2
-0.458, 1.8407423e-8, -6.5592798e-9, 1.8633282e+2
-0.459, 1.8423561e-8, -6.5886758e-9, 1.8666615e+2
-0.460, 1.8538429e-8, -6.5932291e-9, 1.8699948e+2
-0.461, 1.8567347e-8, -6.6317312e-9, 1.8733281e+2
-0.462, 1.8628775e-8, -6.6242225e-9, 1.8766614e+2
-0.463, 1.8688207e-8, -6.6376424e-9, 1.8799947e+2
-0.464, 1.8743645e-8, -6.6772641e-9, 1.8833279e+2
-0.465, 1.8761698e-8, -6.6705539e-9, 1.8866612e+2
-0.466, 1.8845492e-8, -6.7141692e-9, 1.8899945e+2
-0.467, 1.8848848e-8, -6.7072192e-9, 1.8933278e+2
-0.468, 1.8886551e-8, -6.7539498e-9, 1.8966611e+2
-0.469, 1.9061094e-8, -6.7447634e-9, 1.8999944e+2
-0.470, 1.8959085e-8, -6.7890173e-9, 1.9033276e+2
-0.471, 1.9104307e-8, -6.8248047e-9, 1.9066609e+2
-0.472, 1.9212788e-8, -6.8394228e-9, 1.9099942e+2
-0.473, 1.9229802e-8, -6.8561183e-9, 1.9133275e+2
-0.474, 1.9271580e-8, -6.8570762e-9, 1.9166608e+2
-0.475, 1.9288356e-8, -6.8865531e-9, 1.9199940e+2
-0.476, 1.9333168e-8, -6.8703367e-9, 1.9233273e+2
-0.477, 1.9376543e-8, -6.8911064e-9, 1.9266606e+2
-0.478, 1.9403544e-8, -6.8975763e-9, 1.9299939e+2
-0.479, 1.9545492e-8, -6.9264936e-9, 1.9333272e+2
-0.480, 1.9673063e-8, -6.9180257e-9, 1.9366605e+2
-0.481, 1.9714921e-8, -6.9753803e-9, 1.9399937e+2
-0.482, 1.9800394e-8, -6.9576473e-9, 1.9433270e+2
-0.483, 1.9825636e-8, -6.9704278e-9, 1.9466603e+2
-0.484, 1.9861583e-8, -7.0059754e-9, 1.9499936e+2
-0.485, 2.0041474e-8, -7.0017414e-9, 1.9533269e+2
-0.486, 2.0054735e-8, -6.9775372e-9, 1.9566602e+2
-0.487, 2.0189097e-8, -6.9998243e-9, 1.9599934e+2
-0.488, 2.0237742e-8, -7.0055761e-9, 1.9633267e+2
-0.489, 2.0246929e-8, -7.0260255e-9, 1.9666600e+2
-0.490, 2.0296456e-8, -7.0471140e-9, 1.9699933e+2
-0.491, 2.0329447e-8, -7.0531048e-9, 1.9733266e+2
-0.492, 2.0513493e-8, -7.0508683e-9, 1.9766599e+2
-0.493, 2.0496719e-8, -7.0656463e-9, 1.9799931e+2
-0.494, 2.0639067e-8, -7.1820336e-9, 1.9833264e+2
-0.495, 2.0739716e-8, -7.1025514e-9, 1.9866597e+2
-0.496, 2.0759368e-8, -7.2579205e-9, 1.9899930e+2
-0.497, 2.0836852e-8, -7.2659887e-9, 1.9933263e+2
-0.498, 2.1006121e-8, -7.2979414e-9, 1.9966595e+2
-0.499, 2.1103896e-8, -7.2949859e-9, 1.9999928e+2
