Dec. 21, 2005   06:15:41
Cyclic Voltammetry
File: d:\ida_biofilms\12_10_18_dphzstar\a_760b\75um_pyo\a_75um_pyo_gc_2.txt
Data Source:  Experiment
Instrument Model:  CHI760E
Header: 
Note: 

Init E (V) = 0.1
High E (V) = 0.1
Low E (V) = -0.5
Init P/N = N
Scan Rate (V/s) = 0.003
Segment = 1
Sample Interval (V) = 0.001
Quiet Time (sec) = 2
Sensitivity (A/V) = 1e-7
2nd E (V) = 0.1
Sens 2 (A/V) = 1e-7

Potential/V, i1/A, i2/A, Time/s

0.100, -9.9707293e-8, -8.6309512e-8, 3.3333334e-1
0.099, -8.2354049e-8, -7.7941714e-8, 6.6666669e-1
0.098, -7.1655315e-8, -7.1375794e-8, 1.0000000e+0
0.097, -6.3658725e-8, -6.5925100e-8, 1.3333334e+0
0.096, -5.7362168e-8, -6.1471717e-8, 1.6666667e+0
0.095, -5.2075148e-8, -5.7614976e-8, 2.0000000e+0
0.094, -4.7497632e-8, -5.4310608e-8, 2.3333333e+0
0.093, -4.3686740e-8, -5.1291259e-8, 2.6666665e+0
0.092, -4.0381252e-8, -4.8634327e-8, 2.9999998e+0
0.091, -3.7370210e-8, -4.6251468e-8, 3.3333330e+0
0.090, -3.4819280e-8, -4.4090203e-8, 3.6666663e+0
0.089, -3.2425721e-8, -4.2043247e-8, 3.9999995e+0
0.088, -3.0209897e-8, -4.0221074e-8, 4.3333330e+0
0.087, -2.8403781e-8, -3.8549878e-8, 4.6666665e+0
0.086, -2.6716370e-8, -3.7049627e-8, 5.0000000e+0
0.085, -2.5160841e-8, -3.5620634e-8, 5.3333335e+0
0.084, -2.3690946e-8, -3.4327115e-8, 5.6666670e+0
0.083, -2.2324580e-8, -3.3090235e-8, 6.0000005e+0
0.082, -2.1161828e-8, -3.2025898e-8, 6.3333340e+0
0.081, -2.0051479e-8, -3.1008369e-8, 6.6666675e+0
0.080, -1.8927389e-8, -3.0095087e-8, 7.0000010e+0
0.079, -1.7995655e-8, -2.9209044e-8, 7.3333344e+0
0.078, -1.7005846e-8, -2.8285379e-8, 7.6666679e+0
0.077, -1.6240104e-8, -2.7483372e-8, 8.0000010e+0
0.076, -1.5433782e-8, -2.6766038e-8, 8.3333340e+0
0.075, -1.4520102e-8, -2.6095435e-8, 8.6666670e+0
0.074, -1.3905814e-8, -2.5506232e-8, 9.0000000e+0
0.073, -1.3118266e-8, -2.4898894e-8, 9.3333330e+0
0.072, -1.2476020e-8, -2.4319675e-8, 9.6666660e+0
0.071, -1.1914375e-8, -2.3762263e-8, 9.9999990e+0
0.070, -1.1193367e-8, -2.3261329e-8, 1.0333332e+1
0.069, -1.0691314e-8, -2.2824857e-8, 1.0666665e+1
0.068, -1.0122639e-8, -2.2398771e-8, 1.0999998e+1
0.067, -9.6176302e-9, -2.2028601e-8, 1.1333331e+1
0.066, -9.1682981e-9, -2.1625999e-8, 1.1666664e+1
0.065, -8.6105674e-9, -2.1185055e-8, 1.1999997e+1
0.064, -8.1649905e-9, -2.0806418e-8, 1.2333330e+1
0.063, -7.7296374e-9, -2.0398145e-8, 1.2666663e+1
0.062, -7.2477131e-9, -2.0176236e-8, 1.2999996e+1
0.061, -6.9767565e-9, -1.9775070e-8, 1.3333329e+1
0.060, -6.5950037e-9, -1.9492452e-8, 1.3666662e+1
0.059, -6.1229857e-9, -1.9223490e-8, 1.3999995e+1
0.058, -5.7723071e-9, -1.8895658e-8, 1.4333328e+1
0.057, -5.4765068e-9, -1.8678302e-8, 1.4666661e+1
0.056, -5.1053783e-9, -1.8350228e-8, 1.4999994e+1
0.055, -4.7936024e-9, -1.8162590e-8, 1.5333327e+1
0.054, -4.5719317e-9, -1.7855845e-8, 1.5666660e+1
0.053, -4.2276436e-9, -1.7675074e-8, 1.5999993e+1
0.052, -3.8352668e-9, -1.7350915e-8, 1.6333326e+1
0.051, -3.6546555e-9, -1.7230374e-8, 1.6666660e+1
0.050, -3.3574972e-9, -1.6967165e-8, 1.6999994e+1
0.049, -3.0779130e-9, -1.6792626e-8, 1.7333328e+1
0.048, -2.8470561e-9, -1.6619524e-8, 1.7666662e+1
0.047, -2.7074236e-9, -1.6371811e-8, 1.7999996e+1
0.046, -2.2504232e-9, -1.6253827e-8, 1.8333330e+1
0.045, -2.1611957e-9, -1.6032395e-8, 1.8666664e+1
0.044, -1.8757802e-9, -1.5860092e-8, 1.8999998e+1
0.043, -1.5423558e-9, -1.5727329e-8, 1.9333332e+1
0.042, -1.4211760e-9, -1.5510292e-8, 1.9666666e+1
0.041, -1.2688425e-9, -1.5376171e-8, 2.0000000e+1
0.040, -9.4771990e-10, -1.5276399e-8, 2.0333334e+1
0.039, -8.6616109e-10, -1.5090995e-8, 2.0666668e+1
0.038, -7.0208506e-10, -1.4896084e-8, 2.1000002e+1
0.037, -4.2825221e-10, -1.4828904e-8, 2.1333336e+1
0.036, -2.9029731e-10, -1.4682323e-8, 2.1666670e+1
0.035, -1.4459391e-10, -1.4468322e-8, 2.2000004e+1
0.034, -5.4407906e-12, -1.4407451e-8, 2.2333338e+1
0.033, 2.1622966e-10, -1.4298014e-8, 2.2666672e+1
0.032, 4.1082035e-10, -1.4182106e-8, 2.3000006e+1
0.031, 4.6274312e-10, -1.3958759e-8, 2.3333340e+1
0.030, 7.1277145e-10, -1.3896612e-8, 2.3666674e+1
0.029, 7.7180368e-10, -1.3805867e-8, 2.4000008e+1
0.028, 9.5569030e-10, -1.3756979e-8, 2.4333342e+1
0.027, 1.1641004e-9, -1.3551843e-8, 2.4666676e+1
0.026, 1.1905411e-9, -1.3438492e-8, 2.5000010e+1
0.025, 1.3901643e-9, -1.3381936e-8, 2.5333344e+1
0.024, 1.5851545e-9, -1.3322345e-8, 2.5666677e+1
0.023, 1.6400328e-9, -1.3223611e-8, 2.6000011e+1
0.022, 1.7096892e-9, -1.3102591e-8, 2.6333345e+1
0.021, 1.8446086e-9, -1.2954252e-8, 2.6666679e+1
0.020, 2.0918411e-9, -1.2907441e-8, 2.7000013e+1
0.019, 2.1499946e-9, -1.2813741e-8, 2.7333347e+1
0.018, 2.1817874e-9, -1.2791294e-8, 2.7666681e+1
0.017, 2.2254825e-9, -1.2589833e-8, 2.8000015e+1
0.016, 2.5714482e-9, -1.2511150e-8, 2.8333349e+1
0.015, 2.5970102e-9, -1.2475684e-8, 2.8666683e+1
0.014, 2.6658677e-9, -1.2413296e-8, 2.9000017e+1
0.013, 2.7293732e-9, -1.2357219e-8, 2.9333351e+1
0.012, 2.8933695e-9, -1.2263119e-8, 2.9666685e+1
0.011, 3.0533716e-9, -1.2247143e-8, 3.0000019e+1
0.010, 3.0780549e-9, -1.2040970e-8, 3.0333353e+1
0.009, 3.1775069e-9, -1.1977304e-8, 3.0666687e+1
0.008, 3.1856549e-9, -1.1944793e-8, 3.1000021e+1
0.007, 3.3837606e-9, -1.1864032e-8, 3.1333355e+1
0.006, 3.3426215e-9, -1.1853888e-8, 3.1666689e+1
0.005, 3.5797891e-9, -1.1779199e-8, 3.2000023e+1
0.004, 3.6267591e-9, -1.1641563e-8, 3.2333355e+1
0.003, 3.6559158e-9, -1.1525256e-8, 3.2666687e+1
0.002, 3.7012884e-9, -1.1486354e-8, 3.3000019e+1
0.001, 3.9444470e-9, -1.1453762e-8, 3.3333351e+1
-0.000, 3.9990056e-9, -1.1415021e-8, 3.3666683e+1
-0.001, 4.0597157e-9, -1.1378114e-8, 3.4000015e+1
-0.002, 4.1487032e-9, -1.1323795e-8, 3.4333347e+1
-0.003, 4.1749839e-9, -1.1258853e-8, 3.4666679e+1
-0.004, 4.2549448e-9, -1.1194627e-8, 3.5000011e+1
-0.005, 4.5659228e-9, -1.1101406e-8, 3.5333344e+1
-0.006, 4.5621684e-9, -1.1061307e-8, 3.5666676e+1
-0.007, 4.5705559e-9, -1.0977431e-8, 3.6000008e+1
-0.008, 4.6279909e-9, -1.0966247e-8, 3.6333340e+1
-0.009, 4.6676116e-9, -1.0930541e-8, 3.6666672e+1
-0.010, 4.7154605e-9, -1.0897550e-8, 3.7000004e+1
-0.011, 4.8586877e-9, -1.0865517e-8, 3.7333336e+1
-0.012, 4.9647699e-9, -1.0822701e-8, 3.7666668e+1
-0.013, 5.0364233e-9, -1.0794502e-8, 3.8000000e+1
-0.014, 5.1034434e-9, -1.0719335e-8, 3.8333332e+1
-0.015, 5.1305236e-9, -1.0651116e-8, 3.8666664e+1
-0.016, 5.1633551e-9, -1.0566202e-8, 3.8999996e+1
-0.017, 5.1842837e-9, -1.0534569e-8, 3.9333328e+1
-0.018, 5.4609921e-9, -1.0495507e-8, 3.9666660e+1
-0.019, 5.4736136e-9, -1.0461478e-8, 3.9999992e+1
-0.020, 5.5494209e-9, -1.0432960e-8, 4.0333324e+1
-0.021, 5.6031810e-9, -1.0410833e-8, 4.0666656e+1
-0.022, 5.5907194e-9, -1.0381277e-8, 4.0999989e+1
-0.023, 5.6303406e-9, -1.0350603e-8, 4.1333321e+1
-0.024, 5.7543961e-9, -1.0303872e-8, 4.1666653e+1
-0.025, 5.7638223e-9, -1.0271760e-8, 4.1999985e+1
-0.026, 5.9095253e-9, -1.0225748e-8, 4.2333317e+1
-0.027, 5.8921912e-9, -1.0175423e-8, 4.2666649e+1
-0.028, 6.0547496e-9, -1.0084118e-8, 4.2999981e+1
-0.029, 6.0094565e-9, -1.0042900e-8, 4.3333313e+1
-0.030, 6.0612995e-9, -1.0003039e-8, 4.3666645e+1
-0.031, 6.1351901e-9, -9.9879420e-9, 4.3999977e+1
-0.032, 6.1003615e-9, -9.9560697e-9, 4.4333309e+1
-0.033, 6.1633081e-9, -9.9527941e-9, 4.4666641e+1
-0.034, 6.3568599e-9, -9.8991144e-9, 4.4999973e+1
-0.035, 6.3664460e-9, -9.9011910e-9, 4.5333305e+1
-0.036, 6.4542354e-9, -9.8591730e-9, 4.5666637e+1
-0.037, 6.5491341e-9, -9.8356878e-9, 4.5999969e+1
-0.038, 6.5066375e-9, -9.7982236e-9, 4.6333302e+1
-0.039, 6.5616756e-9, -9.7340793e-9, 4.6666634e+1
-0.040, 6.6028947e-9, -9.6855919e-9, 4.6999966e+1
-0.041, 6.5912320e-9, -9.6438137e-9, 4.7333298e+1
-0.042, 6.6461898e-9, -9.5940473e-9, 4.7666630e+1
-0.043, 6.6676780e-9, -9.6043520e-9, 4.7999962e+1
-0.044, 6.7265504e-9, -9.5435624e-9, 4.8333294e+1
-0.045, 6.7359767e-9, -9.5184003e-9, 4.8666626e+1
-0.046, 6.7736807e-9, -9.5010657e-9, 4.8999958e+1
-0.047, 6.9665940e-9, -9.4827728e-9, 4.9333290e+1
-0.048, 6.9303274e-9, -9.4717496e-9, 4.9666622e+1
-0.049, 6.9323249e-9, -9.4682342e-9, 4.9999954e+1
-0.050, 7.0209927e-9, -9.4509804e-9, 5.0333286e+1
-0.051, 7.0325754e-9, -9.4304511e-9, 5.0666618e+1
-0.052, 7.0463151e-9, -9.4078443e-9, 5.0999950e+1
-0.053, 7.0676434e-9, -9.3904307e-9, 5.1333282e+1
-0.054, 7.0535040e-9, -9.3605550e-9, 5.1666615e+1
-0.055, 7.0753918e-9, -9.3471346e-9, 5.1999947e+1
-0.056, 7.1698913e-9, -9.2990460e-9, 5.2333279e+1
-0.057, 7.1706907e-9, -9.2944932e-9, 5.2666611e+1
-0.058, 7.2532074e-9, -9.2372181e-9, 5.2999943e+1
-0.059, 7.2219737e-9, -9.2106172e-9, 5.3333275e+1
-0.060, 7.2294832e-9, -9.1164374e-9, 5.3666607e+1
-0.061, 7.3140769e-9, -9.1030170e-9, 5.3999939e+1
-0.062, 7.3501036e-9, -9.0719441e-9, 5.4333271e+1
-0.063, 7.4547479e-9, -9.0636361e-9, 5.4666603e+1
-0.064, 7.4373334e-9, -9.0350385e-9, 5.4999935e+1
-0.065, 7.4206392e-9, -9.0277696e-9, 5.5333267e+1
-0.066, 7.5173752e-9, -9.0094767e-9, 5.5666599e+1
-0.067, 7.5130613e-9, -8.9995709e-9, 5.5999931e+1
-0.068, 7.4939699e-9, -8.9872696e-9, 5.6333263e+1
-0.069, 7.5617885e-9, -8.9614680e-9, 5.6666595e+1
-0.070, 7.5172153e-9, -8.9590717e-9, 5.6999928e+1
-0.071, 7.5376647e-9, -8.9310337e-9, 5.7333260e+1
-0.072, 7.5703364e-9, -8.9349470e-9, 5.7666592e+1
-0.073, 7.5462117e-9, -8.9244825e-9, 5.7999924e+1
-0.074, 7.5664222e-9, -8.8954861e-9, 5.8333256e+1
-0.075, 7.5684987e-9, -8.8819068e-9, 5.8666588e+1
-0.076, 7.5865527e-9, -8.8738386e-9, 5.8999920e+1
-0.077, 7.6915958e-9, -8.8577021e-9, 5.9333252e+1
-0.078, 7.6017299e-9, -8.8261496e-9, 5.9666584e+1
-0.079, 7.7070927e-9, -8.7893239e-9, 5.9999916e+1
-0.080, 7.7008622e-9, -8.7635224e-9, 6.0333248e+1
-0.081, 7.6808115e-9, -8.7166319e-9, 6.0666580e+1
-0.082, 7.8653377e-9, -8.6889935e-9, 6.0999912e+1
-0.083, 7.7333731e-9, -8.6630312e-9, 6.1333244e+1
-0.084, 7.7874533e-9, -8.6744549e-9, 6.1666576e+1
-0.085, 7.9211739e-9, -8.6039993e-9, 6.1999908e+1
-0.086, 7.7948821e-9, -8.5742036e-9, 6.2333241e+1
-0.087, 7.9429823e-9, -8.5680529e-9, 6.2666573e+1
-0.088, 7.9757330e-9, -8.5583878e-9, 6.2999905e+1
-0.089, 7.8881044e-9, -8.5536742e-9, 6.3333237e+1
-0.090, 7.9481746e-9, -8.5253165e-9, 6.3666569e+1
-0.091, 7.9485734e-9, -8.5246770e-9, 6.3999901e+1
-0.092, 7.9556033e-9, -8.5029495e-9, 6.4333237e+1
-0.093, 8.0115203e-9, -8.5124556e-9, 6.4666573e+1
-0.094, 7.9807663e-9, -8.4959204e-9, 6.4999908e+1
-0.095, 8.0294935e-9, -8.4621306e-9, 6.5333244e+1
-0.096, 8.0392395e-9, -8.4736334e-9, 6.5666580e+1
-0.097, 8.0361238e-9, -8.4674028e-9, 6.5999916e+1
-0.098, 8.0628038e-9, -8.4492688e-9, 6.6333252e+1
-0.099, 8.0477864e-9, -8.4271425e-9, 6.6666588e+1
-0.100, 8.0465883e-9, -8.4296188e-9, 6.6999924e+1
-0.101, 8.0679161e-9, -8.4138021e-9, 6.7333260e+1
-0.102, 8.0711118e-9, -8.4067722e-9, 6.7666595e+1
-0.103, 8.1805487e-9, -8.4032585e-9, 6.7999931e+1
-0.104, 8.1152063e-9, -8.3893585e-9, 6.8333267e+1
-0.105, 8.0960350e-9, -8.3725036e-9, 6.8666603e+1
-0.106, 8.1839842e-9, -8.3834468e-9, 6.8999939e+1
-0.107, 8.1304634e-9, -8.3880805e-9, 6.9333275e+1
-0.108, 8.1940490e-9, -8.3316838e-9, 6.9666611e+1
-0.109, 8.2484481e-9, -8.3023677e-9, 6.9999947e+1
-0.110, 8.1716021e-9, -8.2958973e-9, 7.0333282e+1
-0.111, 8.2926226e-9, -8.2939806e-9, 7.0666618e+1
-0.112, 8.2997316e-9, -8.2649034e-9, 7.0999954e+1
-0.113, 8.2774445e-9, -8.2406197e-9, 7.1333290e+1
-0.114, 8.3844061e-9, -8.1798301e-9, 7.1666626e+1
-0.115, 8.3849647e-9, -8.2081080e-9, 7.1999962e+1
-0.116, 8.3858440e-9, -8.1661700e-9, 7.2333298e+1
-0.117, 8.4653262e-9, -8.1616172e-9, 7.2666634e+1
-0.118, 8.4269827e-9, -8.1038634e-9, 7.2999969e+1
-0.119, 8.4117247e-9, -8.0928393e-9, 7.3333305e+1
-0.120, 8.4559790e-9, -8.1200788e-9, 7.3666641e+1
-0.121, 8.4560599e-9, -8.0738278e-9, 7.3999977e+1
-0.122, 8.5142133e-9, -8.0759843e-9, 7.4333313e+1
-0.123, 8.4646068e-9, -8.0866087e-9, 7.4666649e+1
-0.124, 8.5072633e-9, -8.0688753e-9, 7.4999985e+1
-0.125, 8.4999945e-9, -8.0452303e-9, 7.5333321e+1
-0.126, 8.5259559e-9, -8.0362037e-9, 7.5666656e+1
-0.127, 8.5566301e-9, -8.0456299e-9, 7.5999992e+1
-0.128, 8.5475236e-9, -8.0291738e-9, 7.6333328e+1
-0.129, 8.5341032e-9, -8.0303719e-9, 7.6666664e+1
-0.130, 8.6513694e-9, -8.0247808e-9, 7.7000000e+1
-0.131, 8.5484020e-9, -8.0157543e-9, 7.7333336e+1
-0.132, 8.5881036e-9, -8.0096028e-9, 7.7666672e+1
-0.133, 8.7250198e-9, -7.9793283e-9, 7.8000008e+1
-0.134, 8.5631804e-9, -7.9847595e-9, 7.8333344e+1
-0.135, 8.6325169e-9, -7.9935472e-9, 7.8666679e+1
-0.136, 8.7336467e-9, -7.9811660e-9, 7.9000015e+1
-0.137, 8.6810852e-9, -7.9706206e-9, 7.9333351e+1
-0.138, 8.7211847e-9, -7.9786089e-9, 7.9666687e+1
-0.139, 8.8166434e-9, -7.9385085e-9, 8.0000023e+1
-0.140, 8.8029832e-9, -7.9488141e-9, 8.0333359e+1
-0.141, 8.8404475e-9, -7.9448190e-9, 8.0666695e+1
-0.142, 8.8286249e-9, -7.9325178e-9, 8.1000031e+1
-0.143, 8.8930090e-9, -7.9353937e-9, 8.1333366e+1
-0.144, 8.9348671e-9, -7.9405860e-9, 8.1666702e+1
-0.145, 8.8977226e-9, -7.8997662e-9, 8.2000038e+1
-0.146, 8.9954177e-9, -7.8920976e-9, 8.2333374e+1
-0.147, 8.9506038e-9, -7.9039202e-9, 8.2666710e+1
-0.148, 8.9956567e-9, -7.8944948e-9, 8.3000046e+1
-0.149, 9.0168255e-9, -7.8959328e-9, 8.3333382e+1
-0.150, 8.9986125e-9, -7.8693319e-9, 8.3666718e+1
-0.151, 9.0222576e-9, -7.8652578e-9, 8.4000053e+1
-0.152, 9.0804111e-9, -7.8404945e-9, 8.4333389e+1
-0.153, 9.0245740e-9, -7.8357019e-9, 8.4666725e+1
-0.154, 9.0401509e-9, -7.8105389e-9, 8.5000061e+1
-0.155, 9.0986241e-9, -7.8121367e-9, 8.5333397e+1
-0.156, 9.1561390e-9, -7.7674036e-9, 8.5666733e+1
-0.157, 9.1555794e-9, -7.7901694e-9, 8.6000069e+1
-0.158, 9.1451149e-9, -7.8003941e-9, 8.6333405e+1
-0.159, 9.2968095e-9, -7.7864950e-9, 8.6666740e+1
-0.160, 9.3306785e-9, -7.7412023e-9, 8.7000076e+1
-0.161, 9.2813925e-9, -7.7431990e-9, 8.7333412e+1
-0.162, 9.4564925e-9, -7.7428792e-9, 8.7666748e+1
-0.163, 9.4675956e-9, -7.7286613e-9, 8.8000084e+1
-0.164, 9.4342854e-9, -7.7018214e-9, 8.8333420e+1
-0.165, 9.5039416e-9, -7.6747408e-9, 8.8666756e+1
-0.166, 9.5029833e-9, -7.6816109e-9, 8.9000092e+1
-0.167, 9.4993879e-9, -7.6600424e-9, 8.9333427e+1
-0.168, 9.5358139e-9, -7.6473414e-9, 8.9666763e+1
-0.169, 9.5413260e-9, -7.6471824e-9, 9.0000099e+1
-0.170, 9.5637729e-9, -7.6197830e-9, 9.0333435e+1
-0.171, 9.6360644e-9, -7.6724245e-9, 9.0666771e+1
-0.172, 9.6611474e-9, -7.6352000e-9, 9.1000107e+1
-0.173, 9.7998214e-9, -7.6064426e-9, 9.1333443e+1
-0.174, 9.7379136e-9, -7.6042852e-9, 9.1666779e+1
-0.175, 9.8888888e-9, -7.5992537e-9, 9.2000114e+1
-0.176, 9.9022293e-9, -7.6330435e-9, 9.2333450e+1
-0.177, 9.9503179e-9, -7.6095583e-9, 9.2666786e+1
-0.178, 9.9959303e-9, -7.6069213e-9, 9.3000122e+1
-0.179, 1.0002161e-8, -7.6132318e-9, 9.3333458e+1
-0.180, 1.0012705e-8, -7.5974960e-9, 9.3666794e+1
-0.181, 1.0146187e-8, -7.5880697e-9, 9.4000130e+1
-0.182, 1.0069660e-8, -7.5707351e-9, 9.4333466e+1
-0.183, 1.0154814e-8, -7.5839957e-9, 9.4666801e+1
-0.184, 1.0240926e-8, -7.5811997e-9, 9.5000137e+1
-0.185, 1.0314497e-8, -7.5586737e-9, 9.5333473e+1
-0.186, 1.0400449e-8, -7.5840756e-9, 9.5666809e+1
-0.187, 1.0404043e-8, -7.5654638e-9, 9.6000145e+1
-0.188, 1.0465072e-8, -7.5865527e-9, 9.6333481e+1
-0.189, 1.0484963e-8, -7.5730515e-9, 9.6666817e+1
-0.190, 1.0523226e-8, -7.5720141e-9, 9.7000153e+1
-0.191, 1.0595279e-8, -7.5836768e-9, 9.7333488e+1
-0.192, 1.0609657e-8, -7.5752888e-9, 9.7666824e+1
-0.193, 1.0631226e-8, -7.5775253e-9, 9.8000160e+1
-0.194, 1.0789551e-8, -7.5681790e-9, 9.8333496e+1
-0.195, 1.0799935e-8, -7.5669018e-9, 9.8666832e+1
-0.196, 1.0884849e-8, -7.5938207e-9, 9.9000168e+1
-0.197, 1.0961055e-8, -7.5671416e-9, 9.9333504e+1
-0.198, 1.0954745e-8, -7.5891879e-9, 9.9666840e+1
-0.199, 1.0980706e-8, -7.5863120e-9, 1.0000018e+2
-0.200, 1.1088945e-8, -7.5845552e-9, 1.0033351e+2
-0.201, 1.1058989e-8, -7.5909456e-9, 1.0066685e+2
-0.202, 1.1086149e-8, -7.6065225e-9, 1.0100018e+2
-0.203, 1.1301029e-8, -7.6055642e-9, 1.0133352e+2
-0.204, 1.1329068e-8, -7.6434281e-9, 1.0166685e+2
-0.205, 1.1202935e-8, -7.6346405e-9, 1.0200019e+2
-0.206, 1.1452964e-8, -7.6394340e-9, 1.0233353e+2
-0.207, 1.1491866e-8, -7.6820905e-9, 1.0266686e+2
-0.208, 1.1507443e-8, -7.6701880e-9, 1.0300020e+2
-0.209, 1.1576540e-8, -7.7178770e-9, 1.0333353e+2
-0.210, 1.1871782e-8, -7.7455153e-9, 1.0366687e+2
-0.211, 1.1845341e-8, -7.7661255e-9, 1.0400021e+2
-0.212, 1.1947269e-8, -7.7666042e-9, 1.0433354e+2
-0.213, 1.2046641e-8, -7.8339442e-9, 1.0466688e+2
-0.214, 1.2022118e-8, -7.8507991e-9, 1.0500021e+2
-0.215, 1.2165265e-8, -7.8518374e-9, 1.0533355e+2
-0.216, 1.2399077e-8, -7.9011251e-9, 1.0566689e+2
-0.217, 1.2432388e-8, -7.9278841e-9, 1.0600022e+2
-0.218, 1.2473047e-8, -7.9434610e-9, 1.0633356e+2
-0.219, 1.2548774e-8, -7.9398674e-9, 1.0666689e+2
-0.220, 1.2702386e-8, -7.9722984e-9, 1.0700023e+2
-0.221, 1.2853362e-8, -8.0030533e-9, 1.0733356e+2
-0.222, 1.2922380e-8, -8.0260580e-9, 1.0766690e+2
-0.223, 1.3075670e-8, -8.0291738e-9, 1.0800024e+2
-0.224, 1.3142691e-8, -8.0544966e-9, 1.0833357e+2
-0.225, 1.3268824e-8, -8.0979516e-9, 1.0866691e+2
-0.226, 1.3441049e-8, -8.1892555e-9, 1.0900024e+2
-0.227, 1.3476196e-8, -8.2537204e-9, 1.0933358e+2
-0.228, 1.3637796e-8, -8.3534122e-9, 1.0966692e+2
-0.229, 1.3871129e-8, -8.3871212e-9, 1.1000025e+2
-0.230, 1.3930000e-8, -8.4292191e-9, 1.1033359e+2
-0.231, 1.4050142e-8, -8.4683611e-9, 1.1066692e+2
-0.232, 1.4331883e-8, -8.5165297e-9, 1.1100026e+2
-0.233, 1.4405534e-8, -8.5574285e-9, 1.1133360e+2
-0.234, 1.4558028e-8, -8.6591179e-9, 1.1166693e+2
-0.235, 1.4745109e-8, -8.7043297e-9, 1.1200027e+2
-0.236, 1.4873718e-8, -8.8555456e-9, 1.1233360e+2
-0.237, 1.5005282e-8, -8.8950065e-9, 1.1266694e+2
-0.238, 1.5195559e-8, -8.9580325e-9, 1.1300027e+2
-0.239, 1.5410199e-8, -9.0336805e-9, 1.1333361e+2
-0.240, 1.5497191e-8, -9.1106864e-9, 1.1366695e+2
-0.241, 1.5659110e-8, -9.2572678e-9, 1.1400028e+2
-0.242, 1.5934781e-8, -9.3440189e-9, 1.1433362e+2
-0.243, 1.6099575e-8, -9.4542560e-9, 1.1466695e+2
-0.244, 1.6315255e-8, -9.4996286e-9, 1.1500029e+2
-0.245, 1.6456644e-8, -9.5712815e-9, 1.1533363e+2
-0.246, 1.6659623e-8, -9.7880788e-9, 1.1566696e+2
-0.247, 1.6831367e-8, -9.8710755e-9, 1.1600030e+2
-0.248, 1.6950072e-8, -9.9428092e-9, 1.1633363e+2
-0.249, 1.7294999e-8, -1.0045456e-8, 1.1666697e+2
-0.250, 1.7368329e-8, -1.0174385e-8, 1.1700031e+2
-0.251, 1.7495021e-8, -1.0347248e-8, 1.1733364e+2
-0.252, 1.7786027e-8, -1.0406040e-8, 1.1766698e+2
-0.253, 1.7878211e-8, -1.0505093e-8, 1.1800031e+2
-0.254, 1.8076237e-8, -1.0669808e-8, 1.1833365e+2
-0.255, 1.8321312e-8, -1.0802730e-8, 1.1866698e+2
-0.256, 1.8411418e-8, -1.0894833e-8, 1.1900032e+2
-0.257, 1.8666080e-8, -1.0961854e-8, 1.1933366e+2
-0.258, 1.8806352e-8, -1.1075604e-8, 1.1966699e+2
-0.259, 1.8919224e-8, -1.1249825e-8, 1.2000033e+2
-0.260, 1.8999744e-8, -1.1352234e-8, 1.2033366e+2
-0.261, 1.9309923e-8, -1.1416618e-8, 1.2066700e+2
-0.262, 1.9323103e-8, -1.1520304e-8, 1.2100034e+2
-0.263, 1.9535667e-8, -1.1683182e-8, 1.2133367e+2
-0.264, 1.9757177e-8, -1.1804521e-8, 1.2166701e+2
-0.265, 1.9789928e-8, -1.1889115e-8, 1.2200034e+2
-0.266, 1.9873804e-8, -1.1963484e-8, 1.2233368e+2
-0.267, 2.0166569e-8, -1.2080591e-8, 1.2266702e+2
-0.268, 2.0205393e-8, -1.2263759e-8, 1.2300035e+2
-0.269, 2.0309077e-8, -1.2361773e-8, 1.2333369e+2
-0.270, 2.0326652e-8, -1.2410340e-8, 1.2366702e+2
-0.271, 2.0550239e-8, -1.2468654e-8, 1.2400036e+2
-0.272, 2.0628923e-8, -1.2543983e-8, 1.2433369e+2
-0.273, 2.0765519e-8, -1.2696156e-8, 1.2466703e+2
-0.274, 2.0829344e-8, -1.2818134e-8, 1.2500037e+2
-0.275, 2.0845640e-8, -1.2877566e-8, 1.2533370e+2
-0.276, 2.0891731e-8, -1.2912714e-8, 1.2566704e+2
-0.277, 2.1171235e-8, -1.2954651e-8, 1.2600037e+2
-0.278, 2.1173712e-8, -1.3044756e-8, 1.2633371e+2
-0.279, 2.1234101e-8, -1.3165298e-8, 1.2666705e+2
-0.280, 2.1288422e-8, -1.3279368e-8, 1.2700038e+2
-0.281, 2.1294332e-8, -1.3319469e-8, 1.2733372e+2
-0.282, 2.1384039e-8, -1.3379620e-8, 1.2766705e+2
-0.283, 2.1417909e-8, -1.3400468e-8, 1.2800038e+2
-0.284, 2.1591571e-8, -1.3432661e-8, 1.2833371e+2
-0.285, 2.1562734e-8, -1.3512301e-8, 1.2866704e+2
-0.286, 2.1687667e-8, -1.3561829e-8, 1.2900037e+2
-0.287, 2.1750374e-8, -1.3670387e-8, 1.2933369e+2
-0.288, 2.1745262e-8, -1.3741881e-8, 1.2966702e+2
-0.289, 2.1765473e-8, -1.3775670e-8, 1.3000035e+2
-0.290, 2.1887930e-8, -1.3810100e-8, 1.3033368e+2
-0.291, 2.1796545e-8, -1.3838777e-8, 1.3066701e+2
-0.292, 2.1907901e-8, -1.3872807e-8, 1.3100034e+2
-0.293, 2.2100814e-8, -1.3909471e-8, 1.3133366e+2
-0.294, 2.2061112e-8, -1.3937271e-8, 1.3166699e+2
-0.295, 2.2150900e-8, -1.3969383e-8, 1.3200032e+2
-0.296, 2.2194355e-8, -1.4011480e-8, 1.3233365e+2
-0.297, 2.2181574e-8, -1.4090084e-8, 1.3266698e+2
-0.298, 2.2237010e-8, -1.4152151e-8, 1.3300031e+2
-0.299, 2.2267525e-8, -1.4191612e-8, 1.3333363e+2
-0.300, 2.2284061e-8, -1.4224443e-8, 1.3366696e+2
-0.301, 2.2338380e-8, -1.4261109e-8, 1.3400029e+2
-0.302, 2.2311381e-8, -1.4287309e-8, 1.3433362e+2
-0.303, 2.2495586e-8, -1.4321499e-8, 1.3466695e+2
-0.304, 2.2423055e-8, -1.4335558e-8, 1.3500027e+2
-0.305, 2.2516277e-8, -1.4371984e-8, 1.3533360e+2
-0.306, 2.2631065e-8, -1.4376856e-8, 1.3566693e+2
-0.307, 2.2604064e-8, -1.4393711e-8, 1.3600026e+2
-0.308, 2.2686264e-8, -1.4405455e-8, 1.3633359e+2
-0.309, 2.2734751e-8, -1.4426942e-8, 1.3666692e+2
-0.310, 2.2722769e-8, -1.4426303e-8, 1.3700024e+2
-0.311, 2.2734433e-8, -1.4466484e-8, 1.3733357e+2
-0.312, 2.2785155e-8, -1.4471596e-8, 1.3766690e+2
-0.313, 2.2771097e-8, -1.4514892e-8, 1.3800023e+2
-0.314, 2.2823020e-8, -1.4577279e-8, 1.3833356e+2
-0.315, 2.2891797e-8, -1.4622811e-8, 1.3866689e+2
-0.316, 2.2944119e-8, -1.4644059e-8, 1.3900021e+2
-0.317, 2.3038780e-8, -1.4675454e-8, 1.3933354e+2
-0.318, 2.3021125e-8, -1.4712118e-8, 1.3966687e+2
-0.319, 2.3155327e-8, -1.4734166e-8, 1.4000020e+2
-0.320, 2.3164592e-8, -1.4737042e-8, 1.4033353e+2
-0.321, 2.3144462e-8, -1.4765239e-8, 1.4066685e+2
-0.322, 2.3233930e-8, -1.4795994e-8, 1.4100018e+2
-0.323, 2.3196625e-8, -1.4792318e-8, 1.4133351e+2
-0.324, 2.3221787e-8, -1.4791520e-8, 1.4166684e+2
-0.325, 2.3284734e-8, -1.4832899e-8, 1.4200017e+2
-0.326, 2.3290164e-8, -1.4832660e-8, 1.4233350e+2
-0.327, 2.3304064e-8, -1.4839050e-8, 1.4266682e+2
-0.328, 2.3352714e-8, -1.4841126e-8, 1.4300015e+2
-0.329, 2.3335060e-8, -1.4872600e-8, 1.4333348e+2
-0.330, 2.3387301e-8, -1.4873798e-8, 1.4366681e+2
-0.331, 2.3513673e-8, -1.4879229e-8, 1.4400014e+2
-0.332, 2.3563119e-8, -1.4885460e-8, 1.4433347e+2
-0.333, 2.3636531e-8, -1.4912381e-8, 1.4466679e+2
-0.334, 2.3623430e-8, -1.4906869e-8, 1.4500012e+2
-0.335, 2.3700515e-8, -1.4939701e-8, 1.4533345e+2
-0.336, 2.3674074e-8, -1.4942577e-8, 1.4566678e+2
-0.337, 2.3702592e-8, -1.4945371e-8, 1.4600011e+2
-0.338, 2.3765219e-8, -1.4977404e-8, 1.4633344e+2
-0.339, 2.3715373e-8, -1.4981239e-8, 1.4666676e+2
-0.340, 2.3750760e-8, -1.5032123e-8, 1.4700009e+2
-0.341, 2.3824811e-8, -1.5012311e-8, 1.4733342e+2
-0.342, 2.3770092e-8, -1.5014230e-8, 1.4766675e+2
-0.343, 2.3827047e-8, -1.5072143e-8, 1.4800008e+2
-0.344, 2.3884562e-8, -1.5128300e-8, 1.4833340e+2
-0.345, 2.3864432e-8, -1.5147950e-8, 1.4866673e+2
-0.346, 2.4006381e-8, -1.5166803e-8, 1.4900006e+2
-0.347, 2.3966040e-8, -1.5161531e-8, 1.4933339e+2
-0.348, 2.4062777e-8, -1.5171436e-8, 1.4966672e+2
-0.349, 2.4014289e-8, -1.5164726e-8, 1.5000005e+2
-0.350, 2.4060540e-8, -1.5201470e-8, 1.5033337e+2
-0.351, 2.4175408e-8, -1.5221282e-8, 1.5066670e+2
-0.352, 2.4143215e-8, -1.5213214e-8, 1.5100003e+2
-0.353, 2.4115739e-8, -1.5208901e-8, 1.5133336e+2
-0.354, 2.4207282e-8, -1.5228231e-8, 1.5166669e+2
-0.355, 2.4188829e-8, -1.5240612e-8, 1.5200002e+2
-0.356, 2.4210157e-8, -1.5246044e-8, 1.5233334e+2
-0.357, 2.4252815e-8, -1.5262421e-8, 1.5266667e+2
-0.358, 2.4221579e-8, -1.5263858e-8, 1.5300000e+2
-0.359, 2.4261601e-8, -1.5265934e-8, 1.5333333e+2
-0.360, 2.4266313e-8, -1.5311468e-8, 1.5366666e+2
-0.361, 2.4305855e-8, -1.5293734e-8, 1.5399998e+2
-0.362, 2.4365207e-8, -1.5308352e-8, 1.5433331e+2
-0.363, 2.4416012e-8, -1.5304837e-8, 1.5466664e+2
-0.364, 2.4453316e-8, -1.5332954e-8, 1.5499997e+2
-0.365, 2.4522812e-8, -1.5355162e-8, 1.5533330e+2
-0.366, 2.4522093e-8, -1.5334553e-8, 1.5566663e+2
-0.367, 2.4593588e-8, -1.5331358e-8, 1.5599995e+2
-0.368, 2.4587836e-8, -1.5324327e-8, 1.5633328e+2
-0.369, 2.4596941e-8, -1.5339186e-8, 1.5666661e+2
-0.370, 2.4684972e-8, -1.5349730e-8, 1.5699994e+2
-0.371, 2.4651101e-8, -1.5353086e-8, 1.5733327e+2
-0.372, 2.4666200e-8, -1.5341742e-8, 1.5766660e+2
-0.373, 2.4727308e-8, -1.5374573e-8, 1.5799992e+2
-0.374, 2.4699110e-8, -1.5372976e-8, 1.5833325e+2
-0.375, 2.4736256e-8, -1.5362751e-8, 1.5866658e+2
-0.376, 2.4783466e-8, -1.5371699e-8, 1.5899991e+2
-0.377, 2.4763814e-8, -1.5379127e-8, 1.5933324e+2
-0.378, 2.4909838e-8, -1.5383840e-8, 1.5966656e+2
-0.379, 2.4825562e-8, -1.5394543e-8, 1.5999989e+2
-0.380, 2.4928291e-8, -1.5386236e-8, 1.6033322e+2
-0.381, 2.4968710e-8, -1.5415873e-8, 1.6066655e+2
-0.382, 2.4983008e-8, -1.5416273e-8, 1.6099988e+2
-0.383, 2.5134861e-8, -1.5411079e-8, 1.6133321e+2
-0.384, 2.5127992e-8, -1.5420584e-8, 1.6166653e+2
-0.385, 2.5105706e-8, -1.5436402e-8, 1.6199986e+2
-0.386, 2.5183430e-8, -1.5469073e-8, 1.6233319e+2
-0.387, 2.5174565e-8, -1.5439038e-8, 1.6266652e+2
-0.388, 2.5184789e-8, -1.5448704e-8, 1.6299985e+2
-0.389, 2.5218817e-8, -1.5484410e-8, 1.6333318e+2
-0.390, 2.5208434e-8, -1.5479138e-8, 1.6366650e+2
-0.391, 2.5271220e-8, -1.5515804e-8, 1.6399983e+2
-0.392, 2.5284482e-8, -1.5497111e-8, 1.6433316e+2
-0.393, 2.5359887e-8, -1.5564611e-8, 1.6466649e+2
-0.394, 2.5404782e-8, -1.5576354e-8, 1.6499982e+2
-0.395, 2.5367797e-8, -1.5587457e-8, 1.6533315e+2
-0.396, 2.5447918e-8, -1.5587378e-8, 1.6566647e+2
-0.397, 2.5515178e-8, -1.5610862e-8, 1.6599980e+2
-0.398, 2.5559991e-8, -1.5606469e-8, 1.6633313e+2
-0.399, 2.5622697e-8, -1.5642415e-8, 1.6666646e+2
-0.400, 2.5643626e-8, -1.5653040e-8, 1.6699979e+2
-0.401, 2.5653213e-8, -1.5715028e-8, 1.6733311e+2
-0.402, 2.5685246e-8, -1.5677642e-8, 1.6766644e+2
-0.403, 2.5695870e-8, -1.5719580e-8, 1.6799977e+2
-0.404, 2.5721270e-8, -1.5714308e-8, 1.6833310e+2
-0.405, 2.5793723e-8, -1.5721897e-8, 1.6866643e+2
-0.406, 2.5766724e-8, -1.5745142e-8, 1.6899976e+2
-0.407, 2.5826314e-8, -1.5742586e-8, 1.6933308e+2
-0.408, 2.5940466e-8, -1.5754170e-8, 1.6966641e+2
-0.409, 2.5974256e-8, -1.5780850e-8, 1.6999974e+2
-0.410, 2.6119480e-8, -1.5777653e-8, 1.7033307e+2
-0.411, 2.6069394e-8, -1.5764074e-8, 1.7066640e+2
-0.412, 2.6093996e-8, -1.5767268e-8, 1.7099973e+2
-0.413, 2.6126507e-8, -1.5775257e-8, 1.7133305e+2
-0.414, 2.6126829e-8, -1.5778614e-8, 1.7166638e+2
-0.415, 2.6180667e-8, -1.5770706e-8, 1.7199971e+2
-0.416, 2.6181466e-8, -1.5794111e-8, 1.7233304e+2
-0.417, 2.6208946e-8, -1.5825425e-8, 1.7266637e+2
-0.418, 2.6271335e-8, -1.5834848e-8, 1.7299969e+2
-0.419, 2.6311353e-8, -1.5845794e-8, 1.7333302e+2
-0.420, 2.6247367e-8, -1.5851144e-8, 1.7366635e+2
-0.421, 2.6472154e-8, -1.5868240e-8, 1.7399968e+2
-0.422, 2.6438926e-8, -1.5852823e-8, 1.7433301e+2
-0.423, 2.6411923e-8, -1.5851944e-8, 1.7466634e+2
-0.424, 2.6499395e-8, -1.5850187e-8, 1.7499966e+2
-0.425, 2.6520881e-8, -1.5875589e-8, 1.7533299e+2
-0.426, 2.6597727e-8, -1.5879023e-8, 1.7566632e+2
-0.427, 2.6604278e-8, -1.5885654e-8, 1.7599965e+2
-0.428, 2.6648852e-8, -1.5913052e-8, 1.7633298e+2
-0.429, 2.6651328e-8, -1.5882778e-8, 1.7666631e+2
-0.430, 2.6661075e-8, -1.5886531e-8, 1.7699963e+2
-0.431, 2.6681045e-8, -1.5903307e-8, 1.7733296e+2
-0.432, 2.6723541e-8, -1.5906583e-8, 1.7766629e+2
-0.433, 2.6711879e-8, -1.5899552e-8, 1.7799962e+2
-0.434, 2.6965740e-8, -1.5950038e-8, 1.7833295e+2
-0.435, 2.6865250e-8, -1.5940213e-8, 1.7866628e+2
-0.436, 2.6876432e-8, -1.5968650e-8, 1.7899960e+2
-0.437, 2.7059123e-8, -1.5961142e-8, 1.7933293e+2
-0.438, 2.7088518e-8, -1.5952196e-8, 1.7966626e+2
-0.439, 2.7107530e-8, -1.6010826e-8, 1.7999959e+2
-0.440, 2.7129898e-8, -1.6041023e-8, 1.8033292e+2
-0.441, 2.7108330e-8, -1.6032557e-8, 1.8066624e+2
-0.442, 2.7169758e-8, -1.6129691e-8, 1.8099957e+2
-0.443, 2.7168879e-8, -1.6100534e-8, 1.8133290e+2
-0.444, 2.7302361e-8, -1.6106684e-8, 1.8166623e+2
-0.445, 2.7243647e-8, -1.6127295e-8, 1.8199956e+2
-0.446, 2.7257068e-8, -1.6174345e-8, 1.8233289e+2
-0.447, 2.7408603e-8, -1.6163879e-8, 1.8266621e+2
-0.448, 2.7409321e-8, -1.6185048e-8, 1.8299954e+2
-0.449, 2.7508134e-8, -1.6204780e-8, 1.8333287e+2
-0.450, 2.7620208e-8, -1.6183691e-8, 1.8366620e+2
-0.451, 2.7624441e-8, -1.6191839e-8, 1.8399953e+2
-0.452, 2.7627957e-8, -1.6210690e-8, 1.8433286e+2
-0.453, 2.7685870e-8, -1.6207496e-8, 1.8466618e+2
-0.454, 2.7681637e-8, -1.6210372e-8, 1.8499951e+2
-0.455, 2.7848429e-8, -1.6253667e-8, 1.8533284e+2
-0.456, 2.7940771e-8, -1.6263572e-8, 1.8566617e+2
-0.457, 2.7919603e-8, -1.6263492e-8, 1.8599950e+2
-0.458, 2.8068740e-8, -1.6274514e-8, 1.8633282e+2
-0.459, 2.8113876e-8, -1.6316774e-8, 1.8666615e+2
-0.460, 2.8168031e-8, -1.6283861e-8, 1.8699948e+2
-0.461, 2.8193117e-8, -1.6289373e-8, 1.8733281e+2
-0.462, 2.8233776e-8, -1.6364941e-8, 1.8766614e+2
-0.463, 2.8306786e-8, -1.6343533e-8, 1.8799947e+2
-0.464, 2.8289852e-8, -1.6330192e-8, 1.8833279e+2
-0.465, 2.8342814e-8, -1.6335306e-8, 1.8866612e+2
-0.466, 2.8553702e-8, -1.6337861e-8, 1.8899945e+2
-0.467, 2.8572872e-8, -1.6350242e-8, 1.8933278e+2
-0.468, 2.8620002e-8, -1.6357353e-8, 1.8966611e+2
-0.469, 2.8783280e-8, -1.6371571e-8, 1.8999944e+2
-0.470, 2.8707630e-8, -1.6368617e-8, 1.9033276e+2
-0.471, 2.8887046e-8, -1.6376763e-8, 1.9066609e+2
-0.472, 2.8984898e-8, -1.6385789e-8, 1.9099942e+2
-0.473, 2.8976190e-8, -1.6390583e-8, 1.9133275e+2
-0.474, 2.9083711e-8, -1.6417903e-8, 1.9166608e+2
-0.475, 2.9106397e-8, -1.6435557e-8, 1.9199940e+2
-0.476, 2.9123333e-8, -1.6421817e-8, 1.9233273e+2
-0.477, 2.9187078e-8, -1.6468308e-8, 1.9266606e+2
-0.478, 2.9211440e-8, -1.6462636e-8, 1.9299939e+2
-0.479, 2.9416496e-8, -1.6517115e-8, 1.9333272e+2
-0.480, 2.9495499e-8, -1.6579182e-8, 1.9366605e+2
-0.481, 2.9512435e-8, -1.6607142e-8, 1.9399937e+2
-0.482, 2.9600063e-8, -1.6591963e-8, 1.9433270e+2
-0.483, 2.9595832e-8, -1.6635180e-8, 1.9466603e+2
-0.484, 2.9657739e-8, -1.6644446e-8, 1.9499936e+2
-0.485, 2.9852888e-8, -1.6694772e-8, 1.9533269e+2
-0.486, 2.9848096e-8, -1.6685105e-8, 1.9566602e+2
-0.487, 3.0037654e-8, -1.6714742e-8, 1.9599934e+2
-0.488, 3.0091414e-8, -1.6742140e-8, 1.9633267e+2
-0.489, 3.0150130e-8, -1.6751327e-8, 1.9666600e+2
-0.490, 3.0172970e-8, -1.6737827e-8, 1.9699933e+2
-0.491, 3.0248859e-8, -1.6827373e-8, 1.9733266e+2
-0.492, 3.0346712e-8, -1.6804767e-8, 1.9766599e+2
-0.493, 3.0460704e-8, -1.6869871e-8, 1.9799931e+2
-0.494, 3.0561356e-8, -1.6824577e-8, 1.9833264e+2
-0.495, 3.0587877e-8, -1.6863400e-8, 1.9866597e+2
-0.496, 3.0746360e-8, -1.6860206e-8, 1.9899930e+2
-0.497, 3.0770483e-8, -1.6874584e-8, 1.9933263e+2
-0.498, 3.0999264e-8, -1.6926426e-8, 1.9966595e+2
-0.499, 3.1011485e-8, -1.6944000e-8, 1.9999928e+2
