Jan. 28, 2006   00:08:12
Cyclic Voltammetry
File: z:\users\scottsaunders\git\labwork\ida\01_17_19_psoralen_nonequil_2\data\control\1\75um_control_transfer_1_gc_6.txt
Data Source:  Experiment
Instrument Model:  CHI760E
Header: 
Note: 

Init E (V) = 0
High E (V) = 0
Low E (V) = -0.4
Init P/N = N
Scan Rate (V/s) = 0.003
Segment = 1
Sample Interval (V) = 0.001
Quiet Time (sec) = 2
Sensitivity (A/V) = 1e-7
2nd E (V) = 0
Sens 2 (A/V) = 1e-7

Potential/V, i1/A, i2/A, Time/s

0.000, -4.9501374e-8, -6.9677363e-8, 3.3333334e-1
-0.001, -4.5080746e-8, -6.5070367e-8, 6.6666669e-1
-0.002, -4.1592013e-8, -6.1252607e-8, 1.0000000e+0
-0.003, -3.8618754e-8, -5.7893200e-8, 1.3333334e+0
-0.004, -3.6095066e-8, -5.5004293e-8, 1.6666667e+0
-0.005, -3.3739131e-8, -5.2391940e-8, 2.0000000e+0
-0.006, -3.1767662e-8, -5.0130421e-8, 2.3333333e+0
-0.007, -3.0010192e-8, -4.8043205e-8, 2.6666665e+0
-0.008, -2.8421915e-8, -4.6244999e-8, 2.9999998e+0
-0.009, -2.6998670e-8, -4.4520203e-8, 3.3333330e+0
-0.010, -2.5715936e-8, -4.3016598e-8, 3.6666663e+0
-0.011, -2.4510369e-8, -4.1610527e-8, 3.9999995e+0
-0.012, -2.3420309e-8, -4.0352237e-8, 4.3333330e+0
-0.013, -2.2437531e-8, -3.9155537e-8, 4.6666665e+0
-0.014, -2.1508912e-8, -3.8119396e-8, 5.0000000e+0
-0.015, -2.0621910e-8, -3.7055699e-8, 5.3333335e+0
-0.016, -1.9799533e-8, -3.6136829e-8, 5.6666670e+0
-0.017, -1.9061270e-8, -3.5238724e-8, 6.0000005e+0
-0.018, -1.8431885e-8, -3.4427210e-8, 6.3333340e+0
-0.019, -1.7784529e-8, -3.3651641e-8, 6.6666675e+0
-0.020, -1.7157621e-8, -3.2940058e-8, 7.0000010e+0
-0.021, -1.6556434e-8, -3.2269135e-8, 7.3333344e+0
-0.022, -1.6044634e-8, -3.1612672e-8, 7.6666679e+0
-0.023, -1.5524050e-8, -3.0979134e-8, 8.0000010e+0
-0.024, -1.5042046e-8, -3.0470211e-8, 8.3333340e+0
-0.025, -1.4557247e-8, -2.9917754e-8, 8.6666670e+0
-0.026, -1.4094654e-8, -2.9419533e-8, 9.0000000e+0
-0.027, -1.3651073e-8, -2.8911408e-8, 9.3333330e+0
-0.028, -1.3241123e-8, -2.8378681e-8, 9.6666660e+0
-0.029, -1.2909456e-8, -2.7865282e-8, 9.9999990e+0
-0.030, -1.2553106e-8, -2.7434565e-8, 1.0333332e+1
-0.031, -1.2152981e-8, -2.6990584e-8, 1.0666665e+1
-0.032, -1.1787844e-8, -2.6589500e-8, 1.0999998e+1
-0.033, -1.1534301e-8, -2.6210863e-8, 1.1333331e+1
-0.034, -1.1170601e-8, -2.5918737e-8, 1.1666664e+1
-0.035, -1.0885345e-8, -2.5528836e-8, 1.1999997e+1
-0.036, -1.0597454e-8, -2.5171847e-8, 1.2333330e+1
-0.037, -1.0252766e-8, -2.4903207e-8, 1.2666663e+1
-0.038, -1.0066563e-8, -2.4580567e-8, 1.2999996e+1
-0.039, -9.7245909e-9, -2.4255609e-8, 1.3333329e+1
-0.040, -9.5532453e-9, -2.4047200e-8, 1.3666662e+1
-0.041, -9.2598427e-9, -2.3699238e-8, 1.3999995e+1
-0.042, -9.1297956e-9, -2.3508402e-8, 1.4333328e+1
-0.043, -8.7875049e-9, -2.3166429e-8, 1.4666661e+1
-0.044, -8.6327745e-9, -2.3012177e-8, 1.4999994e+1
-0.045, -8.3661309e-9, -2.2689379e-8, 1.5333327e+1
-0.046, -8.1931075e-9, -2.2563405e-8, 1.5666660e+1
-0.047, -7.9832603e-9, -2.2234534e-8, 1.5999993e+1
-0.048, -7.7499269e-9, -2.2097218e-8, 1.6333326e+1
-0.049, -7.6305842e-9, -2.1821629e-8, 1.6666660e+1
-0.050, -7.3464470e-9, -2.1644212e-8, 1.6999994e+1
-0.051, -7.2473942e-9, -2.1450100e-8, 1.7333328e+1
-0.052, -7.1153505e-9, -2.1225555e-8, 1.7666662e+1
-0.053, -6.8393602e-9, -2.1088558e-8, 1.7999996e+1
-0.054, -6.7235328e-9, -2.0855625e-8, 1.8333330e+1
-0.055, -6.6269563e-9, -2.0673737e-8, 1.8666664e+1
-0.056, -6.3976175e-9, -2.0573165e-8, 1.8999998e+1
-0.057, -6.2641359e-9, -2.0307798e-8, 1.9333332e+1
-0.058, -6.1441541e-9, -2.0193090e-8, 1.9666666e+1
-0.059, -5.9541967e-9, -2.0062243e-8, 2.0000000e+1
-0.060, -5.7894813e-9, -1.9841933e-8, 2.0333334e+1
-0.061, -5.7051266e-9, -1.9688320e-8, 2.0666668e+1
-0.062, -5.6063936e-9, -1.9613472e-8, 2.1000002e+1
-0.063, -5.3570846e-9, -1.9401867e-8, 2.1333336e+1
-0.064, -5.2988511e-9, -1.9261195e-8, 2.1666670e+1
-0.065, -5.2199280e-9, -1.9154474e-8, 2.2000004e+1
-0.066, -5.0282933e-9, -1.9049830e-8, 2.2333338e+1
-0.067, -4.8788356e-9, -1.8847411e-8, 2.2666672e+1
-0.068, -4.7970370e-9, -1.8737653e-8, 2.3000006e+1
-0.069, -4.7149191e-9, -1.8656415e-8, 2.3333340e+1
-0.070, -4.6481383e-9, -1.8526768e-8, 2.3666674e+1
-0.071, -4.4598583e-9, -1.8331857e-8, 2.4000008e+1
-0.072, -4.3367612e-9, -1.8257808e-8, 2.4333342e+1
-0.073, -4.2840393e-9, -1.8164744e-8, 2.4666676e+1
-0.074, -4.1993657e-9, -1.8065293e-8, 2.5000010e+1
-0.075, -4.0730734e-9, -1.7884762e-8, 2.5333344e+1
-0.076, -3.9018082e-9, -1.7786748e-8, 2.5666677e+1
-0.077, -3.8245629e-9, -1.7699357e-8, 2.6000011e+1
-0.078, -3.7540278e-9, -1.7647036e-8, 2.6333345e+1
-0.079, -3.6981906e-9, -1.7505165e-8, 2.6666679e+1
-0.080, -3.6079251e-9, -1.7367370e-8, 2.7000013e+1
-0.081, -3.4463252e-9, -1.7273750e-8, 2.7333347e+1
-0.082, -3.3631686e-9, -1.7222465e-8, 2.7666681e+1
-0.083, -3.3325744e-9, -1.7148256e-8, 2.8000015e+1
-0.084, -3.2706664e-9, -1.7049603e-8, 2.8333349e+1
-0.085, -3.1751284e-9, -1.6919476e-8, 2.8666683e+1
-0.086, -3.0692058e-9, -1.6819547e-8, 2.9000017e+1
-0.087, -2.9475469e-9, -1.6752525e-8, 2.9333351e+1
-0.088, -2.8762925e-9, -1.6709869e-8, 2.9666685e+1
-0.089, -2.8163818e-9, -1.6634301e-8, 3.0000019e+1
-0.090, -2.7679736e-9, -1.6497303e-8, 3.0333353e+1
-0.091, -2.7350626e-9, -1.6390663e-8, 3.0666687e+1
-0.092, -2.6653262e-9, -1.6330512e-8, 3.1000021e+1
-0.093, -2.5464630e-9, -1.6270841e-8, 3.1333355e+1
-0.094, -2.4304756e-9, -1.6224270e-8, 3.1666689e+1
-0.095, -2.3427658e-9, -1.6170910e-8, 3.2000023e+1
-0.096, -2.2918816e-9, -1.6073933e-8, 3.2333355e+1
-0.097, -2.2596096e-9, -1.5962019e-8, 3.2666687e+1
-0.098, -2.2090447e-9, -1.5875269e-8, 3.3000019e+1
-0.099, -2.1252493e-9, -1.5807290e-8, 3.3333351e+1
-0.100, -2.0189272e-9, -1.5762238e-8, 3.3666683e+1
-0.101, -1.9106083e-9, -1.5729725e-8, 3.4000015e+1
-0.102, -1.8808126e-9, -1.5678761e-8, 3.4333347e+1
-0.103, -1.8276118e-9, -1.5585778e-8, 3.4666679e+1
-0.104, -1.7763280e-9, -1.5482494e-8, 3.5000011e+1
-0.105, -1.7414199e-9, -1.5407485e-8, 3.5333344e+1
-0.106, -1.6847842e-9, -1.5351487e-8, 3.5666676e+1
-0.107, -1.5806988e-9, -1.5302041e-8, 3.6000008e+1
-0.108, -1.4845217e-9, -1.5266096e-8, 3.6333340e+1
-0.109, -1.4164629e-9, -1.5231826e-8, 3.6666672e+1
-0.110, -1.3813152e-9, -1.5185096e-8, 3.7000004e+1
-0.111, -1.3359427e-9, -1.5128300e-8, 3.7333336e+1
-0.112, -1.3080642e-9, -1.5050336e-8, 3.7666668e+1
-0.113, -1.2709194e-9, -1.4960868e-8, 3.8000000e+1
-0.114, -1.2185173e-9, -1.4888497e-8, 3.8333332e+1
-0.115, -1.1719465e-9, -1.4834416e-8, 3.8666664e+1
-0.116, -1.0819203e-9, -1.4792958e-8, 3.8999996e+1
-0.117, -9.8893860e-10, -1.4768834e-8, 3.9333328e+1
-0.118, -9.5259267e-10, -1.4746946e-8, 3.9666660e+1
-0.119, -9.1025559e-10, -1.4702133e-8, 3.9999992e+1
-0.120, -8.8421431e-10, -1.4628164e-8, 4.0333324e+1
-0.121, -8.5705465e-10, -1.4537498e-8, 4.0666656e+1
-0.122, -8.1487739e-10, -1.4460573e-8, 4.0999989e+1
-0.123, -7.9362894e-10, -1.4413042e-8, 4.1333321e+1
-0.124, -7.5249018e-10, -1.4380690e-8, 4.1666653e+1
-0.125, -7.0200523e-10, -1.4348259e-8, 4.1999985e+1
-0.126, -6.3929845e-10, -1.4312233e-8, 4.2333317e+1
-0.127, -5.4080485e-10, -1.4276447e-8, 4.2666649e+1
-0.128, -4.8624599e-10, -1.4245293e-8, 4.2999981e+1
-0.129, -4.5501242e-10, -1.4209345e-8, 4.3333313e+1
-0.130, -4.0788245e-10, -1.4157263e-8, 4.3666645e+1
-0.131, -3.7481163e-10, -1.4096074e-8, 4.3999977e+1
-0.132, -3.4685321e-10, -1.4030253e-8, 4.4333309e+1
-0.133, -3.1426164e-10, -1.3961475e-8, 4.4666641e+1
-0.134, -3.0028247e-10, -1.3910909e-8, 4.4999973e+1
-0.135, -2.7703700e-10, -1.3876480e-8, 4.5333305e+1
-0.136, -2.3477983e-10, -1.3839336e-8, 4.5666637e+1
-0.137, -1.8940728e-10, -1.3814573e-8, 4.5999969e+1
-0.138, -9.8582309e-11, -1.3791487e-8, 4.6333302e+1
-0.139, -1.7902265e-11, -1.3773674e-8, 4.6666634e+1
-0.140, 3.2263154e-11, -1.3752746e-8, 4.6999966e+1
-0.141, 7.0925675e-11, -1.3716158e-8, 4.7333298e+1
-0.142, 9.2813132e-11, -1.3669269e-8, 4.7666630e+1
-0.143, 1.3746675e-10, -1.3615029e-8, 4.7999962e+1
-0.144, 1.5855539e-10, -1.3556797e-8, 4.8333294e+1
-0.145, 1.7421212e-10, -1.3502877e-8, 4.8666626e+1
-0.146, 2.0552557e-10, -1.3457504e-8, 4.8999958e+1
-0.147, 2.3388341e-10, -1.3424592e-8, 4.9333290e+1
-0.148, 2.9075883e-10, -1.3395356e-8, 4.9666622e+1
-0.149, 3.9979672e-10, -1.3370434e-8, 4.9999954e+1
-0.150, 4.4636750e-10, -1.3347587e-8, 5.0333286e+1
-0.151, 5.0827542e-10, -1.3322744e-8, 5.0666618e+1
-0.152, 5.6618937e-10, -1.3306208e-8, 5.0999950e+1
-0.153, 5.9023358e-10, -1.3289513e-8, 5.1333282e+1
-0.154, 6.1994948e-10, -1.3272499e-8, 5.1666615e+1
-0.155, 6.4527178e-10, -1.3255245e-8, 5.1999947e+1
-0.156, 6.7618583e-10, -1.3230321e-8, 5.2333279e+1
-0.157, 6.9344014e-10, -1.3195972e-8, 5.2666611e+1
-0.158, 7.2387490e-10, -1.3173126e-8, 5.2999943e+1
-0.159, 7.6788947e-10, -1.3130230e-8, 5.3333275e+1
-0.160, 8.4649260e-10, -1.3092287e-8, 5.3666607e+1
-0.161, 9.1926450e-10, -1.3052506e-8, 5.3999939e+1
-0.162, 1.0019415e-9, -1.3011207e-8, 5.4333271e+1
-0.163, 1.0366898e-9, -1.2981811e-8, 5.4666603e+1
-0.164, 1.0609738e-9, -1.2951696e-8, 5.4999935e+1
-0.165, 1.1096214e-9, -1.2925733e-8, 5.5333267e+1
-0.166, 1.1398166e-9, -1.2901052e-8, 5.5666599e+1
-0.167, 1.1707306e-9, -1.2883717e-8, 5.5999931e+1
-0.168, 1.2223339e-9, -1.2864545e-8, 5.6333263e+1
-0.169, 1.2582804e-9, -1.2849767e-8, 5.6666595e+1
-0.170, 1.3574130e-9, -1.2839623e-8, 5.6999928e+1
-0.171, 1.4134897e-9, -1.2825243e-8, 5.7333260e+1
-0.172, 1.4990424e-9, -1.2800001e-8, 5.7666592e+1
-0.173, 1.6152697e-9, -1.2809108e-8, 5.7999924e+1
-0.174, 1.5881900e-9, -1.2802558e-8, 5.8333256e+1
-0.175, 1.6294885e-9, -1.2798244e-8, 5.8666588e+1
-0.176, 1.6543316e-9, -1.2788658e-8, 5.8999920e+1
-0.177, 1.6839676e-9, -1.2783866e-8, 5.9333252e+1
-0.178, 1.7614523e-9, -1.2773241e-8, 5.9666584e+1
-0.179, 1.8557123e-9, -1.2711252e-8, 5.9999916e+1
-0.180, 2.0372024e-9, -1.2763175e-8, 6.0333248e+1
-0.181, 2.0311315e-9, -1.2787139e-8, 6.0666580e+1
-0.182, 2.0657998e-9, -1.2759501e-8, 6.0999912e+1
-0.183, 2.1280273e-9, -1.2748957e-8, 6.1333244e+1
-0.184, 2.1743585e-9, -1.2738812e-8, 6.1666576e+1
-0.185, 2.2541597e-9, -1.2738893e-8, 6.1999908e+1
-0.186, 2.4129636e-9, -1.2724513e-8, 6.2333241e+1
-0.187, 2.5307885e-9, -1.2738572e-8, 6.2666573e+1
-0.188, 2.5935754e-9, -1.2730505e-8, 6.2999905e+1
-0.189, 2.6472553e-9, -1.2735537e-8, 6.3333237e+1
-0.190, 2.7270568e-9, -1.2739451e-8, 6.3666569e+1
-0.191, 2.8917719e-9, -1.2745922e-8, 6.3999901e+1
-0.192, 3.0007299e-9, -1.2756625e-8, 6.4333237e+1
-0.193, 3.0512148e-9, -1.2763415e-8, 6.4666573e+1
-0.194, 3.1410814e-9, -1.2777075e-8, 6.4999908e+1
-0.195, 3.2665746e-9, -1.2782029e-8, 6.5333244e+1
-0.196, 3.4635619e-9, -1.2795368e-8, 6.5666580e+1
-0.197, 3.5642918e-9, -1.2802078e-8, 6.5999916e+1
-0.198, 3.6288363e-9, -1.2815018e-8, 6.6333252e+1
-0.199, 3.8105661e-9, -1.2827240e-8, 6.6666588e+1
-0.200, 3.9980472e-9, -1.2846971e-8, 6.6999924e+1
-0.201, 4.0967802e-9, -1.2875648e-8, 6.7333260e+1
-0.202, 4.2623740e-9, -1.2904007e-8, 6.7666595e+1
-0.203, 4.4872399e-9, -1.2943628e-8, 6.7999931e+1
-0.204, 4.6082600e-9, -1.3001062e-8, 6.8333267e+1
-0.205, 4.7322355e-9, -1.3069122e-8, 6.8666603e+1
-0.206, 5.0127786e-9, -1.3189022e-8, 6.8999939e+1
-0.207, 5.1533697e-9, -1.3237671e-8, 6.9333275e+1
-0.208, 5.4535634e-9, -1.3266188e-8, 6.9666611e+1
-0.209, 5.5975091e-9, -1.3318751e-8, 6.9999947e+1
-0.210, 5.9134395e-9, -1.3348945e-8, 7.0333282e+1
-0.211, 6.0819092e-9, -1.3462536e-8, 7.0666618e+1
-0.212, 6.4740457e-9, -1.3659204e-8, 7.0999954e+1
-0.213, 6.6121610e-9, -1.3749549e-8, 7.1333290e+1
-0.214, 6.9391146e-9, -1.3799634e-8, 7.1666626e+1
-0.215, 7.1965718e-9, -1.3890460e-8, 7.1999962e+1
-0.216, 7.4846236e-9, -1.4043432e-8, 7.2333298e+1
-0.217, 7.8861069e-9, -1.4202236e-8, 7.2666634e+1
-0.218, 8.2070697e-9, -1.4315987e-8, 7.2999969e+1
-0.219, 8.5559906e-9, -1.4422070e-8, 7.3333305e+1
-0.220, 8.9560359e-9, -1.4665787e-8, 7.3666641e+1
-0.221, 9.4013739e-9, -1.4784810e-8, 7.3999977e+1
-0.222, 9.7986232e-9, -1.4977005e-8, 7.4333313e+1
-0.223, 1.0275515e-8, -1.5209219e-8, 7.4666649e+1
-0.224, 1.0710467e-8, -1.5348132e-8, 7.4999985e+1
-0.225, 1.1101646e-8, -1.5629555e-8, 7.5333321e+1
-0.226, 1.1659138e-8, -1.5800021e-8, 7.5666656e+1
-0.227, 1.2164786e-8, -1.6110439e-8, 7.5999992e+1
-0.228, 1.2738094e-8, -1.6309743e-8, 7.6333328e+1
-0.229, 1.3317790e-8, -1.6640371e-8, 7.6666664e+1
-0.230, 1.3857629e-8, -1.6863160e-8, 7.7000000e+1
-0.231, 1.4426942e-8, -1.7206650e-8, 7.7333336e+1
-0.232, 1.5120392e-8, -1.7521621e-8, 7.7666672e+1
-0.233, 1.5761039e-8, -1.7812948e-8, 7.8000008e+1
-0.234, 1.6387627e-8, -1.8202529e-8, 7.8333344e+1
-0.235, 1.7149455e-8, -1.8608407e-8, 7.8666679e+1
-0.236, 1.7808075e-8, -1.8961801e-8, 7.9000015e+1
-0.237, 1.8571420e-8, -1.9314635e-8, 7.9333351e+1
-0.238, 1.9285000e-8, -1.9724824e-8, 7.9666687e+1
-0.239, 2.0130862e-8, -2.0187498e-8, 8.0000023e+1
-0.240, 2.0866169e-8, -2.0649132e-8, 8.0333359e+1
-0.241, 2.1696614e-8, -2.1116676e-8, 8.0666695e+1
-0.242, 2.2600871e-8, -2.1564331e-8, 8.1000031e+1
-0.243, 2.3342247e-8, -2.2128212e-8, 8.1333366e+1
-0.244, 2.4163507e-8, -2.2600071e-8, 8.1666702e+1
-0.245, 2.5097078e-8, -2.3087905e-8, 8.2000038e+1
-0.246, 2.5960993e-8, -2.3601062e-8, 8.2333374e+1
-0.247, 2.6851350e-8, -2.4135149e-8, 8.2666710e+1
-0.248, 2.7745861e-8, -2.4668676e-8, 8.3000046e+1
-0.249, 2.8799573e-8, -2.5244541e-8, 8.3333382e+1
-0.250, 2.9620752e-8, -2.5855869e-8, 8.3666718e+1
-0.251, 3.0569584e-8, -2.6452584e-8, 8.4000053e+1
-0.252, 3.1474876e-8, -2.6997135e-8, 8.4333389e+1
-0.253, 3.2366430e-8, -2.7569005e-8, 8.4666725e+1
-0.254, 3.3254391e-8, -2.8241924e-8, 8.5000061e+1
-0.255, 3.4194592e-8, -2.8942480e-8, 8.5333397e+1
-0.256, 3.5019845e-8, -2.9509717e-8, 8.5666733e+1
-0.257, 3.5899980e-8, -3.0128000e-8, 8.6000069e+1
-0.258, 3.6825000e-8, -3.0772242e-8, 8.6333405e+1
-0.259, 3.7672383e-8, -3.1355615e-8, 8.6666740e+1
-0.260, 3.8452821e-8, -3.1925328e-8, 8.7000076e+1
-0.261, 3.9307473e-8, -3.2488170e-8, 8.7333412e+1
-0.262, 4.0124416e-8, -3.3098225e-8, 8.7666748e+1
-0.263, 4.0882732e-8, -3.3718742e-8, 8.8000084e+1
-0.264, 4.1703348e-8, -3.4317850e-8, 8.8333420e+1
-0.265, 4.2420925e-8, -3.4851137e-8, 8.8666756e+1
-0.266, 4.3189701e-8, -3.5392333e-8, 8.9000092e+1
-0.267, 4.3884668e-8, -3.5944392e-8, 8.9333427e+1
-0.268, 4.4619576e-8, -3.6489741e-8, 8.9666763e+1
-0.269, 4.5245365e-8, -3.7046913e-8, 9.0000099e+1
-0.270, 4.5875787e-8, -3.7577326e-8, 9.0333435e+1
-0.271, 4.6592479e-8, -3.8126906e-8, 9.0666771e+1
-0.272, 4.7165710e-8, -3.8598607e-8, 9.1000107e+1
-0.273, 4.7719844e-8, -3.9077015e-8, 9.1333443e+1
-0.274, 4.8305935e-8, -3.9552390e-8, 9.1666779e+1
-0.275, 4.8865342e-8, -4.0014822e-8, 9.2000114e+1
-0.276, 4.9407419e-8, -4.0435957e-8, 9.2333450e+1
-0.277, 4.9948131e-8, -4.0862361e-8, 9.2666786e+1
-0.278, 5.0401141e-8, -4.1288047e-8, 9.3000122e+1
-0.279, 5.0862056e-8, -4.1724437e-8, 9.3333458e+1
-0.280, 5.1336229e-8, -4.2178325e-8, 9.3666794e+1
-0.281, 5.1746341e-8, -4.2529084e-8, 9.4000130e+1
-0.282, 5.2167231e-8, -4.2872330e-8, 9.4333466e+1
-0.283, 5.2592682e-8, -4.3237389e-8, 9.4666801e+1
-0.284, 5.3024042e-8, -4.3641670e-8, 9.5000137e+1
-0.285, 5.3431833e-8, -4.4004171e-8, 9.5333473e+1
-0.286, 5.3709339e-8, -4.4269694e-8, 9.5666809e+1
-0.287, 5.4078150e-8, -4.4633953e-8, 9.6000145e+1
-0.288, 5.4418685e-8, -4.4933270e-8, 9.6333481e+1
-0.289, 5.4657530e-8, -4.5194799e-8, 9.6666817e+1
-0.290, 5.5036324e-8, -4.5550909e-8, 9.7000153e+1
-0.291, 5.5351379e-8, -4.5770346e-8, 9.7333488e+1
-0.292, 5.5566179e-8, -4.6100016e-8, 9.7666824e+1
-0.293, 5.5927082e-8, -4.6312021e-8, 9.8000160e+1
-0.294, 5.6118079e-8, -4.6590962e-8, 9.8333496e+1
-0.295, 5.6441117e-8, -4.6787154e-8, 9.8666832e+1
-0.296, 5.6637948e-8, -4.7071367e-8, 9.9000168e+1
-0.297, 5.6937822e-8, -4.7243436e-8, 9.9333504e+1
-0.298, 5.7092233e-8, -4.7527731e-8, 9.9666840e+1
-0.299, 5.7393862e-8, -4.7679269e-8, 1.0000018e+2
-0.300, 5.7554825e-8, -4.7933849e-8, 1.0033351e+2
-0.301, 5.7743343e-8, -4.8096005e-8, 1.0066685e+2
-0.302, 5.7988579e-8, -4.8282768e-8, 1.0100018e+2
-0.303, 5.8204979e-8, -4.8524647e-8, 1.0133352e+2
-0.304, 5.8387425e-8, -4.8641756e-8, 1.0166685e+2
-0.305, 5.8518989e-8, -4.8847607e-8, 1.0200019e+2
-0.306, 5.8772450e-8, -4.9037968e-8, 1.0233353e+2
-0.307, 5.8930858e-8, -4.9144209e-8, 1.0266686e+2
-0.308, 5.9062820e-8, -4.9341594e-8, 1.0300020e+2
-0.309, 5.9322758e-8, -4.9515894e-8, 1.0333353e+2
-0.310, 5.9426124e-8, -4.9615107e-8, 1.0366687e+2
-0.311, 5.9532685e-8, -4.9758256e-8, 1.0400021e+2
-0.312, 5.9782792e-8, -4.9967703e-8, 1.0433354e+2
-0.313, 5.9874417e-8, -5.0052375e-8, 1.0466688e+2
-0.314, 5.9970198e-8, -5.0156540e-8, 1.0500021e+2
-0.315, 6.0108626e-8, -5.0320459e-8, 1.0533355e+2
-0.316, 6.0313127e-8, -5.0471591e-8, 1.0566689e+2
-0.317, 6.0400033e-8, -5.0543811e-8, 1.0600022e+2
-0.318, 6.0483671e-8, -5.0636785e-8, 1.0633356e+2
-0.319, 6.0710690e-8, -5.0773306e-8, 1.0666689e+2
-0.320, 6.0822366e-8, -5.0920846e-8, 1.0700023e+2
-0.321, 6.0904888e-8, -5.1008399e-8, 1.0733356e+2
-0.322, 6.1000506e-8, -5.1069989e-8, 1.0766690e+2
-0.323, 6.1180636e-8, -5.1166403e-8, 1.0800024e+2
-0.324, 6.1328649e-8, -5.1305872e-8, 1.0833357e+2
-0.325, 6.1423627e-8, -5.1431126e-8, 1.0866691e+2
-0.326, 6.1486340e-8, -5.1501186e-8, 1.0900024e+2
-0.327, 6.1660323e-8, -5.1562374e-8, 1.0933358e+2
-0.328, 6.1781101e-8, -5.1642974e-8, 1.0966692e+2
-0.329, 6.1847480e-8, -5.1748497e-8, 1.1000025e+2
-0.330, 6.1929683e-8, -5.1887490e-8, 1.1033359e+2
-0.331, 6.2013470e-8, -5.1967131e-8, 1.1066692e+2
-0.332, 6.2190168e-8, -5.2013302e-8, 1.1100026e+2
-0.333, 6.2303840e-8, -5.2072174e-8, 1.1133360e+2
-0.334, 6.2376536e-8, -5.2142788e-8, 1.1166693e+2
-0.335, 6.2431255e-8, -5.2209490e-8, 1.1200027e+2
-0.336, 6.2796794e-8, -5.2337302e-8, 1.1233360e+2
-0.337, 6.2752378e-8, -5.2442264e-8, 1.1266694e+2
-0.338, 6.2809733e-8, -5.2489234e-8, 1.1300027e+2
-0.339, 6.2865489e-8, -5.2536446e-8, 1.1333361e+2
-0.340, 6.2921004e-8, -5.2594281e-8, 1.1366695e+2
-0.341, 6.3023172e-8, -5.2675201e-8, 1.1400028e+2
-0.342, 6.3197078e-8, -5.2775849e-8, 1.1433362e+2
-0.343, 6.3282151e-8, -5.2869069e-8, 1.1466695e+2
-0.344, 6.3359316e-8, -5.2934016e-8, 1.1500029e+2
-0.345, 6.3406446e-8, -5.2973956e-8, 1.1533363e+2
-0.346, 6.3480250e-8, -5.3009423e-8, 1.1566696e+2
-0.347, 6.3646247e-8, -5.3058788e-8, 1.1600030e+2
-0.348, 6.3745304e-8, -5.3122456e-8, 1.1633363e+2
-0.349, 6.3812081e-8, -5.3208804e-8, 1.1666697e+2
-0.350, 6.3849306e-8, -5.3302347e-8, 1.1700031e+2
-0.351, 6.3886134e-8, -5.3366328e-8, 1.1733364e+2
-0.352, 6.3987180e-8, -5.3418972e-8, 1.1766698e+2
-0.353, 6.4146221e-8, -5.3454279e-8, 1.1800031e+2
-0.354, 6.4272918e-8, -5.3485515e-8, 1.1833365e+2
-0.355, 6.4328113e-8, -5.3520662e-8, 1.1866698e+2
-0.356, 6.4375648e-8, -5.3566357e-8, 1.1900032e+2
-0.357, 6.4461197e-8, -5.3620195e-8, 1.1933366e+2
-0.358, 6.4580462e-8, -5.3655338e-8, 1.1966699e+2
-0.359, 6.4800851e-8, -5.3744007e-8, 1.2000033e+2
-0.360, 6.4806919e-8, -5.3836992e-8, 1.2033366e+2
-0.361, 6.4837039e-8, -5.3894663e-8, 1.2066700e+2
-0.362, 6.4874740e-8, -5.3931572e-8, 1.2100034e+2
-0.363, 6.4925544e-8, -5.3952022e-8, 1.2133367e+2
-0.364, 6.5068932e-8, -5.3969430e-8, 1.2166701e+2
-0.365, 6.5177886e-8, -5.3994675e-8, 1.2200034e+2
-0.366, 6.5263684e-8, -5.4034139e-8, 1.2233368e+2
-0.367, 6.5325587e-8, -5.4078473e-8, 1.2266702e+2
-0.368, 6.5367288e-8, -5.4132315e-8, 1.2300035e+2
-0.369, 6.5436140e-8, -5.4192220e-8, 1.2333369e+2
-0.370, 6.5574582e-8, -5.4246300e-8, 1.2366702e+2
-0.371, 6.5678663e-8, -5.4308611e-8, 1.2400036e+2
-0.372, 6.5735222e-8, -5.4358775e-8, 1.2433369e+2
-0.373, 6.5810312e-8, -5.4396796e-8, 1.2466703e+2
-0.374, 6.5846812e-8, -5.4427076e-8, 1.2500037e+2
-0.375, 6.5907528e-8, -5.4448719e-8, 1.2533370e+2
-0.376, 6.6040606e-8, -5.4470689e-8, 1.2566704e+2
-0.377, 6.6149646e-8, -5.4505598e-8, 1.2600037e+2
-0.378, 6.6234158e-8, -5.4540664e-8, 1.2633371e+2
-0.379, 6.6293993e-8, -5.4584522e-8, 1.2666705e+2
-0.380, 6.6339688e-8, -5.4636445e-8, 1.2700038e+2
-0.381, 6.6389291e-8, -5.4700429e-8, 1.2733372e+2
-0.382, 6.6557519e-8, -5.4768886e-8, 1.2766705e+2
-0.383, 6.6668392e-8, -5.4824163e-8, 1.2800038e+2
-0.384, 6.6726308e-8, -5.4870494e-8, 1.2833371e+2
-0.385, 6.6784146e-8, -5.4907161e-8, 1.2866704e+2
-0.386, 6.6824484e-8, -5.4932720e-8, 1.2900037e+2
-0.387, 6.6906203e-8, -5.4951574e-8, 1.2933369e+2
-0.388, 6.7068200e-8, -5.4977214e-8, 1.2966702e+2
-0.389, 6.7194570e-8, -5.5010926e-8, 1.3000035e+2
-0.390, 6.7251442e-8, -5.5051185e-8, 1.3033368e+2
-0.391, 6.7303773e-8, -5.5092322e-8, 1.3066701e+2
-0.392, 6.7361121e-8, -5.5136820e-8, 1.3100034e+2
-0.393, 6.7443722e-8, -5.5200481e-8, 1.3133366e+2
-0.394, 6.7605079e-8, -5.5263907e-8, 1.3166699e+2
-0.395, 6.7676098e-8, -5.5312878e-8, 1.3200032e+2
-0.396, 6.7745027e-8, -5.5361681e-8, 1.3233365e+2
-0.397, 6.7782658e-8, -5.5393237e-8, 1.3266698e+2
-0.398, 6.7826271e-8, -5.5413206e-8, 1.3300031e+2
-0.399, 6.7964628e-8, -5.5431819e-8, 1.3333363e+2
