Jan. 27, 2006   23:44:24
Cyclic Voltammetry
File: z:\users\scottsaunders\git\labwork\ida\01_17_19_psoralen_nonequil_2\data\control\1\75um_control_soak_1_gc_1.txt
Data Source:  Experiment
Instrument Model:  CHI760E
Header: 
Note: 

Init E (V) = 0
High E (V) = 0
Low E (V) = -0.4
Init P/N = N
Scan Rate (V/s) = 0.003
Segment = 1
Sample Interval (V) = 0.001
Quiet Time (sec) = 2
Sensitivity (A/V) = 1e-5
2nd E (V) = 0.1
Sens 2 (A/V) = 1e-5

Potential/V, i1/A, i2/A, Time/s

0.000, -1.2530415e-7, -1.4934952e-7, 3.3333334e-1
-0.001, -1.1729208e-7, -1.3737930e-7, 6.6666669e-1
-0.002, -1.0979922e-7, -1.3145612e-7, 1.0000000e+0
-0.003, -1.0103226e-7, -1.2696280e-7, 1.3333334e+0
-0.004, -9.5927845e-8, -1.2101563e-7, 1.6666667e+0
-0.005, -9.2740578e-8, -1.1399408e-7, 2.0000000e+0
-0.006, -8.9856869e-8, -1.0956067e-7, 2.3333333e+0
-0.007, -8.5946681e-8, -1.0708435e-7, 2.6666665e+0
-0.008, -8.1417411e-8, -1.0448421e-7, 2.9999998e+0
-0.009, -7.7563143e-8, -1.0225153e-7, 3.3333330e+0
-0.010, -7.4555615e-8, -9.9775214e-8, 3.6666663e+0
-0.011, -7.2314947e-8, -9.7031290e-8, 3.9999995e+0
-0.012, -7.0613474e-8, -9.4015782e-8, 4.3333330e+0
-0.013, -6.9423244e-8, -9.0309285e-8, 4.6666665e+0
-0.014, -6.8300913e-8, -8.8060638e-8, 5.0000000e+0
-0.015, -6.7054771e-8, -8.6427058e-8, 5.3333335e+0
-0.016, -6.5920453e-8, -8.5128988e-8, 5.6666670e+0
-0.017, -6.4794129e-8, -8.4210356e-8, 6.0000005e+0
-0.018, -6.3268395e-8, -8.3327663e-8, 6.3333340e+0
-0.019, -6.1746654e-8, -8.2389064e-8, 6.6666675e+0
-0.020, -6.0372706e-8, -8.1562298e-8, 7.0000010e+0
-0.021, -5.8711169e-8, -8.0439960e-8, 7.3333344e+0
-0.022, -5.7325231e-8, -7.9772953e-8, 7.6666679e+0
-0.023, -5.6282783e-8, -7.8958166e-8, 8.0000010e+0
-0.024, -5.4721106e-8, -7.8143373e-8, 8.3333340e+0
-0.025, -5.3494926e-8, -7.7408473e-8, 8.6666670e+0
-0.026, -5.2464465e-8, -7.6505813e-8, 9.0000000e+0
-0.027, -5.1290204e-8, -7.5954631e-8, 9.3333330e+0
-0.028, -5.0507374e-8, -7.4684522e-8, 9.6666660e+0
-0.029, -4.9560775e-8, -7.4097393e-8, 9.9999990e+0
-0.030, -4.8885781e-8, -7.3218700e-8, 1.0333332e+1
-0.031, -4.8118920e-8, -7.2164262e-8, 1.0666665e+1
-0.032, -4.7671588e-8, -7.1089865e-8, 1.0999998e+1
-0.033, -4.7008569e-8, -7.0406877e-8, 1.1333331e+1
-0.034, -4.6529284e-8, -6.9612057e-8, 1.1666664e+1
-0.035, -4.6113900e-8, -6.8765317e-8, 1.1999997e+1
-0.036, -4.5626628e-8, -6.8102302e-8, 1.2333330e+1
-0.037, -4.5299114e-8, -6.7283523e-8, 1.2666663e+1
-0.038, -4.4983583e-8, -6.6452756e-8, 1.2999996e+1
-0.039, -4.4847781e-8, -6.5514158e-8, 1.3333329e+1
-0.040, -4.4472340e-8, -6.5210607e-8, 1.3666662e+1
-0.041, -4.4104890e-8, -6.4611491e-8, 1.3999995e+1
-0.042, -4.3761400e-8, -6.3836644e-8, 1.4333328e+1
-0.043, -4.3625601e-8, -6.3473188e-8, 1.4666661e+1
-0.044, -4.3354007e-8, -6.2989905e-8, 1.4999994e+1
-0.045, -4.3230191e-8, -6.2626448e-8, 1.5333327e+1
-0.046, -4.2850758e-8, -6.2203078e-8, 1.5666660e+1
-0.047, -4.2647056e-8, -6.1691836e-8, 1.5999993e+1
-0.048, -4.2467320e-8, -6.1376305e-8, 1.6333326e+1
-0.049, -4.2187740e-8, -6.0813143e-8, 1.6666660e+1
-0.050, -4.2031971e-8, -6.0617431e-8, 1.6999994e+1
-0.051, -4.1788333e-8, -6.0265954e-8, 1.7333328e+1
-0.052, -4.1576648e-8, -5.9962403e-8, 1.7666662e+1
-0.053, -4.1269104e-8, -5.9630899e-8, 1.7999996e+1
-0.054, -4.1157271e-8, -5.9263446e-8, 1.8333330e+1
-0.055, -4.1033456e-8, -5.8963895e-8, 1.8666664e+1
-0.056, -4.0630056e-8, -5.8620405e-8, 1.8999998e+1
-0.057, -4.0226652e-8, -5.8516555e-8, 1.9333332e+1
-0.058, -4.0142776e-8, -5.8029279e-8, 1.9666666e+1
-0.059, -3.9895149e-8, -5.7753692e-8, 2.0000000e+1
-0.060, -3.9507722e-8, -5.7829581e-8, 2.0333334e+1
-0.061, -3.9252104e-8, -5.7474107e-8, 2.0666668e+1
-0.062, -3.8936573e-8, -5.7386238e-8, 2.1000002e+1
-0.063, -3.8744858e-8, -5.7038751e-8, 2.1333336e+1
-0.064, -3.8593086e-8, -5.6791123e-8, 2.1666670e+1
-0.065, -3.8449297e-8, -5.6623374e-8, 2.2000004e+1
-0.066, -3.7746343e-8, -5.6375740e-8, 2.2333338e+1
-0.067, -3.7750336e-8, -5.6319823e-8, 2.2666672e+1
-0.068, -3.7438799e-8, -5.5932396e-8, 2.3000006e+1
-0.069, -3.6991466e-8, -5.6004289e-8, 2.3333340e+1
-0.070, -3.6803744e-8, -5.5888460e-8, 2.3666674e+1
-0.071, -3.6152713e-8, -5.5560953e-8, 2.4000008e+1
-0.072, -3.6040881e-8, -5.5485064e-8, 2.4333342e+1
-0.073, -3.5705376e-8, -5.5261399e-8, 2.4666676e+1
-0.074, -3.5561591e-8, -5.5057697e-8, 2.5000010e+1
-0.075, -3.5357893e-8, -5.4853999e-8, 2.5333344e+1
-0.076, -3.4958486e-8, -5.4778116e-8, 2.5666677e+1
-0.077, -3.4754791e-8, -5.4730187e-8, 2.6000011e+1
-0.078, -3.4359378e-8, -5.4426639e-8, 2.6333345e+1
-0.079, -3.4039854e-8, -5.4270870e-8, 2.6666679e+1
-0.080, -3.3920031e-8, -5.4398679e-8, 2.7000013e+1
-0.081, -3.3760269e-8, -5.4171018e-8, 2.7333347e+1
-0.082, -3.3368853e-8, -5.3955340e-8, 2.7666681e+1
-0.083, -3.3093261e-8, -5.3767618e-8, 2.8000015e+1
-0.084, -3.2629949e-8, -5.3631819e-8, 2.8333349e+1
-0.085, -3.2454210e-8, -5.3559926e-8, 2.8666683e+1
-0.086, -3.2386311e-8, -5.3416141e-8, 2.9000017e+1
-0.087, -3.2030840e-8, -5.3332265e-8, 2.9333351e+1
-0.088, -3.1775219e-8, -5.3220433e-8, 2.9666685e+1
-0.089, -3.1531584e-8, -5.3044690e-8, 3.0000019e+1
-0.090, -3.1212057e-8, -5.3004751e-8, 3.0333353e+1
-0.091, -3.0828627e-8, -5.2900905e-8, 3.0666687e+1
-0.092, -3.0700818e-8, -5.2709190e-8, 3.1000021e+1
-0.093, -3.0521083e-8, -5.2549428e-8, 3.1333355e+1
-0.094, -3.0117683e-8, -5.2481528e-8, 3.1666689e+1
-0.095, -2.9989874e-8, -5.2345730e-8, 3.2000023e+1
-0.096, -2.9826118e-8, -5.2221914e-8, 3.2333355e+1
-0.097, -2.9262955e-8, -5.2197951e-8, 3.2666687e+1
-0.098, -2.9542539e-8, -5.1974286e-8, 3.3000019e+1
-0.099, -2.9234997e-8, -5.1774581e-8, 3.3333351e+1
-0.100, -2.8911476e-8, -5.1826504e-8, 3.3666683e+1
-0.101, -2.9007335e-8, -5.1698692e-8, 3.4000015e+1
-0.102, -2.8484113e-8, -5.1594846e-8, 3.4333347e+1
-0.103, -2.8583965e-8, -5.1387158e-8, 3.4666679e+1
-0.104, -2.8240475e-8, -5.1235382e-8, 3.5000011e+1
-0.105, -2.8196540e-8, -5.1494993e-8, 3.5333344e+1
-0.106, -2.7649355e-8, -5.1271329e-8, 3.5666676e+1
-0.107, -2.7661336e-8, -5.1043667e-8, 3.6000008e+1
-0.108, -2.7601425e-8, -5.1031684e-8, 3.6333340e+1
-0.109, -2.7229978e-8, -5.1051657e-8, 3.6666672e+1
-0.110, -2.7249948e-8, -5.0664230e-8, 3.7000004e+1
-0.111, -2.6866518e-8, -5.0776062e-8, 3.7333336e+1
-0.112, -2.6818590e-8, -5.0644260e-8, 3.7666668e+1
-0.113, -2.6670810e-8, -5.0376656e-8, 3.8000000e+1
-0.114, -2.6267408e-8, -5.0137015e-8, 3.8333332e+1
-0.115, -2.6351286e-8, -5.0292783e-8, 3.8666664e+1
-0.116, -2.6175545e-8, -5.0172964e-8, 3.8999996e+1
-0.117, -2.5864008e-8, -5.0061129e-8, 3.9333328e+1
-0.118, -2.5919926e-8, -5.0057135e-8, 3.9666660e+1
-0.119, -2.5660311e-8, -5.0001219e-8, 3.9999992e+1
-0.120, -2.5280876e-8, -5.0053139e-8, 4.0333324e+1
-0.121, -2.5093154e-8, -4.9657729e-8, 4.0666656e+1
-0.122, -2.4825553e-8, -4.9625772e-8, 4.0999989e+1
-0.123, -2.4877474e-8, -4.9513940e-8, 4.1333321e+1
-0.124, -2.4597892e-8, -4.9625772e-8, 4.1666653e+1
-0.125, -2.4486058e-8, -4.9198409e-8, 4.1999985e+1
-0.126, -2.4278366e-8, -4.9477997e-8, 4.2333317e+1
-0.127, -2.4138574e-8, -4.9114533e-8, 4.2666649e+1
-0.128, -2.4054698e-8, -4.9302255e-8, 4.2999981e+1
-0.129, -2.3930882e-8, -4.9054627e-8, 4.3333313e+1
-0.130, -2.3847008e-8, -4.8926815e-8, 4.3666645e+1
-0.131, -2.3643311e-8, -4.8966754e-8, 4.3999977e+1
-0.132, -2.3719197e-8, -4.9006694e-8, 4.4333309e+1
-0.133, -2.3439615e-8, -4.8886871e-8, 4.4666641e+1
-0.134, -2.3311804e-8, -4.8687170e-8, 4.4999973e+1
-0.135, -2.3307809e-8, -4.8854922e-8, 4.5333305e+1
-0.136, -2.3156035e-8, -4.8902848e-8, 4.5666637e+1
-0.137, -2.3036213e-8, -4.8503441e-8, 4.5999969e+1
-0.138, -2.2908402e-8, -4.8659210e-8, 4.6333302e+1
-0.139, -2.2948344e-8, -4.8295753e-8, 4.6666634e+1
-0.140, -2.2552930e-8, -4.8235840e-8, 4.6999966e+1
-0.141, -2.2497014e-8, -4.8203891e-8, 4.7333298e+1
-0.142, -2.2361217e-8, -4.8359659e-8, 4.7666630e+1
-0.143, -2.2237401e-8, -4.8471492e-8, 4.7999962e+1
-0.144, -2.2137549e-8, -4.8311730e-8, 4.8333294e+1
-0.145, -2.2053674e-8, -4.8371639e-8, 4.8666626e+1
-0.146, -2.1905894e-8, -4.8355663e-8, 4.8999958e+1
-0.147, -2.1702196e-8, -4.8375632e-8, 4.9333290e+1
-0.148, -2.1586368e-8, -4.8427559e-8, 4.9666622e+1
-0.149, -2.1490511e-8, -4.8363649e-8, 4.9999954e+1
-0.150, -2.1354714e-8, -4.8699153e-8, 5.0333286e+1
-0.151, -2.1290807e-8, -4.8411579e-8, 5.0666618e+1
-0.152, -2.1031193e-8, -4.8363649e-8, 5.0999950e+1
-0.153, -2.0855454e-8, -4.8351669e-8, 5.1333282e+1
-0.154, -2.0803531e-8, -4.8623264e-8, 5.1666615e+1
-0.155, -2.0595840e-8, -4.8563354e-8, 5.1999947e+1
-0.156, -2.0535930e-8, -4.8443535e-8, 5.2333279e+1
-0.157, -2.0252351e-8, -4.8663207e-8, 5.2666611e+1
-0.158, -2.0168477e-8, -4.8635247e-8, 5.2999943e+1
-0.159, -1.9864929e-8, -4.8579331e-8, 5.3333275e+1
-0.160, -1.9769070e-8, -4.8998704e-8, 5.3666607e+1
-0.161, -1.9561378e-8, -4.9078590e-8, 5.3999939e+1
-0.162, -1.9449546e-8, -4.9158469e-8, 5.4333271e+1
-0.163, -1.9397623e-8, -4.9110543e-8, 5.4666603e+1
-0.164, -1.9145997e-8, -4.9294268e-8, 5.4999935e+1
-0.165, -1.8850436e-8, -4.9298261e-8, 5.5333267e+1
-0.166, -1.8742597e-8, -4.9673705e-8, 5.5666599e+1
-0.167, -1.8522924e-8, -4.9629769e-8, 5.5999931e+1
-0.168, -1.8235351e-8, -5.0093078e-8, 5.6333263e+1
-0.169, -1.8003695e-8, -4.9981246e-8, 5.6666595e+1
-0.170, -1.7628253e-8, -5.0324736e-8, 5.6999928e+1
-0.171, -1.7524409e-8, -5.0580358e-8, 5.7333260e+1
-0.172, -1.7320710e-8, -5.0624291e-8, 5.7666592e+1
-0.173, -1.6809469e-8, -5.0756096e-8, 5.7999924e+1
-0.174, -1.6390095e-8, -5.0808019e-8, 5.8333256e+1
-0.175, -1.6010658e-8, -5.1123550e-8, 5.8666588e+1
-0.176, -1.5527377e-8, -5.1343221e-8, 5.8999920e+1
-0.177, -1.4944243e-8, -5.1510970e-8, 5.9333252e+1
-0.178, -1.4273241e-8, -5.1822507e-8, 5.9666584e+1
-0.179, -1.3570285e-8, -5.2165998e-8, 5.9999916e+1
-0.180, -1.2599729e-8, -5.2261854e-8, 6.0333248e+1
-0.181, -1.1629172e-8, -5.2681234e-8, 6.0666580e+1
-0.182, -1.0682579e-8, -5.2964811e-8, 6.0999912e+1
-0.183, -9.4124673e-9, -5.3284335e-8, 6.1333244e+1
-0.184, -8.0584801e-9, -5.3404158e-8, 6.1666576e+1
-0.185, -6.8442869e-9, -5.3959333e-8, 6.1999908e+1
-0.186, -5.2866014e-9, -5.4131075e-8, 6.2333241e+1
-0.187, -3.9126444e-9, -5.4526492e-8, 6.2666573e+1
-0.188, -2.5546643e-9, -5.4794093e-8, 6.2999905e+1
-0.189, -9.5304564e-10, -5.5325302e-8, 6.3333237e+1
-0.190, 3.5301315e-10, -5.5816571e-8, 6.3666569e+1
-0.191, 1.5192805e-9, -5.6112132e-8, 6.3999901e+1
-0.192, 2.5817006e-9, -5.6839049e-8, 6.4333237e+1
-0.193, 3.4963408e-9, -5.7314345e-8, 6.4666573e+1
-0.194, 4.4189670e-9, -5.7909460e-8, 6.4999908e+1
-0.195, 5.3495843e-9, -5.8676321e-8, 6.5333244e+1
-0.196, 6.1683680e-9, -5.9499097e-8, 6.5666580e+1
-0.197, 7.1668831e-9, -6.0393766e-8, 6.5999916e+1
-0.198, 8.5488283e-9, -6.1556037e-8, 6.6333252e+1
-0.199, 1.0150448e-8, -6.2370823e-8, 6.6666588e+1
-0.200, 1.2650732e-8, -6.3968450e-8, 6.6999924e+1
-0.201, 1.5678228e-8, -6.5234566e-8, 6.7333260e+1
-0.202, 1.8757651e-8, -6.7151717e-8, 6.7666595e+1
-0.203, 2.2220505e-8, -6.8889136e-8, 6.7999931e+1
-0.204, 2.4948445e-8, -7.0990012e-8, 6.8333267e+1
-0.205, 2.7173138e-8, -7.3018995e-8, 6.8666603e+1
-0.206, 2.9166177e-8, -7.5199750e-8, 6.8999939e+1
-0.207, 3.1430808e-8, -7.6941163e-8, 6.9333275e+1
-0.208, 3.4174729e-8, -7.8251219e-8, 6.9666611e+1
-0.209, 3.8572189e-8, -7.9888785e-8, 6.9999947e+1
-0.210, 4.3744500e-8, -8.1510372e-8, 7.0333282e+1
-0.211, 4.8493440e-8, -8.3275744e-8, 7.0666618e+1
-0.212, 5.2120047e-8, -8.4797485e-8, 7.0999954e+1
-0.213, 5.4652283e-8, -8.7026166e-8, 7.1333290e+1
-0.214, 5.7408190e-8, -9.0273346e-8, 7.1666626e+1
-0.215, 6.2760229e-8, -9.5182038e-8, 7.1999962e+1
-0.216, 7.0225134e-8, -9.9487650e-8, 7.2333298e+1
-0.217, 7.5944627e-8, -1.0252312e-7, 7.2666634e+1
-0.218, 7.9531297e-8, -1.0542281e-7, 7.2999969e+1
-0.219, 8.4611735e-8, -1.0816674e-7, 7.3333305e+1
-0.220, 9.3909911e-8, -1.1172146e-7, 7.3666641e+1
-0.221, 1.0103133e-7, -1.1729716e-7, 7.3999977e+1
-0.222, 1.0559653e-7, -1.2372760e-7, 7.4333313e+1
-0.223, 1.1365257e-7, -1.2832477e-7, 7.4666649e+1
-0.224, 1.2290282e-7, -1.3201128e-7, 7.4999985e+1
-0.225, 1.2852246e-7, -1.3606925e-7, 7.5333321e+1
-0.226, 1.3705377e-7, -1.4420915e-7, 7.5666656e+1
-0.227, 1.4835697e-7, -1.5098708e-7, 7.5999992e+1
-0.228, 1.5410842e-7, -1.5514888e-7, 7.6333328e+1
-0.229, 1.6585895e-7, -1.6044902e-7, 7.6666664e+1
-0.230, 1.7587605e-7, -1.6993491e-7, 7.7000000e+1
-0.231, 1.8517824e-7, -1.7705231e-7, 7.7333336e+1
-0.232, 1.9901367e-7, -1.8242035e-7, 7.7666672e+1
-0.233, 2.0731731e-7, -1.9142695e-7, 7.8000008e+1
-0.234, 2.2212730e-7, -2.0113652e-7, 7.8333344e+1
-0.235, 2.3092622e-7, -2.0751104e-7, 7.8666679e+1
-0.236, 2.4713412e-7, -2.1891410e-7, 7.9000015e+1
-0.237, 2.5693555e-7, -2.2799659e-7, 7.9333351e+1
-0.238, 2.7290380e-7, -2.3532569e-7, 7.9666687e+1
-0.239, 2.8671528e-7, -2.4893345e-7, 8.0000023e+1
-0.240, 3.0047082e-7, -2.5619067e-7, 8.0333359e+1
-0.241, 3.1536467e-7, -2.6995420e-7, 8.0666695e+1
-0.242, 3.2761844e-7, -2.7914055e-7, 8.1000031e+1
-0.243, 3.4532013e-7, -2.9131442e-7, 8.1333366e+1
-0.244, 3.5880407e-7, -3.0261364e-7, 8.1666702e+1
-0.245, 3.7448476e-7, -3.1565426e-7, 8.2000038e+1
-0.246, 3.9309310e-7, -3.2750464e-7, 8.2333374e+1
-0.247, 4.0643326e-7, -3.4148385e-7, 8.2666710e+1
-0.248, 4.2277298e-7, -3.5159681e-7, 8.3000046e+1
-0.249, 4.4170483e-7, -3.6638286e-7, 8.3333382e+1
-0.250, 4.5556422e-7, -3.7711490e-7, 8.3666718e+1
-0.251, 4.7244711e-7, -3.9242411e-7, 8.4000053e+1
-0.252, 4.9213384e-7, -4.0370335e-7, 8.4333389e+1
-0.253, 5.0745905e-7, -4.1992325e-7, 8.4666725e+1
-0.254, 5.2168991e-7, -4.3060336e-7, 8.5000061e+1
-0.255, 5.4135666e-7, -4.4637989e-7, 8.5333397e+1
-0.256, 5.5692550e-7, -4.5916090e-7, 8.5666733e+1
-0.257, 5.7183536e-7, -4.7351557e-7, 8.6000069e+1
-0.258, 5.9174971e-7, -4.8738696e-7, 8.6333405e+1
-0.259, 6.0666758e-7, -5.0017991e-7, 8.6666740e+1
-0.260, 6.2045109e-7, -5.1648368e-7, 8.7000076e+1
-0.261, 6.3938296e-7, -5.2734754e-7, 8.7333412e+1
-0.262, 6.5264328e-7, -5.4317997e-7, 8.7666748e+1
-0.263, 6.6729342e-7, -5.5310119e-7, 8.8000084e+1
-0.264, 6.8555033e-7, -5.6855424e-7, 8.8333420e+1
-0.265, 6.9658188e-7, -5.7954190e-7, 8.8666756e+1
-0.266, 7.1338093e-7, -5.9443175e-7, 8.9000092e+1
-0.267, 7.2640154e-7, -6.0663763e-7, 8.9333427e+1
-0.268, 7.3963787e-7, -6.2040118e-7, 8.9666763e+1
-0.269, 7.5205145e-7, -6.3104534e-7, 9.0000099e+1
-0.270, 7.6425329e-7, -6.4381038e-7, 9.0333435e+1
-0.271, 7.7775724e-7, -6.5438661e-7, 9.0666771e+1
-0.272, 7.8896454e-7, -6.6707179e-7, 9.1000107e+1
-0.273, 7.9918937e-7, -6.7495603e-7, 9.1333443e+1
-0.274, 8.1205820e-7, -6.8898720e-7, 9.1666779e+1
-0.275, 8.2043380e-7, -6.9654800e-7, 9.2000114e+1
-0.276, 8.3376995e-7, -7.0914126e-7, 9.2333450e+1
-0.277, 8.4004864e-7, -7.1868703e-7, 9.2666786e+1
-0.278, 8.5126794e-7, -7.2585641e-7, 9.3000122e+1
-0.279, 8.6104944e-7, -7.3852550e-7, 9.3333458e+1
-0.280, 8.6686475e-7, -7.4486815e-7, 9.3666794e+1
-0.281, 8.7902663e-7, -7.5488128e-7, 9.4000130e+1
-0.282, 8.8629588e-7, -7.6399169e-7, 9.4333466e+1
-0.283, 8.9133636e-7, -7.6942763e-7, 9.4666801e+1
-0.284, 9.0087821e-7, -7.7729590e-7, 9.5000137e+1
-0.285, 9.0857475e-7, -7.8720120e-7, 9.5333473e+1
-0.286, 9.1281242e-7, -7.9238146e-7, 9.5666809e+1
-0.287, 9.1975011e-7, -7.9818886e-7, 9.6000145e+1
-0.288, 9.2827742e-7, -8.0804620e-7, 9.6333481e+1
-0.289, 9.3368544e-7, -8.1408922e-7, 9.6666817e+1
-0.290, 9.3680876e-7, -8.1814721e-7, 9.7000153e+1
-0.291, 9.4100250e-7, -8.2284419e-7, 9.7333488e+1
-0.292, 9.4828766e-7, -8.3175894e-7, 9.7666824e+1
-0.293, 9.5482199e-7, -8.3784585e-7, 9.8000160e+1
-0.294, 9.5881205e-7, -8.4133274e-7, 9.8333496e+1
-0.295, 9.6118458e-7, -8.4530279e-7, 9.8666832e+1
-0.296, 9.6466738e-7, -8.5163339e-7, 9.9000168e+1
-0.297, 9.6997940e-7, -8.5817970e-7, 9.9333504e+1
-0.298, 9.7576287e-7, -8.6234547e-7, 9.9666840e+1
-0.299, 9.8036003e-7, -8.6553274e-7, 1.0000018e+2
-0.300, 9.8333157e-7, -8.6835649e-7, 1.0033351e+2
-0.301, 9.8520081e-7, -8.7193519e-7, 1.0066685e+2
-0.302, 9.8700218e-7, -8.7763470e-7, 1.0100018e+2
-0.303, 9.8992575e-7, -8.8335423e-7, 1.0133352e+2
-0.304, 9.9358442e-7, -8.8666133e-7, 1.0166685e+2
-0.305, 9.9794590e-7, -8.8903380e-7, 1.0200019e+2
-0.306, 1.0018241e-6, -8.9150211e-7, 1.0233353e+2
-0.307, 1.0049913e-6, -8.9420610e-7, 1.0266686e+2
-0.308, 1.0071961e-6, -8.9781668e-7, 1.0300020e+2
-0.309, 1.0087577e-6, -9.0266150e-7, 1.0333353e+2
-0.310, 1.0099441e-6, -9.0704299e-7, 1.0366687e+2
-0.311, 1.0114378e-6, -9.1027022e-7, 1.0400021e+2
-0.312, 1.0134468e-6, -9.1231516e-7, 1.0433354e+2
-0.313, 1.0160829e-6, -9.1435214e-7, 1.0466688e+2
-0.314, 1.0190624e-6, -9.1601368e-7, 1.0500021e+2
-0.315, 1.0222418e-6, -9.1747950e-7, 1.0533355e+2
-0.316, 1.0252053e-6, -9.1973618e-7, 1.0566689e+2
-0.317, 1.0275419e-6, -9.2290338e-7, 1.0600022e+2
-0.318, 1.0293752e-6, -9.2656995e-7, 1.0633356e+2
-0.319, 1.0309168e-6, -9.3055604e-7, 1.0666689e+2
-0.320, 1.0322628e-6, -9.3308824e-7, 1.0700023e+2
-0.321, 1.0332254e-6, -9.3484169e-7, 1.0733356e+2
-0.322, 1.0340561e-6, -9.3643933e-7, 1.0766690e+2
-0.323, 1.0347671e-6, -9.3793307e-7, 1.0800024e+2
-0.324, 1.0356937e-6, -9.3945084e-7, 1.0833357e+2
-0.325, 1.0372075e-6, -9.4066900e-7, 1.0866691e+2
-0.326, 1.0388690e-6, -9.4225868e-7, 1.0900024e+2
-0.327, 1.0403388e-6, -9.4431959e-7, 1.0933358e+2
-0.328, 1.0424358e-6, -9.4670406e-7, 1.0966692e+2
-0.329, 1.0447044e-6, -9.4971557e-7, 1.1000025e+2
-0.330, 1.0467733e-6, -9.5177251e-7, 1.1033359e+2
-0.331, 1.0486744e-6, -9.5460030e-7, 1.1066692e+2
-0.332, 1.0506155e-6, -9.5687687e-7, 1.1100026e+2
-0.333, 1.0524129e-6, -9.5845053e-7, 1.1133360e+2
-0.334, 1.0538267e-6, -9.5942914e-7, 1.1166693e+2
-0.335, 1.0547734e-6, -9.6083500e-7, 1.1200027e+2
-0.336, 1.0558198e-6, -9.6198130e-7, 1.1233360e+2
-0.337, 1.0568303e-6, -9.6318752e-7, 1.1266694e+2
-0.338, 1.0577370e-6, -9.6432188e-7, 1.1300027e+2
-0.339, 1.0584519e-6, -9.6525253e-7, 1.1333361e+2
-0.340, 1.0590550e-6, -9.6628287e-7, 1.1366695e+2
-0.341, 1.0599338e-6, -9.6739734e-7, 1.1400028e+2
-0.342, 1.0607764e-6, -9.6939425e-7, 1.1433362e+2
-0.343, 1.0616870e-6, -9.7108375e-7, 1.1466695e+2
-0.344, 1.0632408e-6, -9.7330042e-7, 1.1500029e+2
-0.345, 1.0646107e-6, -9.7603652e-7, 1.1533363e+2
-0.346, 1.0664839e-6, -9.7809732e-7, 1.1566696e+2
-0.347, 1.0683133e-6, -9.8000260e-7, 1.1600030e+2
-0.348, 1.0705140e-6, -9.8175587e-7, 1.1633363e+2
-0.349, 1.0722993e-6, -9.8322971e-7, 1.1666697e+2
-0.350, 1.0737651e-6, -9.8407645e-7, 1.1700031e+2
-0.351, 1.0751551e-6, -9.8521480e-7, 1.1733364e+2
-0.352, 1.0766609e-6, -9.8614544e-7, 1.1766698e+2
-0.353, 1.0777911e-6, -9.8709995e-7, 1.1800031e+2
-0.354, 1.0788017e-6, -9.8803457e-7, 1.1833365e+2
-0.355, 1.0798960e-6, -9.8894532e-7, 1.1866698e+2
-0.356, 1.0805511e-6, -9.8971213e-7, 1.1900032e+2
-0.357, 1.0811422e-6, -9.9067472e-7, 1.1933366e+2
-0.358, 1.0817892e-6, -9.9176111e-7, 1.1966699e+2
-0.359, 1.0824682e-6, -9.9305907e-7, 1.2000033e+2
-0.360, 1.0831072e-6, -9.9438114e-7, 1.2033366e+2
-0.361, 1.0836943e-6, -9.9583099e-7, 1.2066700e+2
-0.362, 1.0843174e-6, -9.9772024e-7, 1.2100034e+2
-0.363, 1.0849644e-6, -9.9947363e-7, 1.2133367e+2
-0.364, 1.0856235e-6, -1.0011830e-6, 1.2166701e+2
-0.365, 1.0865182e-6, -1.0029285e-6, 1.2200034e+2
-0.366, 1.0872930e-6, -1.0044582e-6, 1.2233368e+2
-0.367, 1.0887388e-6, -1.0059480e-6, 1.2266702e+2
-0.368, 1.0898492e-6, -1.0068346e-6, 1.2300035e+2
-0.369, 1.0910674e-6, -1.0080648e-6, 1.2333369e+2
-0.370, 1.0923056e-6, -1.0089834e-6, 1.2366702e+2
-0.371, 1.0938353e-6, -1.0099141e-6, 1.2400036e+2
-0.372, 1.0953211e-6, -1.0107927e-6, 1.2433369e+2
-0.373, 1.0967949e-6, -1.0116835e-6, 1.2466703e+2
-0.374, 1.0981768e-6, -1.0123944e-6, 1.2500037e+2
-0.375, 1.0994150e-6, -1.0132530e-6, 1.2533370e+2
-0.376, 1.1006651e-6, -1.0139640e-6, 1.2566704e+2
-0.377, 1.1017555e-6, -1.0145471e-6, 1.2600037e+2
-0.378, 1.1027621e-6, -1.0152141e-6, 1.2633371e+2
-0.379, 1.1036168e-6, -1.0159011e-6, 1.2666705e+2
-0.380, 1.1045713e-6, -1.0168757e-6, 1.2700038e+2
-0.381, 1.1051504e-6, -1.0179940e-6, 1.2733372e+2
-0.382, 1.1060331e-6, -1.0193361e-6, 1.2766705e+2
-0.383, 1.1065524e-6, -1.0208978e-6, 1.2800038e+2
-0.384, 1.1071675e-6, -1.0231744e-6, 1.2833371e+2
-0.385, 1.1076627e-6, -1.0248319e-6, 1.2866704e+2
-0.386, 1.1084056e-6, -1.0265493e-6, 1.2900037e+2
-0.387, 1.1090327e-6, -1.0284465e-6, 1.2933369e+2
-0.388, 1.1099394e-6, -1.0298843e-6, 1.2966702e+2
-0.389, 1.1109818e-6, -1.0311345e-6, 1.3000035e+2
-0.390, 1.1120961e-6, -1.0319054e-6, 1.3033368e+2
-0.391, 1.1131785e-6, -1.0328959e-6, 1.3066701e+2
-0.392, 1.1143727e-6, -1.0337187e-6, 1.3100034e+2
-0.393, 1.1160822e-6, -1.0346133e-6, 1.3133366e+2
-0.394, 1.1178076e-6, -1.0354801e-6, 1.3166699e+2
-0.395, 1.1194333e-6, -1.0361111e-6, 1.3200032e+2
-0.396, 1.1210468e-6, -1.0369499e-6, 1.3233365e+2
-0.397, 1.1224089e-6, -1.0376009e-6, 1.3266698e+2
-0.398, 1.1234513e-6, -1.0382959e-6, 1.3300031e+2
-0.399, 1.1247174e-6, -1.0390906e-6, 1.3333363e+2
