May 12, 2006   00:01:11
Cyclic Voltammetry
File: f:\echem\05_01_19_dphz_pca\biofilm_a\soak_1\75um_pca_dphzstar_gc_1.txt
Data Source:  Experiment
Instrument Model:  CHI760B
Header: 
Note: 

Init E (V) = 0
High E (V) = 0
Low E (V) = -0.5
Init P/N = N
Scan Rate (V/s) = 0.003
Segment = 1
Sample Interval (V) = 0.001
Quiet Time (sec) = 2
Sensitivity (A/V) = 1e-6
2nd E (V) = 0
Sens 2 (A/V) = 1e-6

Potential/V, i1/A, i2/A

0.000, -1.2762714e-8, -1.5642254e-8
-0.001, -9.5482928e-9, -1.4400102e-8
-0.002, -8.6464329e-9, -1.3227445e-8
-0.003, -7.4921491e-9, -1.1390975e-8
-0.004, -6.1685177e-9, -1.0384472e-8
-0.005, -5.0246185e-9, -9.8900070e-9
-0.006, -4.3576098e-9, -9.3811625e-9
-0.007, -3.9645944e-9, -8.6031200e-9
-0.008, -3.5851584e-9, -7.6229769e-9
-0.009, -3.1681782e-9, -6.8209696e-9
-0.010, -2.9021738e-9, -6.2410317e-9
-0.011, -2.5339213e-9, -5.8735785e-9
-0.012, -2.0754032e-9, -5.5860063e-9
-0.013, -1.5258202e-9, -5.3040257e-9
-0.014, -9.6505393e-10, -5.0220446e-9
-0.015, -4.8656540e-10, -4.7744124e-9
-0.016, -5.7603148e-11, -4.5930824e-9
-0.017, 2.4035385e-10, -4.4357162e-9
-0.018, 4.4405099e-10, -4.2999178e-9
-0.019, 6.0700872e-10, -4.1297712e-9
-0.020, 7.3881279e-10, -3.9204822e-9
-0.021, 8.1949281e-10, -3.6592707e-9
-0.022, 9.8644448e-10, -3.3453376e-9
-0.023, 1.1030712e-9, -2.9619076e-9
-0.024, 1.2428634e-9, -2.6623528e-9
-0.025, 1.3858509e-9, -2.3204612e-9
-0.026, 1.4896964e-9, -2.0696342e-9
-0.027, 1.6486601e-9, -1.8451678e-9
-0.028, 1.7277424e-9, -1.6191040e-9
-0.029, 1.8475642e-9, -1.4066198e-9
-0.030, 1.9777706e-9, -1.3307327e-9
-0.031, 2.0600484e-9, -1.1502010e-9
-0.032, 2.1591009e-9, -1.0415626e-9
-0.033, 2.3044848e-9, -9.4969921e-10
-0.034, 2.4163187e-9, -8.5863466e-10
-0.035, 2.5201643e-9, -8.3387136e-10
-0.036, 2.6727374e-9, -7.4600209e-10
-0.037, 2.7653997e-9, -6.9967093e-10
-0.038, 2.9147775e-9, -6.4455286e-10
-0.039, 3.1104865e-9, -6.0301464e-10
-0.040, 3.2654561e-9, -5.4789662e-10
-0.041, 3.4212246e-9, -5.1035243e-10
-0.042, 3.6129395e-9, -4.5683196e-10
-0.043, 3.8014591e-9, -4.2168427e-10
-0.044, 3.9132932e-9, -3.7295669e-10
-0.045, 4.0506887e-9, -3.2023509e-10
-0.046, 4.2519894e-9, -2.7390398e-10
-0.047, 4.3334683e-9, -2.2357878e-10
-0.048, 4.4245327e-9, -1.5807618e-10
-0.049, 4.6601825e-9, -1.1573912e-10
-0.050, 4.6985251e-9, -7.1005632e-11
-0.051, 4.8303295e-9, -5.0236513e-11
-0.052, 4.9301812e-9, -1.5887585e-11
-0.053, 4.9805058e-9, 1.0473224e-11
-0.054, 5.0867484e-9, 7.6774649e-11
-0.055, 5.1706239e-9, 8.7159210e-11
-0.056, 5.1985816e-9, 1.0633070e-10
-0.057, 5.3152083e-9, 1.2789864e-10
-0.058, 5.3447646e-9, 1.5985113e-10
-0.059, 5.4270424e-9, 2.0378581e-10
-0.060, 5.4526046e-9, 2.4532404e-10
-0.061, 5.4637872e-9, 2.9325278e-10
-0.062, 5.5756213e-9, 3.1402192e-10
-0.063, 5.5796154e-9, 3.2201006e-10
-0.064, 5.6155622e-9, 3.5715778e-10
-0.065, 5.6874550e-9, 4.1147702e-10
-0.066, 5.7305911e-9, 4.4982001e-10
-0.067, 5.7329874e-9, 4.3384377e-10
-0.068, 5.7913008e-9, 4.9615118e-10
-0.069, 5.8576024e-9, 5.1292620e-10
-0.070, 5.8655902e-9, 5.1452381e-10
-0.071, 5.9119216e-9, 5.6005606e-10
-0.072, 5.9462701e-9, 6.1357658e-10
-0.073, 5.9598499e-9, 6.4552902e-10
-0.074, 5.9957963e-9, 6.6949341e-10
-0.075, 6.0700862e-9, 7.0863521e-10
-0.076, 6.0860628e-9, 7.4538054e-10
-0.077, 6.1220096e-9, 7.6055806e-10
-0.078, 6.1523640e-9, 7.7094253e-10
-0.079, 6.1994938e-9, 8.2286533e-10
-0.080, 6.1955001e-9, 8.5721424e-10
-0.081, 6.2602035e-9, 8.6600122e-10
-0.082, 6.2881620e-9, 9.1153352e-10
-0.083, 6.3209131e-9, 9.7384090e-10
-0.084, 6.3440790e-9, 9.7543851e-10
-0.085, 6.3848185e-9, 9.8901831e-10
-0.086, 6.4623031e-9, 1.0137815e-9
-0.087, 6.4623031e-9, 1.0760890e-9
-0.088, 6.4966521e-9, 1.0401424e-9
-0.089, 6.5270065e-9, 1.1423903e-9
-0.090, 6.5557639e-9, 1.1743428e-9
-0.091, 6.6036927e-9, 1.2190762e-9
-0.092, 6.6148766e-9, 1.2582181e-9
-0.093, 6.6196688e-9, 1.2709991e-9
-0.094, 6.6971535e-9, 1.3005551e-9
-0.095, 6.7187220e-9, 1.3117385e-9
-0.096, 6.7235146e-9, 1.3237207e-9
-0.097, 6.7922130e-9, 1.3660577e-9
-0.098, 6.8113839e-9, 1.3892233e-9
-0.099, 6.8113839e-9, 1.4163828e-9
-0.100, 6.8896679e-9, 1.4036019e-9
-0.101, 6.9040467e-9, 1.4579212e-9
-0.102, 6.9431882e-9, 1.4970629e-9
-0.103, 6.9839281e-9, 1.5290155e-9
-0.104, 7.0318564e-9, 1.5649620e-9
-0.105, 7.1173289e-9, 1.5577727e-9
-0.106, 7.1213235e-9, 1.5777430e-9
-0.107, 7.1716486e-9, 1.5769442e-9
-0.108, 7.2395476e-9, 1.6264706e-9
-0.109, 7.2850797e-9, 1.6033049e-9
-0.110, 7.4001090e-9, 1.6919732e-9
-0.111, 7.4688069e-9, 1.6720029e-9
-0.112, 7.5934210e-9, 1.7223281e-9
-0.113, 7.6429476e-9, 1.7311150e-9
-0.114, 7.7483913e-9, 1.7662628e-9
-0.115, 7.7867339e-9, 1.7718543e-9
-0.116, 7.9624725e-9, 1.8669131e-9
-0.117, 8.0663183e-9, 1.8669131e-9
-0.118, 8.2292750e-9, 1.8469428e-9
-0.119, 8.4193932e-9, 1.8325642e-9
-0.120, 8.5400140e-9, 1.8653155e-9
-0.121, 8.7029717e-9, 1.9028596e-9
-0.122, 8.7684739e-9, 1.9324158e-9
-0.123, 8.9537986e-9, 1.8956703e-9
-0.124, 9.1670813e-9, 1.9547826e-9
-0.125, 9.1822594e-9, 1.9428001e-9
-0.126, 9.4115187e-9, 1.9579776e-9
-0.127, 9.5513100e-9, 2.0378588e-9
-0.128, 9.6903046e-9, 2.0698114e-9
-0.129, 9.7677884e-9, 2.0889830e-9
-0.130, 9.8772261e-9, 2.1201365e-9
-0.131, 9.9754800e-9, 2.1193378e-9
-0.132, 1.0140035e-8, 2.1097519e-9
-0.133, 1.0126455e-8, 2.1281248e-9
-0.134, 1.0239887e-8, 2.0873854e-9
-0.135, 1.0369294e-8, 2.1129472e-9
-0.136, 1.0376484e-8, 2.1121485e-9
-0.137, 1.0470744e-8, 2.1592783e-9
-0.138, 1.0527460e-8, 2.1624738e-9
-0.139, 1.0602548e-8, 2.1504913e-9
-0.140, 1.0664855e-8, 2.2271773e-9
-0.141, 1.0703996e-8, 2.2455500e-9
-0.142, 1.0818227e-8, 2.1744559e-9
-0.143, 1.0912486e-8, 2.0746040e-9
-0.144, 1.1016332e-8, 2.1544855e-9
-0.145, 1.1117781e-8, 2.1568818e-9
-0.146, 1.1168906e-8, 2.0841899e-9
-0.147, 1.1259171e-8, 2.1041604e-9
-0.148, 1.1426123e-8, 2.1808464e-9
-0.149, 1.1530767e-8, 2.1944262e-9
-0.150, 1.1652187e-8, 2.1496926e-9
-0.151, 1.1775204e-8, 2.2167930e-9
-0.152, 1.1930973e-8, 2.2215858e-9
-0.153, 1.2060380e-8, 2.2351656e-9
-0.154, 1.2199373e-8, 2.2367632e-9
-0.155, 1.2363129e-8, 2.2391595e-9
-0.156, 1.2518899e-8, 2.2743074e-9
-0.157, 1.2794489e-8, 2.3014668e-9
-0.158, 1.3015759e-8, 2.3430053e-9
-0.159, 1.3208273e-8, 2.3334197e-9
-0.160, 1.3491851e-8, 2.3422064e-9
-0.161, 1.3833744e-8, 2.3446027e-9
-0.162, 1.3963151e-8, 2.3893365e-9
-0.163, 1.4270694e-8, 2.3493958e-9
-0.164, 1.4629361e-8, 2.3366145e-9
-0.165, 1.4770750e-8, 2.3837448e-9
-0.166, 1.4972050e-8, 2.4021172e-9
-0.167, 1.5152583e-8, 2.3302242e-9
-0.168, 1.5288380e-8, 2.3446027e-9
-0.169, 1.5416989e-8, 2.3973246e-9
-0.170, 1.5534415e-8, 2.3605791e-9
-0.171, 1.5697372e-8, 2.3533897e-9
-0.172, 1.5792429e-8, 2.3789519e-9
-0.173, 1.5962579e-8, 2.3781530e-9
-0.174, 1.6135921e-8, 2.3941293e-9
-0.175, 1.6282103e-8, 2.3821471e-9
-0.176, 1.6438671e-8, 2.3541886e-9
-0.177, 1.6549704e-8, 2.3853421e-9
-0.178, 1.6664735e-8, 2.3845435e-9
-0.179, 1.6789349e-8, 2.4029161e-9
-0.180, 1.7001035e-8, 2.4021172e-9
-0.181, 1.7272631e-8, 2.3781530e-9
-0.182, 1.7653665e-8, 2.3541886e-9
-0.183, 1.8091413e-8, 2.3669697e-9
-0.184, 1.8512386e-8, 2.4077091e-9
-0.185, 1.9014042e-8, 2.3589817e-9
-0.186, 1.9467768e-8, 2.3589817e-9
-0.187, 1.9804865e-8, 2.3541886e-9
-0.188, 2.0083650e-8, 2.3501947e-9
-0.189, 2.0256994e-8, 2.3565849e-9
-0.190, 2.0453502e-8, 2.3525908e-9
-0.191, 2.0681961e-8, 2.3286268e-9
-0.192, 2.0872879e-8, 2.3493958e-9
-0.193, 2.1134889e-8, 2.3014668e-9
-0.194, 2.1303437e-8, 2.2910824e-9
-0.195, 2.1459204e-8, 2.2167930e-9
-0.196, 2.1706040e-8, 2.2104023e-9
-0.197, 2.2015978e-8, 2.1776512e-9
-0.198, 2.2497662e-8, 2.1369115e-9
-0.199, 2.3069610e-8, 2.1233320e-9
-0.200, 2.3786946e-8, 2.1057580e-9
-0.201, 2.4347711e-8, 2.0602258e-9
-0.202, 2.4757501e-8, 1.9867350e-9
-0.203, 2.5116169e-8, 1.9883326e-9
-0.204, 2.5364599e-8, 1.9220310e-9
-0.205, 2.5670543e-8, 1.8509370e-9
-0.206, 2.5955721e-8, 1.7726531e-9
-0.207, 2.6218530e-8, 1.7407007e-9
-0.208, 2.6415837e-8, 1.6959673e-9
-0.209, 2.6701013e-8, 1.6512337e-9
-0.210, 2.7186690e-8, 1.5673584e-9
-0.211, 2.7761036e-8, 1.4459390e-9
-0.212, 2.8667689e-8, 1.3916198e-9
-0.213, 2.9235645e-8, 1.3349040e-9
-0.214, 2.9748481e-8, 1.2606146e-9
-0.215, 3.0072002e-8, 1.2254668e-9
-0.216, 3.0347593e-8, 1.0904676e-9
-0.217, 3.0717441e-8, 1.0273613e-9
-0.218, 3.0999423e-8, 9.2511332e-10
-0.219, 3.1325335e-8, 7.9410811e-10
-0.220, 3.1660839e-8, 7.3100198e-10
-0.221, 3.2366192e-8, 6.3194922e-10
-0.222, 3.3381479e-8, 5.2650601e-10
-0.223, 3.4245797e-8, 4.4582596e-10
-0.224, 3.4815343e-8, 3.4916967e-10
-0.225, 3.5171617e-8, 2.4851929e-10
-0.226, 3.5537475e-8, 1.6144876e-10
-0.227, 3.5912915e-8, 7.0384150e-11
-0.228, 3.6295550e-8, -1.0295898e-11
-0.229, 3.6773233e-8, -1.2452606e-10
-0.230, 3.7909146e-8, -2.3476215e-10
-0.231, 3.8901273e-8, -3.5538283e-10
-0.232, 3.9667334e-8, -4.2567833e-10
-0.233, 4.0149814e-8, -5.1434645e-10
-0.234, 4.0612328e-8, -6.1100280e-10
-0.235, 4.1071651e-8, -7.0765904e-10
-0.236, 4.1618030e-8, -8.0351653e-10
-0.237, 4.2646107e-8, -9.3851582e-10
-0.238, 4.4139885e-8, -1.0767104e-9
-0.239, 4.4841240e-8, -1.2564431e-9
-0.240, 4.5404406e-8, -1.5376251e-9
-0.241, 4.5898869e-8, -1.8235999e-9
-0.242, 4.6339011e-8, -2.1670892e-9
-0.243, 4.7490904e-8, -2.6032407e-9
-0.244, 4.8919180e-8, -3.0338005e-9
-0.245, 4.9700418e-8, -3.4699521e-9
-0.246, 5.0350646e-8, -3.8661629e-9
-0.247, 5.0893043e-8, -4.1649186e-9
-0.248, 5.1662305e-8, -4.4325210e-9
-0.249, 5.3479596e-8, -4.6849458e-9
-0.250, 5.4513261e-8, -4.9749147e-9
-0.251, 5.5241777e-8, -5.2273395e-9
-0.252, 5.5825709e-8, -5.5005325e-9
-0.253, 5.6749133e-8, -5.7369816e-9
-0.254, 5.8623151e-8, -5.9598499e-9
-0.255, 5.9634445e-8, -6.2697891e-9
-0.256, 6.0386931e-8, -6.6691954e-9
-0.257, 6.1155383e-8, -7.1700508e-9
-0.258, 6.2965498e-8, -7.8857862e-9
-0.259, 6.4443299e-8, -8.5999252e-9
-0.260, 6.5315604e-8, -9.2749213e-9
-0.261, 6.6112818e-8, -9.7805701e-9
-0.262, 6.7962070e-8, -1.0128053e-8
-0.263, 6.9252955e-8, -1.0386069e-8
-0.264, 7.0022203e-8, -1.0684026e-8
-0.265, 7.1025511e-8, -1.1212042e-8
-0.266, 7.3199075e-8, -1.2047599e-8
-0.267, 7.4370135e-8, -1.2936678e-8
-0.268, 7.5275196e-8, -1.3682768e-8
-0.269, 7.6677914e-8, -1.4285073e-8
-0.270, 7.8857866e-8, -1.4772347e-8
-0.271, 7.9971407e-8, -1.5242849e-8
-0.272, 8.1026641e-8, -1.5652640e-8
-0.273, 8.3585242e-8, -1.6274912e-8
-0.274, 8.4662830e-8, -1.7163991e-8
-0.275, 8.5901796e-8, -1.8297506e-8
-0.276, 8.8379714e-8, -1.9329573e-8
-0.277, 8.9535590e-8, -1.9923089e-8
-0.278, 9.0888783e-8, -2.0360838e-8
-0.279, 9.3401034e-8, -2.1055007e-8
-0.280, 9.4647191e-8, -2.2272397e-8
-0.281, 9.6298336e-8, -2.3589639e-8
-0.282, 9.8685184e-8, -2.4437977e-8
-0.283, 9.9989656e-8, -2.5120961e-8
-0.284, 1.0271839e-7, -2.5832703e-8
-0.285, 1.0428726e-7, -2.6869561e-8
-0.286, 1.0626671e-7, -2.8530293e-8
-0.287, 1.0848181e-7, -2.9746085e-8
-0.288, 1.0974155e-7, -3.0147088e-8
-0.289, 1.1267959e-7, -3.0950694e-8
-0.290, 1.1426761e-7, -3.2699294e-8
-0.291, 1.1657459e-7, -3.3999761e-8
-0.292, 1.1888395e-7, -3.4836116e-8
-0.293, 1.2093291e-7, -3.5659692e-8
-0.294, 1.2376471e-7, -3.7254921e-8
-0.295, 1.2561475e-7, -3.8896481e-8
-0.296, 1.2838743e-7, -3.9854257e-8
-0.297, 1.3032934e-7, -4.0946233e-8
-0.298, 1.3329932e-7, -4.2960838e-8
-0.299, 1.3511503e-7, -4.4326008e-8
-0.300, 1.3821681e-7, -4.5324523e-8
-0.301, 1.4036561e-7, -4.6916558e-8
-0.302, 1.4358324e-7, -4.8993467e-8
-0.303, 1.4605077e-7, -4.9929675e-8
-0.304, 1.4859259e-7, -5.1663896e-8
-0.305, 1.5202747e-7, -5.3703264e-8
-0.306, 1.5379925e-7, -5.4843973e-8
-0.307, 1.5741865e-7, -5.6644492e-8
-0.308, 1.5970805e-7, -5.8839632e-8
-0.309, 1.6303272e-7, -5.9975541e-8
-0.310, 1.6610575e-7, -6.2357600e-8
-0.311, 1.6847741e-7, -6.4117387e-8
-0.312, 1.7221585e-7, -6.5560833e-8
-0.313, 1.7467460e-7, -6.8398215e-8
-0.314, 1.7797052e-7, -6.9416700e-8
-0.315, 1.8184954e-7, -7.1853883e-8
-0.316, 1.8429310e-7, -7.3742278e-8
-0.317, 1.8773999e-7, -7.5268005e-8
-0.318, 1.9167334e-7, -7.8029501e-8
-0.319, 1.9433656e-7, -7.9579991e-8
-0.320, 1.9766682e-7, -8.2422169e-8
-0.321, 2.0184302e-7, -8.4110859e-8
-0.322, 2.0509017e-7, -8.6654268e-8
-0.323, 2.0807614e-7, -8.8746368e-8
-0.324, 2.1212293e-7, -9.1155584e-8
-0.325, 2.1613297e-7, -9.3494506e-8
-0.326, 2.1959501e-7, -9.5612158e-8
-0.327, 2.2274794e-7, -9.8392825e-8
-0.328, 2.2684024e-7, -1.0081562e-7
-0.329, 2.3092856e-7, -1.0337901e-7
-0.330, 2.3455118e-7, -1.0590964e-7
-0.331, 2.3798847e-7, -1.0843469e-7
-0.332, 2.4186431e-7, -1.1103483e-7
-0.333, 2.4614116e-7, -1.1337774e-7
-0.334, 2.5038523e-7, -1.1640524e-7
-0.335, 2.5417799e-7, -1.1872019e-7
-0.336, 2.5787571e-7, -1.2213832e-7
-0.337, 2.6186339e-7, -1.2448763e-7
-0.338, 2.6604596e-7, -1.2777554e-7
-0.339, 2.7035156e-7, -1.3042281e-7
-0.340, 2.7468192e-7, -1.3308205e-7
-0.341, 2.7938452e-7, -1.3632841e-7
-0.342, 2.8339537e-7, -1.3864178e-7
-0.343, 2.8870747e-7, -1.4223563e-7
-0.344, 2.9246826e-7, -1.4474151e-7
-0.345, 2.9650786e-7, -1.4784490e-7
-0.346, 3.0095566e-7, -1.5145552e-7
-0.347, 3.0537868e-7, -1.5374812e-7
-0.348, 3.0980090e-7, -1.5724453e-7
-0.349, 3.1417841e-7, -1.6045097e-7
-0.350, 3.1869968e-7, -1.6307904e-7
-0.351, 3.2283515e-7, -1.6678474e-7
-0.352, 3.2685872e-7, -1.6974593e-7
-0.353, 3.3101097e-7, -1.7257373e-7
-0.354, 3.3527502e-7, -1.7635371e-7
-0.355, 3.3989215e-7, -1.7916393e-7
-0.356, 3.4434953e-7, -1.8235679e-7
-0.357, 3.4896189e-7, -1.8625498e-7
-0.358, 3.5343282e-7, -1.8900690e-7
-0.359, 3.5798368e-7, -1.9204398e-7
-0.360, 3.6234439e-7, -1.9585192e-7
-0.361, 3.6641990e-7, -1.9872125e-7
-0.362, 3.7062568e-7, -2.0198441e-7
-0.363, 3.7494726e-7, -2.0584028e-7
-0.364, 3.7941658e-7, -2.0884460e-7
-0.365, 3.8362711e-7, -2.1183136e-7
-0.366, 3.8821389e-7, -2.1569683e-7
-0.367, 3.9275994e-7, -2.1888168e-7
-0.368, 3.9724452e-7, -2.2181332e-7
-0.369, 4.0156206e-7, -2.2573309e-7
-0.370, 4.0546189e-7, -2.2892435e-7
-0.371, 4.0947191e-7, -2.3158121e-7
-0.372, 4.1374079e-7, -2.3541870e-7
-0.373, 4.1813342e-7, -2.3867705e-7
-0.374, 4.2243983e-7, -2.4145211e-7
-0.375, 4.2686605e-7, -2.4523212e-7
-0.376, 4.3122759e-7, -2.4843052e-7
-0.377, 4.3541334e-7, -2.5117768e-7
-0.378, 4.3935069e-7, -2.5497442e-7
-0.379, 4.4313865e-7, -2.5826154e-7
-0.380, 4.4735160e-7, -2.6092394e-7
-0.381, 4.5168915e-7, -2.6483735e-7
-0.382, 4.5611779e-7, -2.6755652e-7
-0.383, 4.5999360e-7, -2.7035395e-7
-0.384, 4.6373125e-7, -2.7405804e-7
-0.385, 4.6744569e-7, -2.7687946e-7
-0.386, 4.7164667e-7, -2.8077605e-7
-0.387, 4.7596583e-7, -2.8437867e-7
-0.388, 4.8005819e-7, -2.8804763e-7
-0.389, 4.8332771e-7, -2.9043051e-7
-0.390, 4.8688241e-7, -2.9404993e-7
-0.391, 4.9110014e-7, -2.9674592e-7
-0.392, 4.9532986e-7, -2.9978142e-7
-0.393, 4.9887416e-7, -3.0335607e-7
-0.394, 5.0193921e-7, -3.0543538e-7
-0.395, 5.0598442e-7, -3.0870333e-7
-0.396, 5.1007032e-7, -3.1116767e-7
-0.397, 5.1361303e-7, -3.1404736e-7
-0.398, 5.1668451e-7, -3.1719790e-7
-0.399, 5.2058192e-7, -3.1939703e-7
-0.400, 5.2464867e-7, -3.2282475e-7
-0.401, 5.2786385e-7, -3.2475467e-7
-0.402, 5.3093214e-7, -3.2815441e-7
-0.403, 5.3495421e-7, -3.3021217e-7
-0.404, 5.3865028e-7, -3.3336985e-7
-0.405, 5.4114497e-7, -3.3568963e-7
-0.406, 5.4490255e-7, -3.3847508e-7
-0.407, 5.4859947e-7, -3.4100410e-7
-0.408, 5.5115083e-7, -3.4350040e-7
-0.409, 5.5486061e-7, -3.4610454e-7
-0.410, 5.5857828e-7, -3.4839553e-7
-0.411, 5.6092591e-7, -3.5101644e-7
-0.412, 5.6446868e-7, -3.5327787e-7
-0.413, 5.6795147e-7, -3.5586442e-7
-0.414, 5.7039182e-7, -3.5814023e-7
-0.415, 5.7396574e-7, -3.6043360e-7
-0.416, 5.7716500e-7, -3.6293230e-7
-0.417, 5.7955901e-7, -3.6487822e-7
-0.418, 5.8315288e-7, -3.6758618e-7
-0.419, 5.8524017e-7, -3.6926448e-7
-0.420, 5.8882927e-7, -3.7216577e-7
-0.421, 5.9184873e-7, -3.7362440e-7
-0.422, 5.9411178e-7, -3.7652413e-7
-0.423, 5.9766893e-7, -3.7811932e-7
-0.424, 5.9927135e-7, -3.8063638e-7
-0.425, 6.0286362e-7, -3.8257750e-7
-0.426, 6.0465857e-7, -3.8416951e-7
-0.427, 6.0805991e-7, -3.8669697e-7
-0.428, 6.1023661e-7, -3.8794553e-7
-0.429, 6.1340228e-7, -3.9045696e-7
-0.430, 6.1596171e-7, -3.9225191e-7
-0.431, 6.1826313e-7, -3.9385114e-7
-0.432, 6.2100696e-7, -3.9639212e-7
-0.433, 6.2323488e-7, -3.9763671e-7
-0.434, 6.2574873e-7, -3.9987418e-7
-0.435, 6.2811796e-7, -4.0180569e-7
-0.436, 6.3070217e-7, -4.0290567e-7
-0.437, 6.3295323e-7, -4.0533166e-7
-0.438, 6.3504615e-7, -4.0689335e-7
-0.439, 6.3764634e-7, -4.0820740e-7
-0.440, 6.3915206e-7, -4.1059744e-7
-0.441, 6.4231369e-7, -4.1194900e-7
-0.442, 6.4367327e-7, -4.1345481e-7
-0.443, 6.4685901e-7, -4.1579372e-7
-0.444, 6.4816339e-7, -4.1692164e-7
-0.445, 6.5107031e-7, -4.1839144e-7
-0.446, 6.5281966e-7, -4.2094445e-7
-0.447, 6.5479514e-7, -4.2180397e-7
-0.448, 6.5704540e-7, -4.2292311e-7
-0.449, 6.5831307e-7, -4.2513182e-7
-0.450, 6.6124642e-7, -4.2646744e-7
-0.451, 6.6255649e-7, -4.2747473e-7
-0.452, 6.6431625e-7, -4.2961557e-7
-0.453, 6.6672624e-7, -4.3111814e-7
-0.454, 6.6785975e-7, -4.3210383e-7
-0.455, 6.7044709e-7, -4.3400905e-7
-0.456, 6.7210942e-7, -4.3581676e-7
-0.457, 6.7313113e-7, -4.3676255e-7
-0.458, 6.7582556e-7, -4.3826432e-7
-0.459, 6.7710204e-7, -4.4026135e-7
-0.460, 6.7816205e-7, -4.4131019e-7
-0.461, 6.8075417e-7, -4.4221923e-7
-0.462, 6.8202746e-7, -4.4419070e-7
-0.463, 6.8308753e-7, -4.4573798e-7
-0.464, 6.8552225e-7, -4.4648809e-7
-0.465, 6.8675081e-7, -4.4776220e-7
-0.466, 6.8766627e-7, -4.4977119e-7
-0.467, 6.8995325e-7, -4.5093668e-7
-0.468, 6.9140401e-7, -4.5169395e-7
-0.469, 6.9223472e-7, -4.5333709e-7
-0.470, 6.9378916e-7, -4.5514241e-7
-0.471, 6.9573349e-7, -4.5610258e-7
-0.472, 6.9649644e-7, -4.5707472e-7
-0.473, 6.9728321e-7, -4.5871232e-7
-0.474, 6.9893838e-7, -4.6051281e-7
-0.475, 7.0071889e-7, -4.6112871e-7
-0.476, 7.0146018e-7, -4.6233413e-7
-0.477, 7.0212320e-7, -4.6424088e-7
-0.478, 7.0367690e-7, -4.6542232e-7
-0.479, 7.0547827e-7, -4.6613806e-7
-0.480, 7.0623548e-7, -4.6730750e-7
-0.481, 7.0692090e-7, -4.6924623e-7
-0.482, 7.0800087e-7, -4.7043966e-7
-0.483, 7.0991643e-7, -4.7110828e-7
-0.484, 7.1083343e-7, -4.7247426e-7
-0.485, 7.1146292e-7, -4.7435944e-7
-0.486, 7.1205807e-7, -4.7540826e-7
-0.487, 7.1347586e-7, -4.7615200e-7
-0.488, 7.1505042e-7, -4.7739411e-7
-0.489, 7.1567746e-7, -4.7937277e-7
-0.490, 7.1627977e-7, -4.8039931e-7
-0.491, 7.1682217e-7, -4.8110144e-7
-0.492, 7.1782938e-7, -4.8257044e-7
-0.493, 7.1927849e-7, -4.8437494e-7
-0.494, 7.2036647e-7, -4.8529995e-7
-0.495, 7.2092882e-7, -4.8608598e-7
-0.496, 7.2147600e-7, -4.8758062e-7
-0.497, 7.2202158e-7, -4.8940507e-7
-0.498, 7.2328294e-7, -4.9026937e-7
-0.499, 7.2445641e-7, -4.9092517e-7
