Jan. 28, 2006   01:20:40
Cyclic Voltammetry
File: z:\users\scottsaunders\git\labwork\ida\01_17_19_psoralen_nonequil_2\data\psoralen\2\75um_psoralen_transfer_2_gc_2.txt
Data Source:  Experiment
Instrument Model:  CHI760E
Header: 
Note: 

Init E (V) = 0
High E (V) = 0
Low E (V) = -0.4
Init P/N = N
Scan Rate (V/s) = 0.003
Segment = 1
Sample Interval (V) = 0.001
Quiet Time (sec) = 2
Sensitivity (A/V) = 1e-7
2nd E (V) = 0
Sens 2 (A/V) = 1e-7

Potential/V, i1/A, i2/A, Time/s

0.000, -2.7046758e-8, -3.2464992e-8, 3.3333334e-1
-0.001, -2.2130227e-8, -2.9145452e-8, 6.6666669e-1
-0.002, -1.9522030e-8, -2.6519887e-8, 1.0000000e+0
-0.003, -1.7483325e-8, -2.4382656e-8, 1.3333334e+0
-0.004, -1.5785707e-8, -2.2599503e-8, 1.6666667e+0
-0.005, -1.4368700e-8, -2.1068196e-8, 2.0000000e+0
-0.006, -1.3128966e-8, -1.9775269e-8, 2.3333333e+0
-0.007, -1.2053752e-8, -1.8645908e-8, 2.6666665e+0
-0.008, -1.1110578e-8, -1.7651393e-8, 2.9999998e+0
-0.009, -1.0246296e-8, -1.6766316e-8, 3.3333330e+0
-0.010, -9.5083852e-9, -1.5971533e-8, 3.6666663e+0
-0.011, -8.8028340e-9, -1.5260303e-8, 3.9999995e+0
-0.012, -8.1564542e-9, -1.4609348e-8, 4.3333330e+0
-0.013, -7.5925097e-9, -1.4022921e-8, 4.6666665e+0
-0.014, -7.0356521e-9, -1.3483532e-8, 5.0000000e+0
-0.015, -6.5307595e-9, -1.2996142e-8, 5.3333335e+0
-0.016, -6.0733440e-9, -1.2544089e-8, 5.6666670e+0
-0.017, -5.6188814e-9, -1.2122766e-8, 6.0000005e+0
-0.018, -5.2276050e-9, -1.1739377e-8, 6.3333340e+0
-0.019, -4.8308952e-9, -1.1386009e-8, 6.6666675e+0
-0.020, -4.4527275e-9, -1.1051196e-8, 7.0000010e+0
-0.021, -4.1324308e-9, -1.0732218e-8, 7.3333344e+0
-0.022, -3.7823722e-9, -1.0431204e-8, 7.6666679e+0
-0.023, -3.4990415e-9, -1.0161864e-8, 8.0000010e+0
-0.024, -3.2048457e-9, -9.9102513e-9, 8.3333340e+0
-0.025, -2.9048628e-9, -9.6692752e-9, 8.6666670e+0
-0.026, -2.6620419e-9, -9.4428358e-9, 9.0000000e+0
-0.027, -2.3917031e-9, -9.2219503e-9, 9.3333330e+0
-0.028, -2.1240805e-9, -9.0235197e-9, 9.6666660e+0
-0.029, -1.9162183e-9, -8.8320631e-9, 9.9999990e+0
-0.030, -1.6626498e-9, -8.6479330e-9, 1.0333332e+1
-0.031, -1.4357729e-9, -8.4713667e-9, 1.0666665e+1
-0.032, -1.2301548e-9, -8.3104004e-9, 1.0999998e+1
-0.033, -1.0024511e-9, -8.1457703e-9, 1.1333331e+1
-0.034, -8.1962692e-10, -7.9970954e-9, 1.1666664e+1
-0.035, -6.1719746e-10, -7.8466487e-9, 1.1999997e+1
-0.036, -4.1382317e-10, -7.7106197e-9, 1.2333330e+1
-0.037, -2.4186445e-10, -7.5725808e-9, 1.2666663e+1
-0.038, -5.9394510e-11, -7.4454154e-9, 1.2999996e+1
-0.039, 1.2189441e-10, -7.3203767e-9, 1.3333329e+1
-0.040, 2.9196348e-10, -7.1967565e-9, 1.3666662e+1
-0.041, 4.8175586e-10, -7.0812911e-9, 1.3999995e+1
-0.042, 6.2749561e-10, -6.9673627e-9, 1.4333328e+1
-0.043, 7.9910001e-10, -6.8620607e-9, 1.4666661e+1
-0.044, 9.7613717e-10, -6.7545138e-9, 1.4999994e+1
-0.045, 1.1197511e-9, -6.6602031e-9, 1.5333327e+1
-0.046, 1.2836787e-9, -6.5655388e-9, 1.5666660e+1
-0.047, 1.4543383e-9, -6.4707546e-9, 1.5999993e+1
-0.048, 1.5840160e-9, -6.3808172e-9, 1.6333326e+1
-0.049, 1.7651869e-9, -6.2958434e-9, 1.6666660e+1
-0.050, 1.8915578e-9, -6.2096874e-9, 1.6999994e+1
-0.051, 2.0432025e-9, -6.1370051e-9, 1.7333328e+1
-0.052, 2.2230742e-9, -6.0439942e-9, 1.7666662e+1
-0.053, 2.3244071e-9, -5.9753296e-9, 1.7999996e+1
-0.054, 2.4707374e-9, -5.9004015e-9, 1.8333330e+1
-0.055, 2.6195477e-9, -5.8333911e-9, 1.8666664e+1
-0.056, 2.7603273e-9, -5.7551532e-9, 1.8999998e+1
-0.057, 2.9164602e-9, -5.6914526e-9, 1.9333332e+1
-0.058, 3.0466103e-9, -5.6230243e-9, 1.9666666e+1
-0.059, 3.1879801e-9, -5.5623963e-9, 2.0000000e+1
-0.060, 3.3340741e-9, -5.5002318e-9, 2.0333334e+1
-0.061, 3.4382410e-9, -5.4446856e-9, 2.0666668e+1
-0.062, 3.5914216e-9, -5.3779119e-9, 2.1000002e+1
-0.063, 3.7179106e-9, -5.3226019e-9, 2.1333336e+1
-0.064, 3.8184167e-9, -5.2711919e-9, 2.1666670e+1
-0.065, 3.9676995e-9, -5.2225002e-9, 2.2000004e+1
-0.066, 4.0553325e-9, -5.1745177e-9, 2.2333338e+1
-0.067, 4.1737898e-9, -5.1188533e-9, 2.2666672e+1
-0.068, 4.2907127e-9, -5.0822164e-9, 2.3000006e+1
-0.069, 4.3730308e-9, -5.0343520e-9, 2.3333340e+1
-0.070, 4.4846384e-9, -4.9910969e-9, 2.3666674e+1
-0.071, 4.5919948e-9, -4.9444147e-9, 2.4000008e+1
-0.072, 4.6856510e-9, -4.9058868e-9, 2.4333342e+1
-0.073, 4.8039905e-9, -4.8570770e-9, 2.4666676e+1
-0.074, 4.8819389e-9, -4.8150035e-9, 2.5000010e+1
-0.075, 5.0005151e-9, -4.7852211e-9, 2.5333344e+1
-0.076, 5.1079891e-9, -4.7549662e-9, 2.5666677e+1
-0.077, 5.1975113e-9, -4.6962287e-9, 2.6000011e+1
-0.078, 5.3088831e-9, -4.6747197e-9, 2.6333345e+1
-0.079, 5.4201368e-9, -4.6364277e-9, 2.6666679e+1
-0.080, 5.5046989e-9, -4.5966004e-9, 2.7000013e+1
-0.081, 5.6340221e-9, -4.5633906e-9, 2.7333347e+1
-0.082, 5.7189387e-9, -4.5287627e-9, 2.7666681e+1
-0.083, 5.8233418e-9, -4.5018167e-9, 2.8000015e+1
-0.084, 5.9388476e-9, -4.4733346e-9, 2.8333349e+1
-0.085, 6.0288423e-9, -4.4305524e-9, 2.8666683e+1
-0.086, 6.1319470e-9, -4.4060884e-9, 2.9000017e+1
-0.087, 6.2437904e-9, -4.3817430e-9, 2.9333351e+1
-0.088, 6.3314229e-9, -4.3539692e-9, 2.9666685e+1
-0.089, 6.4528338e-9, -4.3248964e-9, 3.0000019e+1
-0.090, 6.5081061e-9, -4.2942867e-9, 3.0333353e+1
-0.091, 6.6208954e-9, -4.2692316e-9, 3.0666687e+1
-0.092, 6.7256525e-9, -4.2485495e-9, 3.1000021e+1
-0.093, 6.7895471e-9, -4.2169948e-9, 3.1333355e+1
-0.094, 6.8895809e-9, -4.2008037e-9, 3.1666689e+1
-0.095, 6.9762685e-9, -4.1839034e-9, 3.2000023e+1
-0.096, 7.0579960e-9, -4.1580210e-9, 3.2333355e+1
-0.097, 7.1651161e-9, -4.1293022e-9, 3.2666687e+1
-0.098, 7.2415292e-9, -4.1101567e-9, 3.3000019e+1
-0.099, 7.3325865e-9, -4.0888835e-9, 3.3333351e+1
-0.100, 7.4541155e-9, -4.0619379e-9, 3.3666683e+1
-0.101, 7.5429298e-9, -4.0456283e-9, 3.4000015e+1
-0.102, 7.6787483e-9, -4.0267190e-9, 3.4333347e+1
-0.103, 7.7959079e-9, -4.0061550e-9, 3.4666679e+1
-0.104, 7.8954683e-9, -3.9854733e-9, 3.5000011e+1
-0.105, 8.0319964e-9, -3.9657362e-9, 3.5333344e+1
-0.106, 8.1410061e-9, -3.9450545e-9, 3.5666676e+1
-0.107, 8.2932408e-9, -3.9231902e-9, 3.6000008e+1
-0.108, 8.4543341e-9, -3.9051082e-9, 3.6333340e+1
-0.109, 8.5782244e-9, -3.8951811e-9, 3.6666672e+1
-0.110, 8.7423881e-9, -3.8666985e-9, 3.7000004e+1
-0.111, 8.8981675e-9, -3.8507442e-9, 3.7333336e+1
-0.112, 9.0285539e-9, -3.8441255e-9, 3.7666668e+1
-0.113, 9.2080708e-9, -3.8234433e-9, 3.8000000e+1
-0.114, 9.3502681e-9, -3.8081978e-9, 3.8333332e+1
-0.115, 9.5009680e-9, -3.7940158e-9, 3.8666664e+1
-0.116, 9.6739896e-9, -3.7813703e-9, 3.8999996e+1
-0.117, 9.8061470e-9, -3.7584420e-9, 3.9333328e+1
-0.118, 9.9616893e-9, -3.7428420e-9, 3.9666660e+1
-0.119, 1.0109082e-8, -3.7322057e-9, 3.9999992e+1
-0.120, 1.0241950e-8, -3.7182599e-9, 4.0333324e+1
-0.121, 1.0391114e-8, -3.7044325e-9, 4.0666656e+1
-0.122, 1.0512407e-8, -3.6971051e-9, 4.0999989e+1
-0.123, 1.0662398e-8, -3.6770140e-9, 4.1333321e+1
-0.124, 1.0832231e-8, -3.6649590e-9, 4.1666653e+1
-0.125, 1.0963443e-8, -3.6529046e-9, 4.1999985e+1
-0.126, 1.1150283e-8, -3.6369499e-9, 4.2333317e+1
-0.127, 1.1340431e-8, -3.6277312e-9, 4.2666649e+1
-0.128, 1.1526915e-8, -3.6087040e-9, 4.2999981e+1
-0.129, 1.1760524e-8, -3.6001948e-9, 4.3333313e+1
-0.130, 1.1964607e-8, -3.5919219e-9, 4.3666645e+1
-0.131, 1.2169399e-8, -3.5837668e-9, 4.3999977e+1
-0.132, 1.2421904e-8, -3.5699397e-9, 4.4333309e+1
-0.133, 1.2634373e-8, -3.5630852e-9, 4.4666641e+1
-0.134, 1.2871880e-8, -3.5528032e-9, 4.4999973e+1
-0.135, 1.3092378e-8, -3.5461847e-9, 4.5333305e+1
-0.136, 1.3292327e-8, -3.5360210e-9, 4.5666637e+1
-0.137, 1.3522629e-8, -3.5263301e-9, 4.5999969e+1
-0.138, 1.3695769e-8, -3.5168752e-9, 4.6333302e+1
-0.139, 1.3902450e-8, -3.5036385e-9, 4.6666634e+1
-0.140, 1.4113856e-8, -3.4992662e-9, 4.6999966e+1
-0.141, 1.4271876e-8, -3.4954839e-9, 4.7333298e+1
-0.142, 1.4482221e-8, -3.4722019e-9, 4.7666630e+1
-0.143, 1.4654296e-8, -3.4755112e-9, 4.7999962e+1
-0.144, 1.4820231e-8, -3.4758658e-9, 4.8333294e+1
-0.145, 1.5027505e-8, -3.4644017e-9, 4.8666626e+1
-0.146, 1.5184463e-8, -3.4517560e-9, 4.8999958e+1
-0.147, 1.5368350e-8, -3.4475014e-9, 4.9333290e+1
-0.148, 1.5557315e-8, -3.4454923e-9, 4.9666622e+1
-0.149, 1.5711677e-8, -3.4415923e-9, 4.9999954e+1
-0.150, 1.5902650e-8, -3.4319014e-9, 5.0333286e+1
-0.151, 1.6081223e-8, -3.4317829e-9, 5.0666618e+1
-0.152, 1.6255900e-8, -3.4333196e-9, 5.0999950e+1
-0.153, 1.6458918e-8, -3.4313101e-9, 5.1333282e+1
-0.154, 1.6637253e-8, -3.4288283e-9, 5.1666615e+1
-0.155, 1.6849606e-8, -3.4255192e-9, 5.1999947e+1
-0.156, 1.7096205e-8, -3.4257557e-9, 5.2333279e+1
-0.157, 1.7311036e-8, -3.4245742e-9, 5.2666611e+1
-0.158, 1.7591768e-8, -3.4235101e-9, 5.2999943e+1
-0.159, 1.7887970e-8, -3.4172465e-9, 5.3333275e+1
-0.160, 1.8169708e-8, -3.4183103e-9, 5.3666607e+1
-0.161, 1.8489532e-8, -3.4231560e-9, 5.3999939e+1
-0.162, 1.8784791e-8, -3.4181920e-9, 5.4333271e+1
-0.163, 1.9109338e-8, -3.4252829e-9, 5.4666603e+1
-0.164, 1.9461465e-8, -3.4290650e-9, 5.4999935e+1
-0.165, 1.9792331e-8, -3.4320196e-9, 5.5333267e+1
-0.166, 2.0146995e-8, -3.4362742e-9, 5.5666599e+1
-0.167, 2.0501661e-8, -3.4427741e-9, 5.5999931e+1
-0.168, 2.0847173e-8, -3.4458469e-9, 5.6333263e+1
-0.169, 2.1214595e-8, -3.4439560e-9, 5.6666595e+1
-0.170, 2.1531523e-8, -3.4498651e-9, 5.6999928e+1
-0.171, 2.1879632e-8, -3.4536469e-9, 5.7333260e+1
-0.172, 2.2210974e-8, -3.4592014e-9, 5.7666592e+1
-0.173, 2.2502748e-8, -3.4580196e-9, 5.7999924e+1
-0.174, 2.2798657e-8, -3.4628653e-9, 5.8333256e+1
-0.175, 2.3074429e-8, -3.4693655e-9, 5.8666588e+1
-0.176, 2.3323746e-8, -3.4681837e-9, 5.8999920e+1
-0.177, 2.3592609e-8, -3.4874472e-9, 5.9333252e+1
-0.178, 2.3814582e-8, -3.4986749e-9, 5.9666584e+1
-0.179, 2.4029296e-8, -3.5060022e-9, 5.9999916e+1
-0.180, 2.4244894e-8, -3.5153385e-9, 6.0333248e+1
-0.181, 2.4388212e-8, -3.5312937e-9, 6.0666580e+1
-0.182, 2.4560290e-8, -3.5400394e-9, 6.0999912e+1
-0.183, 2.4724571e-8, -3.5512664e-9, 6.1333244e+1
-0.184, 2.4861395e-8, -3.5634400e-9, 6.1666576e+1
-0.185, 2.5020302e-8, -3.5896759e-9, 6.1999908e+1
-0.186, 2.5148976e-8, -3.6053944e-9, 6.2333241e+1
-0.187, 2.5302153e-8, -3.6165038e-9, 6.2666573e+1
-0.188, 2.5485216e-8, -3.6401406e-9, 6.2999905e+1
-0.189, 2.5629008e-8, -3.6558592e-9, 6.3333237e+1
-0.190, 2.5871474e-8, -3.6825687e-9, 6.3666569e+1
-0.191, 2.6142109e-8, -3.7071508e-9, 6.3999901e+1
-0.192, 2.6456089e-8, -3.7353969e-9, 6.4333237e+1
-0.193, 2.6869685e-8, -3.7519423e-9, 6.4666573e+1
-0.194, 2.7290783e-8, -3.7860972e-9, 6.4999908e+1
-0.195, 2.7764733e-8, -3.8187160e-9, 6.5333244e+1
-0.196, 2.8276951e-8, -3.8477892e-9, 6.5666580e+1
-0.197, 2.8779125e-8, -3.8869081e-9, 6.5999916e+1
-0.198, 2.9312242e-8, -3.9207082e-9, 6.6333252e+1
-0.199, 2.9818139e-8, -3.9580543e-9, 6.6666588e+1
-0.200, 3.0288017e-8, -4.0030823e-9, 6.6999924e+1
-0.201, 3.0757654e-8, -4.0478740e-9, 6.7333260e+1
-0.202, 3.1154066e-8, -4.0904200e-9, 6.7666595e+1
-0.203, 3.1562532e-8, -4.1352117e-9, 6.7999931e+1
-0.204, 3.1960539e-8, -4.1885126e-9, 6.8333267e+1
-0.205, 3.2366518e-8, -4.2420494e-9, 6.8666603e+1
-0.206, 3.2745572e-8, -4.3105959e-9, 6.8999939e+1
-0.207, 3.3178242e-8, -4.3677972e-9, 6.9333275e+1
-0.208, 3.3642035e-8, -4.4345705e-9, 6.9666611e+1
-0.209, 3.4167126e-8, -4.5125721e-9, 6.9999947e+1
-0.210, 3.4679104e-8, -4.5882094e-9, 7.0333282e+1
-0.211, 3.5236848e-8, -4.6715285e-9, 7.0666618e+1
-0.212, 3.5816971e-8, -4.7630029e-9, 7.0999954e+1
-0.213, 3.6364739e-8, -4.8639315e-9, 7.1333290e+1
-0.214, 3.6974917e-8, -4.9595421e-9, 7.1666626e+1
-0.215, 3.7603641e-8, -5.0745346e-9, 7.1999962e+1
-0.216, 3.8274294e-8, -5.1937818e-9, 7.2333298e+1
-0.217, 3.9016811e-8, -5.3144475e-9, 7.2666634e+1
-0.218, 3.9761513e-8, -5.4537854e-9, 7.2999969e+1
-0.219, 4.0599339e-8, -5.5973786e-9, 7.3333305e+1
-0.220, 4.1461551e-8, -5.7481806e-9, 7.3666641e+1
-0.221, 4.2294300e-8, -5.9128102e-9, 7.3999977e+1
-0.222, 4.3195080e-8, -6.0889045e-9, 7.4333313e+1
-0.223, 4.4042118e-8, -6.2821344e-9, 7.4666649e+1
-0.224, 4.4903857e-8, -6.4694556e-9, 7.4999985e+1
-0.225, 4.5737316e-8, -6.6899859e-9, 7.5333321e+1
-0.226, 4.6506880e-8, -6.9160708e-9, 7.5666656e+1
-0.227, 4.7266461e-8, -7.1650841e-9, 7.5999992e+1
-0.228, 4.8032891e-8, -7.4207152e-9, 7.6333328e+1
-0.229, 4.8741160e-8, -7.6897004e-9, 7.6666664e+1
-0.230, 4.9447596e-8, -7.9791320e-9, 7.7000000e+1
-0.231, 5.0145232e-8, -8.2823908e-9, 7.7333336e+1
-0.232, 5.0878896e-8, -8.5960501e-9, 7.7666672e+1
-0.233, 5.1707687e-8, -8.9387822e-9, 7.8000008e+1
-0.234, 5.2574624e-8, -9.2941601e-9, 7.8333344e+1
-0.235, 5.3607732e-8, -9.6695114e-9, 7.8666679e+1
-0.236, 5.4776489e-8, -1.0067672e-8, 7.9000015e+1
-0.237, 5.6053068e-8, -1.0481905e-8, 7.9333351e+1
-0.238, 5.7489974e-8, -1.0915048e-8, 7.9666687e+1
-0.239, 5.9022959e-8, -1.1371236e-8, 8.0000023e+1
-0.240, 6.0632296e-8, -1.1841607e-8, 8.0333359e+1
-0.241, 6.2357202e-8, -1.2325923e-8, 8.0666695e+1
-0.242, 6.4085057e-8, -1.2832576e-8, 8.1000031e+1
-0.243, 6.5854358e-8, -1.3358374e-8, 8.1333366e+1
-0.244, 6.7674392e-8, -1.3891028e-8, 8.1666702e+1
-0.245, 6.9477124e-8, -1.4460437e-8, 8.2000038e+1
-0.246, 7.1352204e-8, -1.5037054e-8, 8.2333374e+1
-0.247, 7.3241146e-8, -1.5627144e-8, 8.2666710e+1
-0.248, 7.5102044e-8, -1.6239571e-8, 8.3000046e+1
-0.249, 7.6960752e-8, -1.6855898e-8, 8.3333382e+1
-0.250, 7.8747362e-8, -1.7492908e-8, 8.3666718e+1
-0.251, 8.0505757e-8, -1.8144217e-8, 8.4000053e+1
-0.252, 8.2201836e-8, -1.8790329e-8, 8.4333389e+1
-0.253, 8.3802377e-8, -1.9457355e-8, 8.4666725e+1
-0.254, 8.5427473e-8, -2.0144121e-8, 8.5000061e+1
-0.255, 8.7021348e-8, -2.0836440e-8, 8.5333397e+1
-0.256, 8.8605056e-8, -2.1535850e-8, 8.5666733e+1
-0.257, 9.0230337e-8, -2.2231715e-8, 8.6000069e+1
-0.258, 9.1827452e-8, -2.2950507e-8, 8.6333405e+1
-0.259, 9.3557667e-8, -2.3644954e-8, 8.6666740e+1
-0.260, 9.5364413e-8, -2.4349800e-8, 8.7000076e+1
-0.261, 9.7173704e-8, -2.5047321e-8, 8.7333412e+1
-0.262, 9.9045465e-8, -2.5742239e-8, 8.7666748e+1
-0.263, 1.0095574e-7, -2.6418132e-8, 8.8000084e+1
-0.264, 1.0286918e-7, -2.7097331e-8, 8.8333420e+1
-0.265, 1.0480579e-7, -2.7756444e-8, 8.8666756e+1
-0.266, 1.0666457e-7, -2.8411177e-8, 8.9000092e+1
-0.267, 1.0854566e-7, -2.9040388e-8, 8.9333427e+1
-0.268, 1.1040672e-7, -2.9669241e-8, 8.9666763e+1
-0.269, 1.1216346e-7, -3.0274105e-8, 9.0000099e+1
-0.270, 1.1389734e-7, -3.0874716e-8, 9.0333435e+1
-0.271, 1.1558834e-7, -3.1442706e-8, 9.0666771e+1
-0.272, 1.1718546e-7, -3.2001477e-8, 9.1000107e+1
-0.273, 1.1874230e-7, -3.2540513e-8, 9.1333443e+1
-0.274, 1.2018482e-7, -3.3059102e-8, 9.1666779e+1
-0.275, 1.2157767e-7, -3.3567765e-8, 9.2000114e+1
-0.276, 1.2289109e-7, -3.4053379e-8, 9.2333450e+1
-0.277, 1.2411624e-7, -3.4528359e-8, 9.2666786e+1
-0.278, 1.2530757e-7, -3.4982182e-8, 9.3000122e+1
-0.279, 1.2648842e-7, -3.5419699e-8, 9.3333458e+1
-0.280, 1.2761329e-7, -3.5859461e-8, 9.3666794e+1
-0.281, 1.2868844e-7, -3.6274404e-8, 9.4000130e+1
-0.282, 1.2965177e-7, -3.6672091e-8, 9.4333466e+1
-0.283, 1.3059481e-7, -3.7062808e-8, 9.4666801e+1
-0.284, 1.3148177e-7, -3.7440284e-8, 9.5000137e+1
-0.285, 1.3225434e-7, -3.7807364e-8, 9.5333473e+1
-0.286, 1.3304351e-7, -3.8158955e-8, 9.5666809e+1
-0.287, 1.3383976e-7, -3.8493891e-8, 9.6000145e+1
-0.288, 1.3463047e-7, -3.8830358e-8, 9.6333481e+1
-0.289, 1.3539820e-7, -3.9147565e-8, 9.6666817e+1
-0.290, 1.3609372e-7, -3.9447041e-8, 9.7000153e+1
-0.291, 1.3677251e-7, -3.9731862e-8, 9.7333488e+1
-0.292, 1.3744895e-7, -3.9993168e-8, 9.7666824e+1
-0.293, 1.3801998e-7, -4.0255415e-8, 9.8000160e+1
-0.294, 1.3854272e-7, -4.0505732e-8, 9.8333496e+1
-0.295, 1.3898442e-7, -4.0745878e-8, 9.8666832e+1
-0.296, 1.3938042e-7, -4.0972910e-8, 9.9000168e+1
-0.297, 1.3977005e-7, -4.1193911e-8, 9.9333504e+1
-0.298, 1.4006831e-7, -4.1403805e-8, 9.9666840e+1
-0.299, 1.4034427e-7, -4.1611930e-8, 1.0000018e+2
-0.300, 1.4058004e-7, -4.1819575e-8, 1.0033351e+2
-0.301, 1.4073773e-7, -4.2023800e-8, 1.0066685e+2
-0.302, 1.4087384e-7, -4.2223174e-8, 1.0100018e+2
-0.303, 1.4094753e-7, -4.2414865e-8, 1.0133352e+2
-0.304, 1.4096767e-7, -4.2601005e-8, 1.0166685e+2
-0.305, 1.4100576e-7, -4.2782183e-8, 1.0200019e+2
-0.306, 1.4101114e-7, -4.2957684e-8, 1.0233353e+2
-0.307, 1.4109008e-7, -4.3136378e-8, 1.0266686e+2
-0.308, 1.4114075e-7, -4.3319918e-8, 1.0300020e+2
-0.309, 1.4116591e-7, -4.3495419e-8, 1.0333353e+2
-0.310, 1.4127816e-7, -4.3656975e-8, 1.0366687e+2
-0.311, 1.4143258e-7, -4.3826216e-8, 1.0400021e+2
-0.312, 1.4159380e-7, -4.3984937e-8, 1.0433354e+2
-0.313, 1.4178708e-7, -4.4142947e-8, 1.0466688e+2
-0.314, 1.4193441e-7, -4.4302734e-8, 1.0500021e+2
-0.315, 1.4210985e-7, -4.4447386e-8, 1.0533355e+2
-0.316, 1.4228210e-7, -4.4587079e-8, 1.0566689e+2
-0.317, 1.4236531e-7, -4.4729610e-8, 1.0600022e+2
-0.318, 1.4253314e-7, -4.4844956e-8, 1.0633356e+2
-0.319, 1.4265093e-7, -4.4980752e-8, 1.0666689e+2
-0.320, 1.4269878e-7, -4.5109456e-8, 1.0700023e+2
-0.321, 1.4274460e-7, -4.5230237e-8, 1.0733356e+2
-0.322, 1.4273385e-7, -4.5351729e-8, 1.0766690e+2
-0.323, 1.4273421e-7, -4.5473694e-8, 1.0800024e+2
-0.324, 1.4275074e-7, -4.5585377e-8, 1.0833357e+2
-0.325, 1.4275930e-7, -4.5697888e-8, 1.0866691e+2
-0.326, 1.4284421e-7, -4.5804605e-8, 1.0900024e+2
-0.327, 1.4297601e-7, -4.5918775e-8, 1.0933358e+2
-0.328, 1.4323786e-7, -4.6008712e-8, 1.0966692e+2
-0.329, 1.4363999e-7, -4.6110703e-8, 1.1000025e+2
-0.330, 1.4407935e-7, -4.6213405e-8, 1.1033359e+2
-0.331, 1.4465866e-7, -4.6293060e-8, 1.1066692e+2
-0.332, 1.4532078e-7, -4.6386781e-8, 1.1100026e+2
-0.333, 1.4601949e-7, -4.6462301e-8, 1.1133360e+2
-0.334, 1.4680694e-7, -4.6541125e-8, 1.1166693e+2
-0.335, 1.4758913e-7, -4.6611802e-8, 1.1200027e+2
-0.336, 1.4832965e-7, -4.6682715e-8, 1.1233360e+2
-0.337, 1.4909260e-7, -4.6749957e-8, 1.1266694e+2
-0.338, 1.4977111e-7, -4.6815906e-8, 1.1300027e+2
-0.339, 1.5049550e-7, -4.6869793e-8, 1.1333361e+2
-0.340, 1.5119397e-7, -4.6928534e-8, 1.1366695e+2
-0.341, 1.5179322e-7, -4.6983725e-8, 1.1400028e+2
-0.342, 1.5235810e-7, -4.7042697e-8, 1.1433362e+2
-0.343, 1.5288319e-7, -4.7100137e-8, 1.1466695e+2
-0.344, 1.5336505e-7, -4.7163720e-8, 1.1500029e+2
-0.345, 1.5381313e-7, -4.7218556e-8, 1.1533363e+2
-0.346, 1.5415712e-7, -4.7266422e-8, 1.1566696e+2
-0.347, 1.5447422e-7, -4.7319720e-8, 1.1600030e+2
-0.348, 1.5474905e-7, -4.7373494e-8, 1.1633363e+2
-0.349, 1.5493524e-7, -4.7429040e-8, 1.1666697e+2
-0.350, 1.5511937e-7, -4.7481159e-8, 1.1700031e+2
-0.351, 1.5521333e-7, -4.7532687e-8, 1.1733364e+2
-0.352, 1.5521427e-7, -4.7585754e-8, 1.1766698e+2
-0.353, 1.5519559e-7, -4.7643187e-8, 1.1800031e+2
-0.354, 1.5512857e-7, -4.7699206e-8, 1.1833365e+2
-0.355, 1.5507827e-7, -4.7754284e-8, 1.1866698e+2
-0.356, 1.5512539e-7, -4.7802974e-8, 1.1900032e+2
-0.357, 1.5524189e-7, -4.7870692e-8, 1.1933366e+2
-0.358, 1.5547504e-7, -4.7925528e-8, 1.1966699e+2
-0.359, 1.5579947e-7, -4.7985687e-8, 1.2000033e+2
-0.360, 1.5619528e-7, -4.8047141e-8, 1.2033366e+2
-0.361, 1.5674476e-7, -4.8104223e-8, 1.2066700e+2
-0.362, 1.5741588e-7, -4.8158469e-8, 1.2100034e+2
-0.363, 1.5834701e-7, -4.8203024e-8, 1.2133367e+2
-0.364, 1.5947006e-7, -4.8251831e-8, 1.2166701e+2
-0.365, 1.6070065e-7, -4.8299697e-8, 1.2200034e+2
-0.366, 1.6205743e-7, -4.8330307e-8, 1.2233368e+2
-0.367, 1.6351068e-7, -4.8360921e-8, 1.2266702e+2
-0.368, 1.6497724e-7, -4.8387985e-8, 1.2300035e+2
-0.369, 1.6651222e-7, -4.8414929e-8, 1.2333369e+2
-0.370, 1.6801734e-7, -4.8431474e-8, 1.2366702e+2
-0.371, 1.6952517e-7, -4.8451330e-8, 1.2400036e+2
-0.372, 1.7103743e-7, -4.8466458e-8, 1.2433369e+2
-0.373, 1.7249364e-7, -4.8485365e-8, 1.2466703e+2
-0.374, 1.7391449e-7, -4.8499782e-8, 1.2500037e+2
-0.375, 1.7524592e-7, -4.8506756e-8, 1.2533370e+2
-0.376, 1.7651152e-7, -4.8514437e-8, 1.2566704e+2
-0.377, 1.7760185e-7, -4.8536300e-8, 1.2600037e+2
-0.378, 1.7843300e-7, -4.8550600e-8, 1.2633371e+2
-0.379, 1.7911647e-7, -4.8567149e-8, 1.2666705e+2
-0.380, 1.7968036e-7, -4.8595158e-8, 1.2700038e+2
-0.381, 1.8013370e-7, -4.8625651e-8, 1.2733372e+2
-0.382, 1.8060346e-7, -4.8659331e-8, 1.2766705e+2
-0.383, 1.8101588e-7, -4.8695142e-8, 1.2800038e+2
-0.384, 1.8141901e-7, -4.8734140e-8, 1.2833371e+2
-0.385, 1.8188760e-7, -4.8774439e-8, 1.2866704e+2
-0.386, 1.8235723e-7, -4.8808833e-8, 1.2900037e+2
-0.387, 1.8289040e-7, -4.8843461e-8, 1.2933369e+2
-0.388, 1.8352875e-7, -4.8880807e-8, 1.2966702e+2
-0.389, 1.8422692e-7, -4.8923944e-8, 1.3000035e+2
-0.390, 1.8498805e-7, -4.8960818e-8, 1.3033368e+2
-0.391, 1.8572230e-7, -4.8999937e-8, 1.3066701e+2
-0.392, 1.8646463e-7, -4.9041773e-8, 1.3100034e+2
-0.393, 1.8719246e-7, -4.9074039e-8, 1.3133366e+2
-0.394, 1.8777894e-7, -4.9109140e-8, 1.3166699e+2
-0.395, 1.8826553e-7, -4.9148493e-8, 1.3200032e+2
-0.396, 1.8855246e-7, -4.9185960e-8, 1.3233365e+2
-0.397, 1.8870907e-7, -4.9205813e-8, 1.3266698e+2
-0.398, 1.8881323e-7, -4.9245404e-8, 1.3300031e+2
-0.399, 1.8876925e-7, -4.9278732e-8, 1.3333363e+2
