Jan. 28, 2006   01:57:28
Square Wave Voltammetry
File: z:\users\scottsaunders\git\labwork\ida\01_17_19_psoralen_nonequil_2\data\psoralen\2\75um_psoralen_transfer_2_swv_16.txt
Data Source:  Experiment
Instrument Model:  CHI760E
Header: 
Note: 

Init E (V) = 0.1
Final E (V) = -0.5
Incr E (V) = 0.001
Amplitude (V) = 0.025
Frequency (Hz) = 300
Quiet Time (sec) = 2
Sensitivity (A/V) = 1e-5
Sens 2 (A/V) = 1e-5

Potential/V, i1/A, i2/A

0.099, 1.6178783e-5, 1.4491425e-5
0.098, 1.7931103e-5, 1.5555359e-5
0.097, 1.7916656e-5, 1.5503754e-5
0.096, 1.8047438e-5, 1.5637856e-5
0.095, 1.7970484e-5, 1.5584721e-5
0.094, 1.7749353e-5, 1.5381323e-5
0.093, 1.7753868e-5, 1.5385707e-5
0.092, 1.7691724e-5, 1.5321533e-5
0.091, 1.7919330e-5, 1.5547716e-5
0.090, 1.7770348e-5, 1.5442958e-5
0.089, 1.7574159e-5, 1.5255828e-5
0.088, 1.7553106e-5, 1.5235692e-5
0.087, 1.7508879e-5, 1.5201145e-5
0.086, 1.7600745e-5, 1.5297319e-5
0.085, 1.7567869e-5, 1.5293852e-5
0.084, 1.7374727e-5, 1.5124277e-5
0.083, 1.7388737e-5, 1.5122476e-5
0.082, 1.7323833e-5, 1.5068743e-5
0.081, 1.7449172e-5, 1.5201382e-5
0.080, 1.7399736e-5, 1.5170760e-5
0.079, 1.7191542e-5, 1.4990324e-5
0.078, 1.7205573e-5, 1.4990355e-5
0.077, 1.7144421e-5, 1.4938911e-5
0.076, 1.7336830e-5, 1.5138283e-5
0.075, 1.7225299e-5, 1.5051557e-5
0.074, 1.7076338e-5, 1.4922025e-5
0.073, 1.7013630e-5, 1.4859412e-5
0.072, 1.6966240e-5, 1.4812309e-5
0.071, 1.7113747e-5, 1.4962561e-5
0.070, 1.7047689e-5, 1.4928429e-5
0.069, 1.6764425e-5, 1.4674590e-5
0.068, 1.6838592e-5, 1.4735712e-5
0.067, 1.6803217e-5, 1.4701503e-5
0.066, 1.6923153e-5, 1.4833313e-5
0.065, 1.6867107e-5, 1.4807863e-5
0.064, 1.6682126e-5, 1.4635801e-5
0.063, 1.6686437e-5, 1.4632749e-5
0.062, 1.6628670e-5, 1.4586201e-5
0.061, 1.6819489e-5, 1.4774757e-5
0.060, 1.6696078e-5, 1.4689530e-5
0.059, 1.6516657e-5, 1.4519889e-5
0.058, 1.6501348e-5, 1.4501527e-5
0.057, 1.6465261e-5, 1.4479003e-5
0.056, 1.6540980e-5, 1.4555882e-5
0.055, 1.6532864e-5, 1.4576806e-5
0.054, 1.6208593e-5, 1.4288593e-5
0.053, 1.6347676e-5, 1.4400062e-5
0.052, 1.6307738e-5, 1.4375055e-5
0.051, 1.6407441e-5, 1.4480091e-5
0.050, 1.6379059e-5, 1.4472131e-5
0.049, 1.6201737e-5, 1.4313677e-5
0.048, 1.6211910e-5, 1.4318635e-5
0.047, 1.6162407e-5, 1.4272673e-5
0.046, 1.6263299e-5, 1.4389761e-5
0.045, 1.6230963e-5, 1.4376304e-5
0.044, 1.5954825e-5, 1.4119216e-5
0.043, 1.6044460e-5, 1.4211952e-5
0.042, 1.6006763e-5, 1.4171248e-5
0.041, 1.6117059e-5, 1.4292114e-5
0.040, 1.6090953e-5, 1.4295481e-5
0.039, 1.5739142e-5, 1.3962877e-5
0.038, 1.5905507e-5, 1.4119101e-5
0.037, 1.5867870e-5, 1.4087933e-5
0.036, 1.6047165e-5, 1.4269299e-5
0.035, 1.5940292e-5, 1.4198244e-5
0.034, 1.5763237e-5, 1.4025342e-5
0.033, 1.5775215e-5, 1.4033994e-5
0.032, 1.5723403e-5, 1.3997267e-5
0.031, 1.5833861e-5, 1.4112079e-5
0.030, 1.5795202e-5, 1.4101295e-5
0.029, 1.5468751e-5, 1.3800605e-5
0.028, 1.5606875e-5, 1.3918696e-5
0.027, 1.5617534e-5, 1.3942488e-5
0.026, 1.5649894e-5, 1.3987669e-5
0.025, 1.5664784e-5, 1.4018885e-5
0.024, 1.5414582e-5, 1.3787419e-5
0.023, 1.5484718e-5, 1.3847863e-5
0.022, 1.5461224e-5, 1.3833734e-5
0.021, 1.5564920e-5, 1.3957284e-5
0.020, 1.5528130e-5, 1.3934464e-5
0.019, 1.5368583e-5, 1.3786474e-5
0.018, 1.5377182e-5, 1.3796512e-5
0.017, 1.5340986e-5, 1.3761954e-5
0.016, 1.5468264e-5, 1.3908446e-5
0.015, 1.5401150e-5, 1.3865474e-5
0.014, 1.5131918e-5, 1.3616171e-5
0.013, 1.5237003e-5, 1.3712195e-5
0.012, 1.5220079e-5, 1.3695995e-5
0.011, 1.5250968e-5, 1.3749440e-5
0.010, 1.5284746e-5, 1.3803583e-5
0.009, 1.5123896e-5, 1.3642282e-5
0.008, 1.5109370e-5, 1.3631769e-5
0.007, 1.5126529e-5, 1.3656782e-5
0.006, 1.5202019e-5, 1.3746814e-5
0.005, 1.5162466e-5, 1.3733155e-5
0.004, 1.5033334e-5, 1.3607792e-5
0.003, 1.4999893e-5, 1.3567599e-5
0.002, 1.4981338e-5, 1.3565745e-5
0.001, 1.5105622e-5, 1.3696070e-5
-0.000, 1.5049611e-5, 1.3666811e-5
-0.001, 1.4811011e-5, 1.3456976e-5
-0.002, 1.4898626e-5, 1.3520206e-5
-0.003, 1.4865793e-5, 1.3498421e-5
-0.004, 1.5005483e-5, 1.3654992e-5
-0.005, 1.4945393e-5, 1.3618414e-5
-0.006, 1.4818876e-5, 1.3499774e-5
-0.007, 1.4774696e-5, 1.3453822e-5
-0.008, 1.4766136e-5, 1.3448707e-5
-0.009, 1.4861401e-5, 1.3567108e-5
-0.010, 1.4843288e-5, 1.3567981e-5
-0.011, 1.4717896e-5, 1.3443310e-5
-0.012, 1.4662846e-5, 1.3395171e-5
-0.013, 1.4677094e-5, 1.3411182e-5
-0.014, 1.4771022e-5, 1.3521954e-5
-0.015, 1.4718576e-5, 1.3503507e-5
-0.016, 1.4529722e-5, 1.3323954e-5
-0.017, 1.4565387e-5, 1.3351498e-5
-0.018, 1.4573488e-5, 1.3365294e-5
-0.019, 1.4743025e-5, 1.3539570e-5
-0.020, 1.4641268e-5, 1.3472527e-5
-0.021, 1.4547997e-5, 1.3379785e-5
-0.022, 1.4489675e-5, 1.3321156e-5
-0.023, 1.4479907e-5, 1.3321152e-5
-0.024, 1.4591733e-5, 1.3447999e-5
-0.025, 1.4558192e-5, 1.3439036e-5
-0.026, 1.4450779e-5, 1.3340352e-5
-0.027, 1.4394763e-5, 1.3279284e-5
-0.028, 1.4401372e-5, 1.3293586e-5
-0.029, 1.4417939e-5, 1.3336503e-5
-0.030, 1.4465786e-5, 1.3397639e-5
-0.031, 1.4409889e-5, 1.3343510e-5
-0.032, 1.4346124e-5, 1.3281822e-5
-0.033, 1.4320010e-5, 1.3261553e-5
-0.034, 1.4483064e-5, 1.3444606e-5
-0.035, 1.4392966e-5, 1.3375979e-5
-0.036, 1.4284599e-5, 1.3273908e-5
-0.037, 1.4243745e-5, 1.3234594e-5
-0.038, 1.4241261e-5, 1.3234549e-5
-0.039, 1.4343595e-5, 1.3357496e-5
-0.040, 1.4319220e-5, 1.3356615e-5
-0.041, 1.4214195e-5, 1.3252379e-5
-0.042, 1.4174059e-5, 1.3213858e-5
-0.043, 1.4169867e-5, 1.3217237e-5
-0.044, 1.4288768e-5, 1.3351751e-5
-0.045, 1.4218462e-5, 1.3308676e-5
-0.046, 1.4070579e-5, 1.3169551e-5
-0.047, 1.4095722e-5, 1.3186121e-5
-0.048, 1.4096402e-5, 1.3199100e-5
-0.049, 1.4208672e-5, 1.3320727e-5
-0.050, 1.4182324e-5, 1.3319760e-5
-0.051, 1.4064532e-5, 1.3210980e-5
-0.052, 1.4019094e-5, 1.3155392e-5
-0.053, 1.4039425e-5, 1.3190255e-5
-0.054, 1.4135356e-5, 1.3303285e-5
-0.055, 1.4118174e-5, 1.3303562e-5
-0.056, 1.4000552e-5, 1.3202894e-5
-0.057, 1.3971683e-5, 1.3157252e-5
-0.058, 1.3975741e-5, 1.3174040e-5
-0.059, 1.4110286e-5, 1.3330061e-5
-0.060, 1.4049708e-5, 1.3287584e-5
-0.061, 1.3942539e-5, 1.3176341e-5
-0.062, 1.3902025e-5, 1.3144307e-5
-0.063, 1.3917425e-5, 1.3164602e-5
-0.064, 1.4051142e-5, 1.3311598e-5
-0.065, 1.3996605e-5, 1.3289084e-5
-0.066, 1.3906631e-5, 1.3196395e-5
-0.067, 1.3865556e-5, 1.3156257e-5
-0.068, 1.3860234e-5, 1.3156661e-5
-0.069, 1.3973546e-5, 1.3289615e-5
-0.070, 1.3937031e-5, 1.3283014e-5
-0.071, 1.3849084e-5, 1.3192055e-5
-0.072, 1.3812496e-5, 1.3148716e-5
-0.073, 1.3811003e-5, 1.3164438e-5
-0.074, 1.3975143e-5, 1.3332783e-5
-0.075, 1.3883728e-5, 1.3279190e-5
-0.076, 1.3898921e-5, 1.3291513e-5
-0.077, 1.3760398e-5, 1.3146115e-5
-0.078, 1.3738234e-5, 1.3143743e-5
-0.079, 1.3861461e-5, 1.3273274e-5
-0.080, 1.3832746e-5, 1.3274260e-5
-0.081, 1.3722539e-5, 1.3175475e-5
-0.082, 1.3748362e-5, 1.3179639e-5
-0.083, 1.3713821e-5, 1.3160483e-5
-0.084, 1.3814684e-5, 1.3283594e-5
-0.085, 1.3772915e-5, 1.3265766e-5
-0.086, 1.3694150e-5, 1.3194480e-5
-0.087, 1.3656534e-5, 1.3143547e-5
-0.088, 1.3661229e-5, 1.3155614e-5
-0.089, 1.3764324e-5, 1.3282591e-5
-0.090, 1.3740058e-5, 1.3278176e-5
-0.091, 1.3542444e-5, 1.3103752e-5
-0.092, 1.3613173e-5, 1.3153337e-5
-0.093, 1.3623050e-5, 1.3166333e-5
-0.094, 1.3701868e-5, 1.3265915e-5
-0.095, 1.3690970e-5, 1.3286553e-5
-0.096, 1.3582152e-5, 1.3177571e-5
-0.097, 1.3588658e-5, 1.3175076e-5
-0.098, 1.3568106e-5, 1.3166884e-5
-0.099, 1.3666580e-5, 1.3278528e-5
-0.100, 1.3642516e-5, 1.3286935e-5
-0.101, 1.3589457e-5, 1.3232344e-5
-0.102, 1.3510802e-5, 1.3144004e-5
-0.103, 1.3526638e-5, 1.3175681e-5
-0.104, 1.3789312e-5, 1.3432232e-5
-0.105, 1.3590345e-5, 1.3279958e-5
-0.106, 1.3332063e-5, 1.3044817e-5
-0.107, 1.3486132e-5, 1.3165443e-5
-0.108, 1.3481098e-5, 1.3173717e-5
-0.109, 1.3599290e-5, 1.3308596e-5
-0.110, 1.3554495e-5, 1.3286421e-5
-0.111, 1.3447047e-5, 1.3190398e-5
-0.112, 1.3457839e-5, 1.3177883e-5
-0.113, 1.3465566e-5, 1.3200571e-5
-0.114, 1.3560077e-5, 1.3319956e-5
-0.115, 1.3516096e-5, 1.3292454e-5
-0.116, 1.3435780e-5, 1.3220635e-5
-0.117, 1.3399700e-5, 1.3175688e-5
-0.118, 1.3383421e-5, 1.3163462e-5
-0.119, 1.3500821e-5, 1.3300854e-5
-0.120, 1.3477718e-5, 1.3302923e-5
-0.121, 1.3353480e-5, 1.3183136e-5
-0.122, 1.3359623e-5, 1.3176079e-5
-0.123, 1.3365236e-5, 1.3190200e-5
-0.124, 1.3512177e-5, 1.3345480e-5
-0.125, 1.3444820e-5, 1.3316272e-5
-0.126, 1.3333940e-5, 1.3204142e-5
-0.127, 1.3335743e-5, 1.3189918e-5
-0.128, 1.3328787e-5, 1.3199362e-5
-0.129, 1.3467783e-5, 1.3352099e-5
-0.130, 1.3406096e-5, 1.3315664e-5
-0.131, 1.3324403e-5, 1.3240659e-5
-0.132, 1.3284592e-5, 1.3179593e-5
-0.133, 1.3296547e-5, 1.3205270e-5
-0.134, 1.3427039e-5, 1.3350642e-5
-0.135, 1.3375806e-5, 1.3320627e-5
-0.136, 1.3261533e-5, 1.3226161e-5
-0.137, 1.3244942e-5, 1.3180815e-5
-0.138, 1.3260254e-5, 1.3207391e-5
-0.139, 1.3365219e-5, 1.3335464e-5
-0.140, 1.3341740e-5, 1.3333141e-5
-0.141, 1.3262546e-5, 1.3262026e-5
-0.142, 1.3238689e-5, 1.3215653e-5
-0.143, 1.3233668e-5, 1.3218658e-5
-0.144, 1.3391251e-5, 1.3395181e-5
-0.145, 1.3306113e-5, 1.3338294e-5
-0.146, 1.3247094e-5, 1.3282314e-5
-0.147, 1.3183560e-5, 1.3206415e-5
-0.148, 1.3205450e-5, 1.3229625e-5
-0.149, 1.3290668e-5, 1.3340035e-5
-0.150, 1.3285604e-5, 1.3361467e-5
-0.151, 1.3160989e-5, 1.3242248e-5
-0.152, 1.3138455e-5, 1.3198616e-5
-0.153, 1.3168669e-5, 1.3239005e-5
-0.154, 1.3260047e-5, 1.3346684e-5
-0.155, 1.3253142e-5, 1.3366921e-5
-0.156, 1.3146764e-5, 1.3267421e-5
-0.157, 1.3153092e-5, 1.3247618e-5
-0.158, 1.3119063e-5, 1.3232181e-5
-0.159, 1.3255678e-5, 1.3378758e-5
-0.160, 1.3215815e-5, 1.3369818e-5
-0.161, 1.3129901e-5, 1.3299138e-5
-0.162, 1.3091169e-5, 1.3233595e-5
-0.163, 1.3124193e-5, 1.3274462e-5
-0.164, 1.3192504e-5, 1.3365927e-5
-0.165, 1.3201103e-5, 1.3395265e-5
-0.166, 1.3104011e-5, 1.3313404e-5
-0.167, 1.3061810e-5, 1.3249874e-5
-0.168, 1.3091820e-5, 1.3284005e-5
-0.169, 1.3171057e-5, 1.3393234e-5
-0.170, 1.3181873e-5, 1.3418543e-5
-0.171, 1.3051986e-5, 1.3302741e-5
-0.172, 1.3054736e-5, 1.3286954e-5
-0.173, 1.3065182e-5, 1.3303366e-5
-0.174, 1.3158903e-5, 1.3425288e-5
-0.175, 1.3117748e-5, 1.3407314e-5
-0.176, 1.2901767e-5, 1.3199749e-5
-0.177, 1.3020543e-5, 1.3299556e-5
-0.178, 1.3030989e-5, 1.3320576e-5
-0.179, 1.3143504e-5, 1.3449133e-5
-0.180, 1.3087198e-5, 1.3427159e-5
-0.181, 1.3024550e-5, 1.3367496e-5
-0.182, 1.2975001e-5, 1.3299252e-5
-0.183, 1.2996405e-5, 1.3337337e-5
-0.184, 1.3077210e-5, 1.3436655e-5
-0.185, 1.3087745e-5, 1.3470910e-5
-0.186, 1.2961347e-5, 1.3361907e-5
-0.187, 1.2961628e-5, 1.3331068e-5
-0.188, 1.2963891e-5, 1.3355311e-5
-0.189, 1.3061648e-5, 1.3473595e-5
-0.190, 1.3059808e-5, 1.3490619e-5
-0.191, 1.2717238e-5, 1.3195164e-5
-0.192, 1.2928981e-5, 1.3352450e-5
-0.193, 1.2921189e-5, 1.3361999e-5
-0.194, 1.3054329e-5, 1.3524112e-5
-0.195, 1.3014820e-5, 1.3502416e-5
-0.196, 1.2910255e-5, 1.3412182e-5
-0.197, 1.2866614e-5, 1.3348572e-5
-0.198, 1.2891483e-5, 1.3383667e-5
-0.199, 1.2963388e-5, 1.3487207e-5
-0.200, 1.2984051e-5, 1.3530756e-5
-0.201, 1.2840376e-5, 1.3395292e-5
-0.202, 1.2851302e-5, 1.3384806e-5
-0.203, 1.2861490e-5, 1.3406845e-5
-0.204, 1.2859102e-5, 1.3437759e-5
-0.205, 1.2913374e-5, 1.3523914e-5
-0.206, 1.2686683e-5, 1.3314861e-5
-0.207, 1.2778859e-5, 1.3369096e-5
-0.208, 1.2813540e-5, 1.3425749e-5
-0.209, 1.2851517e-5, 1.3484572e-5
-0.210, 1.2894277e-5, 1.3560997e-5
-0.211, 1.2780883e-5, 1.3457467e-5
-0.212, 1.2770128e-5, 1.3415223e-5
-0.213, 1.2760953e-5, 1.3435034e-5
-0.214, 1.2839459e-5, 1.3532950e-5
-0.215, 1.2851531e-5, 1.3574170e-5
-0.216, 1.2739565e-5, 1.3478251e-5
-0.217, 1.2737878e-5, 1.3442960e-5
-0.218, 1.2725230e-5, 1.3452345e-5
-0.219, 1.2739454e-5, 1.3502555e-5
-0.220, 1.2774290e-5, 1.3561781e-5
-0.221, 1.2684390e-5, 1.3487737e-5
-0.222, 1.2659366e-5, 1.3433611e-5
-0.223, 1.2674469e-5, 1.3461298e-5
-0.224, 1.2733961e-5, 1.3553476e-5
-0.225, 1.2746757e-5, 1.3593834e-5
-0.226, 1.2620294e-5, 1.3482414e-5
-0.227, 1.2620249e-5, 1.3458114e-5
-0.228, 1.2616863e-5, 1.3467828e-5
-0.229, 1.2684020e-5, 1.3568500e-5
-0.230, 1.2700611e-5, 1.3618957e-5
-0.231, 1.2578877e-5, 1.3504816e-5
-0.232, 1.2563220e-5, 1.3463495e-5
-0.233, 1.2560735e-5, 1.3480532e-5
-0.234, 1.2585590e-5, 1.3534418e-5
-0.235, 1.2639641e-5, 1.3623277e-5
-0.236, 1.2443335e-5, 1.3436344e-5
-0.237, 1.2501207e-5, 1.3463792e-5
-0.238, 1.2507941e-5, 1.3496969e-5
-0.239, 1.2675808e-5, 1.3683865e-5
-0.240, 1.2582027e-5, 1.3626283e-5
-0.241, 1.2475449e-5, 1.3534731e-5
-0.242, 1.2450565e-5, 1.3478881e-5
-0.243, 1.2443777e-5, 1.3493780e-5
-0.244, 1.2493688e-5, 1.3577181e-5
-0.245, 1.2530202e-5, 1.3637091e-5
-0.246, 1.2388582e-5, 1.3513834e-5
-0.247, 1.2381196e-5, 1.3468070e-5
-0.248, 1.2379407e-5, 1.3495234e-5
-0.249, 1.2400573e-5, 1.3553214e-5
-0.250, 1.2456043e-5, 1.3630329e-5
-0.251, 1.2438085e-5, 1.3617454e-5
-0.252, 1.2315812e-5, 1.3478390e-5
-0.253, 1.2306771e-5, 1.3481135e-5
-0.254, 1.2386135e-5, 1.3600104e-5
-0.255, 1.2395472e-5, 1.3640274e-5
-0.256, 1.2256454e-5, 1.3505281e-5
-0.257, 1.2263758e-5, 1.3486831e-5
-0.258, 1.2258464e-5, 1.3503166e-5
-0.259, 1.2333001e-5, 1.3606883e-5
-0.260, 1.2343396e-5, 1.3653567e-5
-0.261, 1.2200719e-5, 1.3513805e-5
-0.262, 1.2187898e-5, 1.3470717e-5
-0.263, 1.2193510e-5, 1.3504654e-5
-0.264, 1.2190700e-5, 1.3532370e-5
-0.265, 1.2256764e-5, 1.3630207e-5
-0.266, 1.2100189e-5, 1.3490971e-5
-0.267, 1.2140827e-5, 1.3484634e-5
-0.268, 1.2116778e-5, 1.3488917e-5
-0.269, 1.2204215e-5, 1.3604122e-5
-0.270, 1.2221493e-5, 1.3650924e-5
-0.271, 1.2087457e-5, 1.3531826e-5
-0.272, 1.2070217e-5, 1.3472763e-5
-0.273, 1.2057220e-5, 1.3487494e-5
-0.274, 1.2104601e-5, 1.3573712e-5
-0.275, 1.2146239e-5, 1.3639855e-5
-0.276, 1.1984162e-5, 1.3488818e-5
-0.277, 1.1998557e-5, 1.3468109e-5
-0.278, 1.1995363e-5, 1.3481899e-5
-0.279, 1.2004175e-5, 1.3530534e-5
-0.280, 1.2081055e-5, 1.3634895e-5
-0.281, 1.1782843e-5, 1.3351982e-5
-0.282, 1.1948026e-5, 1.3476561e-5
-0.283, 1.1931443e-5, 1.3475305e-5
-0.284, 1.1968940e-5, 1.3542865e-5
-0.285, 1.2023855e-5, 1.3636216e-5
-0.286, 1.1851873e-5, 1.3465940e-5
-0.287, 1.1884496e-5, 1.3464572e-5
-0.288, 1.1865291e-5, 1.3467145e-5
-0.289, 1.1915881e-5, 1.3543895e-5
-0.290, 1.1957097e-5, 1.3621926e-5
-0.291, 1.1815366e-5, 1.3484506e-5
-0.292, 1.1829959e-5, 1.3457520e-5
-0.293, 1.1813088e-5, 1.3470322e-5
-0.294, 1.1868749e-5, 1.3544884e-5
-0.295, 1.1923399e-5, 1.3635567e-5
-0.296, 1.1514499e-5, 1.3244794e-5
-0.297, 1.1785638e-5, 1.3464673e-5
-0.298, 1.1766778e-5, 1.3467536e-5
-0.299, 1.1800120e-5, 1.3528963e-5
-0.300, 1.1848833e-5, 1.3605986e-5
-0.301, 1.1671542e-5, 1.3443657e-5
-0.302, 1.1687259e-5, 1.3415160e-5
-0.303, 1.1698452e-5, 1.3443847e-5
-0.304, 1.1740267e-5, 1.3522269e-5
-0.305, 1.1791826e-5, 1.3595666e-5
-0.306, 1.1631731e-5, 1.3447391e-5
-0.307, 1.1635804e-5, 1.3413395e-5
-0.308, 1.1643951e-5, 1.3433569e-5
-0.309, 1.1750351e-5, 1.3566876e-5
-0.310, 1.1754248e-5, 1.3605755e-5
-0.311, 1.1562798e-5, 1.3421439e-5
-0.312, 1.1600014e-5, 1.3414017e-5
-0.313, 1.1588851e-5, 1.3422341e-5
-0.314, 1.1646746e-5, 1.3502152e-5
-0.315, 1.1661672e-5, 1.3552093e-5
-0.316, 1.1518683e-5, 1.3409506e-5
-0.317, 1.1531674e-5, 1.3380790e-5
-0.318, 1.1544760e-5, 1.3419591e-5
-0.319, 1.1570050e-5, 1.3464880e-5
-0.320, 1.1649126e-5, 1.3572284e-5
-0.321, 1.1512348e-5, 1.3446736e-5
-0.322, 1.1500053e-5, 1.3383053e-5
-0.323, 1.1496883e-5, 1.3403585e-5
-0.324, 1.1665361e-5, 1.3593894e-5
-0.325, 1.1585842e-5, 1.3543882e-5
-0.326, 1.1384886e-5, 1.3361012e-5
-0.327, 1.1452392e-5, 1.3368713e-5
-0.328, 1.1457817e-5, 1.3392162e-5
-0.329, 1.1551206e-5, 1.3515787e-5
-0.330, 1.1557084e-5, 1.3543786e-5
-0.331, 1.1404876e-5, 1.3395191e-5
-0.332, 1.1409313e-5, 1.3355442e-5
-0.333, 1.1403383e-5, 1.3367096e-5
-0.334, 1.1458283e-5, 1.3448416e-5
-0.335, 1.1517021e-5, 1.3532032e-5
-0.336, 1.1394362e-5, 1.3410586e-5
-0.337, 1.1409245e-5, 1.3385155e-5
-0.338, 1.1390830e-5, 1.3376653e-5
-0.339, 1.1408269e-5, 1.3416202e-5
-0.340, 1.1492830e-5, 1.3535196e-5
-0.341, 1.1298513e-5, 1.3343717e-5
-0.342, 1.1340062e-5, 1.3334098e-5
-0.343, 1.1361826e-5, 1.3378240e-5
-0.344, 1.1406732e-5, 1.3441431e-5
-0.345, 1.1467325e-5, 1.3527482e-5
-0.346, 1.1301589e-5, 1.3364846e-5
-0.347, 1.1310882e-5, 1.3321991e-5
-0.348, 1.1331722e-5, 1.3364755e-5
-0.349, 1.1377093e-5, 1.3429708e-5
-0.350, 1.1439253e-5, 1.3513293e-5
-0.351, 1.1314755e-5, 1.3400650e-5
-0.352, 1.1330600e-5, 1.3359919e-5
-0.353, 1.1309580e-5, 1.3354806e-5
-0.354, 1.1364798e-5, 1.3437088e-5
-0.355, 1.1400552e-5, 1.3488962e-5
-0.356, 1.1232707e-5, 1.3331620e-5
-0.357, 1.1285375e-5, 1.3333699e-5
-0.358, 1.1290624e-5, 1.3347430e-5
-0.359, 1.1335656e-5, 1.3418476e-5
-0.360, 1.1440687e-5, 1.3541344e-5
-0.361, 1.1248115e-5, 1.3351386e-5
-0.362, 1.1264394e-5, 1.3327272e-5
-0.363, 1.1277554e-5, 1.3346144e-5
-0.364, 1.1319953e-5, 1.3409050e-5
-0.365, 1.1428416e-5, 1.3544406e-5
-0.366, 1.1275180e-5, 1.3394453e-5
-0.367, 1.1306860e-5, 1.3373876e-5
-0.368, 1.1268461e-5, 1.3349312e-5
-0.369, 1.1309181e-5, 1.3404493e-5
-0.370, 1.1391510e-5, 1.3515986e-5
-0.371, 1.1263766e-5, 1.3391165e-5
-0.372, 1.1248949e-5, 1.3320456e-5
-0.373, 1.1263632e-5, 1.3356466e-5
-0.374, 1.1293568e-5, 1.3395080e-5
-0.375, 1.1377855e-5, 1.3502502e-5
-0.376, 1.1215579e-5, 1.3351415e-5
-0.377, 1.1227762e-5, 1.3304147e-5
-0.378, 1.1255923e-5, 1.3353685e-5
-0.379, 1.1300332e-5, 1.3411121e-5
-0.380, 1.1394888e-5, 1.3521876e-5
-0.381, 1.1242741e-5, 1.3383924e-5
-0.382, 1.1261312e-5, 1.3350197e-5
-0.383, 1.1240818e-5, 1.3334455e-5
-0.384, 1.1283728e-5, 1.3400703e-5
-0.385, 1.1370084e-5, 1.3500323e-5
-0.386, 1.1243620e-5, 1.3383169e-5
-0.387, 1.1220413e-5, 1.3316284e-5
-0.388, 1.1240227e-5, 1.3339155e-5
-0.389, 1.1268992e-5, 1.3385171e-5
-0.390, 1.1380405e-5, 1.3518851e-5
-0.391, 1.1209316e-5, 1.3346775e-5
-0.392, 1.1205102e-5, 1.3297578e-5
-0.393, 1.1238046e-5, 1.3342771e-5
-0.394, 1.1320322e-5, 1.3436256e-5
-0.395, 1.1368939e-5, 1.3512447e-5
-0.396, 1.1234120e-5, 1.3378235e-5
-0.397, 1.1247560e-5, 1.3343139e-5
-0.398, 1.1237425e-5, 1.3347355e-5
-0.399, 1.1341606e-5, 1.3457205e-5
-0.400, 1.1372304e-5, 1.3510353e-5
-0.401, 1.1245668e-5, 1.3390931e-5
-0.402, 1.1214898e-5, 1.3311183e-5
-0.403, 1.1233276e-5, 1.3343086e-5
-0.404, 1.1299326e-5, 1.3421371e-5
-0.405, 1.1378586e-5, 1.3513412e-5
-0.406, 1.1200060e-5, 1.3346124e-5
-0.407, 1.1199032e-5, 1.3289470e-5
-0.408, 1.1234955e-5, 1.3342649e-5
-0.409, 1.1336269e-5, 1.3460594e-5
-0.410, 1.1408802e-5, 1.3541271e-5
-0.411, 1.1219474e-5, 1.3366371e-5
-0.412, 1.1221869e-5, 1.3323144e-5
-0.413, 1.1232760e-5, 1.3339846e-5
-0.414, 1.1257696e-5, 1.3378244e-5
-0.415, 1.1367209e-5, 1.3505365e-5
-0.416, 1.1246000e-5, 1.3382846e-5
-0.417, 1.1221988e-5, 1.3318783e-5
-0.418, 1.1236309e-5, 1.3340095e-5
-0.419, 1.1296554e-5, 1.3409444e-5
-0.420, 1.1387946e-5, 1.3524012e-5
-0.421, 1.1206026e-5, 1.3343271e-5
-0.422, 1.1205606e-5, 1.3292537e-5
-0.423, 1.1235281e-5, 1.3341410e-5
-0.424, 1.1271418e-5, 1.3384277e-5
-0.425, 1.1407774e-5, 1.3539696e-5
-0.426, 1.1141551e-5, 1.3290458e-5
-0.427, 1.1199461e-5, 1.3284999e-5
-0.428, 1.1234548e-5, 1.3335082e-5
-0.429, 1.1262820e-5, 1.3371470e-5
-0.430, 1.1373981e-5, 1.3496320e-5
-0.431, 1.1267241e-5, 1.3402626e-5
-0.432, 1.1227194e-5, 1.3307359e-5
-0.433, 1.1229647e-5, 1.3323084e-5
-0.434, 1.1291068e-5, 1.3402873e-5
-0.435, 1.1385011e-5, 1.3507310e-5
-0.436, 1.1210950e-5, 1.3338660e-5
-0.437, 1.1231000e-5, 1.3309847e-5
-0.438, 1.1238903e-5, 1.3324711e-5
-0.439, 1.1327671e-5, 1.3431278e-5
-0.440, 1.1411929e-5, 1.3533407e-5
-0.441, 1.1098369e-5, 1.3227692e-5
-0.442, 1.1211276e-5, 1.3292130e-5
-0.443, 1.1233817e-5, 1.3315550e-5
-0.444, 1.1395228e-5, 1.3485160e-5
-0.445, 1.1371940e-5, 1.3492358e-5
-0.446, 1.1211703e-5, 1.3328907e-5
-0.447, 1.1230423e-5, 1.3304425e-5
-0.448, 1.1240100e-5, 1.3321358e-5
-0.449, 1.1292435e-5, 1.3381687e-5
-0.450, 1.1393387e-5, 1.3504089e-5
-0.451, 1.1226526e-5, 1.3346465e-5
-0.452, 1.1236234e-5, 1.3296321e-5
-0.453, 1.1237913e-5, 1.3316481e-5
-0.454, 1.1306438e-5, 1.3389326e-5
-0.455, 1.1374542e-5, 1.3477335e-5
-0.456, 1.1261274e-5, 1.3377113e-5
-0.457, 1.1224332e-5, 1.3284662e-5
-0.458, 1.1240663e-5, 1.3311561e-5
-0.459, 1.1329601e-5, 1.3415294e-5
-0.460, 1.1380265e-5, 1.3477931e-5
-0.461, 1.1244677e-5, 1.3351713e-5
-0.462, 1.1237780e-5, 1.3295123e-5
-0.463, 1.1242674e-5, 1.3307707e-5
-0.464, 1.1307931e-5, 1.3394530e-5
-0.465, 1.1406295e-5, 1.3496466e-5
-0.466, 1.1253785e-5, 1.3357992e-5
-0.467, 1.1245364e-5, 1.3304014e-5
-0.468, 1.1246992e-5, 1.3309274e-5
-0.469, 1.1296539e-5, 1.3369689e-5
-0.470, 1.1398134e-5, 1.3489935e-5
-0.471, 1.0966382e-5, 1.3087453e-5
-0.472, 1.1267832e-5, 1.3320598e-5
-0.473, 1.1248270e-5, 1.3311627e-5
-0.474, 1.1303895e-5, 1.3372854e-5
-0.475, 1.1405719e-5, 1.3496143e-5
-0.476, 1.1299961e-5, 1.3390514e-5
-0.477, 1.1252935e-5, 1.3297672e-5
-0.478, 1.1256831e-5, 1.3319481e-5
-0.479, 1.1333623e-5, 1.3397736e-5
-0.480, 1.1439201e-5, 1.3517298e-5
-0.481, 1.1282493e-5, 1.3378560e-5
-0.482, 1.1259057e-5, 1.3294104e-5
-0.483, 1.1267795e-5, 1.3321935e-5
-0.484, 1.1334318e-5, 1.3397450e-5
-0.485, 1.1441050e-5, 1.3516265e-5
-0.486, 1.1097793e-5, 1.3210114e-5
-0.487, 1.1305692e-5, 1.3339629e-5
-0.488, 1.1282589e-5, 1.3330480e-5
-0.489, 1.1331744e-5, 1.3394298e-5
-0.490, 1.1454062e-5, 1.3524977e-5
-0.491, 1.1316559e-5, 1.3396823e-5
-0.492, 1.1298949e-5, 1.3331468e-5
-0.493, 1.1281007e-5, 1.3325498e-5
-0.494, 1.1381086e-5, 1.3436063e-5
-0.495, 1.1486081e-5, 1.3552532e-5
-0.496, 1.1332336e-5, 1.3404828e-5
-0.497, 1.1310556e-5, 1.3339219e-5
-0.498, 1.1320086e-5, 1.3353075e-5
-0.499, 1.1384864e-5, 1.3426696e-5
-0.500, 1.1518123e-5, 1.3582687e-5
