Jan. 28, 2006   03:56:43
Cyclic Voltammetry
File: z:\users\scottsaunders\git\labwork\ida\01_17_19_psoralen_nonequil_2\data\psoralen\4\75um_psoralen_soak_4_gc_1.txt
Data Source:  Experiment
Instrument Model:  CHI760E
Header: 
Note: 

Init E (V) = 0
High E (V) = 0
Low E (V) = -0.4
Init P/N = N
Scan Rate (V/s) = 0.003
Segment = 1
Sample Interval (V) = 0.001
Quiet Time (sec) = 2
Sensitivity (A/V) = 1e-5
2nd E (V) = 0
Sens 2 (A/V) = 1e-5

Potential/V, i1/A, i2/A, Time/s

0.000, -1.2803487e-7, -1.3427704e-7, 3.3333334e-1
-0.001, -1.1676779e-7, -1.2390052e-7, 6.6666669e-1
-0.002, -1.0870132e-7, -1.1554494e-7, 1.0000000e+0
-0.003, -1.0198124e-7, -1.0869029e-7, 1.3333334e+0
-0.004, -9.6312263e-8, -1.0278113e-7, 1.6666667e+0
-0.005, -9.1588120e-8, -9.7616500e-8, 2.0000000e+0
-0.006, -8.7194671e-8, -9.3019153e-8, 2.3333333e+0
-0.007, -8.3297259e-8, -8.8941832e-8, 2.6666665e+0
-0.008, -7.9836823e-8, -8.5313594e-8, 2.9999998e+0
-0.009, -7.6695272e-8, -8.2075360e-8, 3.3333330e+0
-0.010, -7.3860782e-8, -7.9049869e-8, 3.6666663e+0
-0.011, -7.1168024e-8, -7.6367094e-8, 3.9999995e+0
-0.012, -6.8746907e-8, -7.3991608e-8, 4.3333330e+0
-0.013, -6.6644660e-8, -7.1781571e-8, 4.6666665e+0
-0.014, -6.4554229e-8, -6.9725189e-8, 5.0000000e+0
-0.015, -6.2652759e-8, -6.7834243e-8, 5.3333335e+0
-0.016, -6.0952068e-8, -6.5978767e-8, 5.6666670e+0
-0.017, -5.9215946e-8, -6.4276918e-8, 6.0000005e+0
-0.018, -5.7621552e-8, -6.2693260e-8, 6.3333340e+0
-0.019, -5.6145261e-8, -6.1239604e-8, 6.6666675e+0
-0.020, -5.4728016e-8, -5.9904131e-8, 7.0000010e+0
-0.021, -5.3440687e-8, -5.8627748e-8, 7.3333344e+0
-0.022, -5.2212410e-8, -5.7516822e-8, 7.6666679e+0
-0.023, -5.1031371e-8, -5.6441351e-8, 8.0000010e+0
-0.024, -4.9897579e-8, -5.5424970e-8, 8.3333340e+0
-0.025, -4.8775597e-8, -5.4467687e-8, 8.6666670e+0
-0.026, -4.7724480e-8, -5.3380397e-8, 9.0000000e+0
-0.027, -4.6708788e-8, -5.2482200e-8, 9.3333330e+0
-0.028, -4.5787580e-8, -5.1572187e-8, 9.6666660e+0
-0.029, -4.4866372e-8, -5.0733082e-8, 9.9999990e+0
-0.030, -4.3886111e-8, -4.9905800e-8, 1.0333332e+1
-0.031, -4.3035769e-8, -4.9149424e-8, 1.0666665e+1
-0.032, -4.2338954e-8, -4.8404864e-8, 1.0999998e+1
-0.033, -4.1583096e-8, -4.7672128e-8, 1.1333331e+1
-0.034, -4.0803606e-8, -4.6974847e-8, 1.1666664e+1
-0.035, -4.0142229e-8, -4.6253930e-8, 1.1999997e+1
-0.036, -3.9480849e-8, -4.5568463e-8, 1.2333330e+1
-0.037, -3.8843091e-8, -4.4918455e-8, 1.2666663e+1
-0.038, -3.8205332e-8, -4.4315716e-8, 1.2999996e+1
-0.039, -3.7508521e-8, -4.3677524e-8, 1.3333329e+1
-0.040, -3.6882572e-8, -4.3122064e-8, 1.3666662e+1
-0.041, -3.6303863e-8, -4.2531145e-8, 1.3999995e+1
-0.042, -3.5642486e-8, -4.1892957e-8, 1.4333328e+1
-0.043, -3.5111018e-8, -4.1396586e-8, 1.4666661e+1
-0.044, -3.4591363e-8, -4.0971123e-8, 1.4999994e+1
-0.045, -3.4095329e-8, -4.0427476e-8, 1.5333327e+1
-0.046, -3.3575674e-8, -3.9966565e-8, 1.5666660e+1
-0.047, -3.3044206e-8, -3.9552919e-8, 1.5999993e+1
-0.048, -3.2642657e-8, -3.9115641e-8, 1.6333326e+1
-0.049, -3.2134810e-8, -3.8749274e-8, 1.6666660e+1
-0.050, -3.1745071e-8, -3.8406540e-8, 1.6999994e+1
-0.051, -3.1272656e-8, -3.8051990e-8, 1.7333328e+1
-0.052, -3.0812053e-8, -3.7626531e-8, 1.7666662e+1
-0.053, -3.0398688e-8, -3.7177429e-8, 1.7999996e+1
-0.054, -2.9938086e-8, -3.6834699e-8, 1.8333330e+1
-0.055, -2.9548342e-8, -3.6515601e-8, 1.8666664e+1
-0.056, -2.9194032e-8, -3.6231963e-8, 1.8999998e+1
-0.057, -2.8792481e-8, -3.5759228e-8, 1.9333332e+1
-0.058, -2.8509033e-8, -3.5416495e-8, 1.9666666e+1
-0.059, -2.8012996e-8, -3.5227401e-8, 2.0000000e+1
-0.060, -2.7694119e-8, -3.4967396e-8, 2.0333334e+1
-0.061, -2.7351618e-8, -3.4601030e-8, 2.0666668e+1
-0.062, -2.6938256e-8, -3.4305572e-8, 2.1000002e+1
-0.063, -2.6772911e-8, -3.4045566e-8, 2.1333336e+1
-0.064, -2.6359547e-8, -3.3761925e-8, 2.1666670e+1
-0.065, -2.6005239e-8, -3.3159189e-8, 2.2000004e+1
-0.066, -2.5792652e-8, -3.3029188e-8, 2.2333338e+1
-0.067, -2.5367477e-8, -3.2615546e-8, 2.2666672e+1
-0.068, -2.5237565e-8, -3.2260996e-8, 2.3000006e+1
-0.069, -2.4942306e-8, -3.2308268e-8, 2.3333340e+1
-0.070, -2.4528942e-8, -3.2071902e-8, 2.3666674e+1
-0.071, -2.4304548e-8, -3.1870986e-8, 2.4000008e+1
-0.072, -2.4103771e-8, -3.1823717e-8, 2.4333342e+1
-0.073, -2.3820323e-8, -3.1587351e-8, 2.4666676e+1
-0.074, -2.3607736e-8, -3.1256434e-8, 2.5000010e+1
-0.075, -2.3336097e-8, -3.1008248e-8, 2.5333344e+1
-0.076, -2.3158943e-8, -3.0878248e-8, 2.5666677e+1
-0.077, -2.2946356e-8, -3.0559150e-8, 2.6000011e+1
-0.078, -2.2698339e-8, -3.0299148e-8, 2.6333345e+1
-0.079, -2.2414891e-8, -3.0157327e-8, 2.6666679e+1
-0.080, -2.2131442e-8, -2.9767321e-8, 2.7000013e+1
-0.081, -2.1918858e-8, -2.9341862e-8, 2.7333347e+1
-0.082, -2.1694460e-8, -2.9554592e-8, 2.7666681e+1
-0.083, -2.1540925e-8, -2.9613684e-8, 2.8000015e+1
-0.084, -2.1351960e-8, -2.9270950e-8, 2.8333349e+1
-0.085, -2.1162995e-8, -2.8632760e-8, 2.8666683e+1
-0.086, -2.0985841e-8, -2.8774581e-8, 2.9000017e+1
-0.087, -2.0702389e-8, -2.8833671e-8, 2.9333351e+1
-0.088, -2.0395321e-8, -2.8750945e-8, 2.9666685e+1
-0.089, -2.0300838e-8, -2.8739123e-8, 3.0000019e+1
-0.090, -2.0170924e-8, -2.8278208e-8, 3.0333353e+1
-0.091, -2.0052823e-8, -2.8100935e-8, 3.0666687e+1
-0.092, -1.9804805e-8, -2.8195480e-8, 3.1000021e+1
-0.093, -1.9509544e-8, -2.7959112e-8, 3.1333355e+1
-0.094, -1.9367821e-8, -2.7226376e-8, 3.1666689e+1
-0.095, -1.9332390e-8, -2.7120011e-8, 3.2000023e+1
-0.096, -1.9202476e-8, -2.7356377e-8, 3.2333355e+1
-0.097, -1.8966269e-8, -2.7108191e-8, 3.2666687e+1
-0.098, -1.8765492e-8, -2.6978190e-8, 3.3000019e+1
-0.099, -1.8706441e-8, -2.7320922e-8, 3.3333351e+1
-0.100, -1.8493855e-8, -2.7368197e-8, 3.3666683e+1
-0.101, -1.8352130e-8, -2.7037283e-8, 3.4000015e+1
-0.102, -1.8115923e-8, -2.6930914e-8, 3.4333347e+1
-0.103, -1.8009631e-8, -2.6883644e-8, 3.4666679e+1
-0.104, -1.7808853e-8, -2.6682731e-8, 3.5000011e+1
-0.105, -1.7619888e-8, -2.6162725e-8, 3.5333344e+1
-0.106, -1.7501785e-8, -2.6257270e-8, 3.5666676e+1
-0.107, -1.7336440e-8, -2.6103633e-8, 3.6000008e+1
-0.108, -1.7135664e-8, -2.5926354e-8, 3.6333340e+1
-0.109, -1.7206526e-8, -2.6257270e-8, 3.6666672e+1
-0.110, -1.6958507e-8, -2.6009085e-8, 3.7000004e+1
-0.111, -1.6852216e-8, -2.5997267e-8, 3.7333336e+1
-0.112, -1.6804973e-8, -2.5666351e-8, 3.7666668e+1
-0.113, -1.6556957e-8, -2.5890900e-8, 3.8000000e+1
-0.114, -1.6462474e-8, -2.5914538e-8, 3.8333332e+1
-0.115, -1.6356180e-8, -2.5772719e-8, 3.8666664e+1
-0.116, -1.6155406e-8, -2.5666351e-8, 3.8999996e+1
-0.117, -1.6025492e-8, -2.5512712e-8, 3.9333328e+1
-0.118, -1.5919198e-8, -2.5382711e-8, 3.9666660e+1
-0.119, -1.5801094e-8, -2.5311801e-8, 3.9999992e+1
-0.120, -1.5564888e-8, -2.5382711e-8, 4.0333324e+1
-0.121, -1.5423163e-8, -2.5299984e-8, 4.0666656e+1
-0.122, -1.5364112e-8, -2.4720883e-8, 4.0999989e+1
-0.123, -1.5163335e-8, -2.4602699e-8, 4.1333321e+1
-0.124, -1.4962559e-8, -2.4850888e-8, 4.1666653e+1
-0.125, -1.4797213e-8, -2.4472698e-8, 4.1999985e+1
-0.126, -1.4738163e-8, -2.4779975e-8, 4.2333317e+1
-0.127, -1.4667300e-8, -2.4909976e-8, 4.2666649e+1
-0.128, -1.4537386e-8, -2.4649975e-8, 4.2999981e+1
-0.129, -1.4312990e-8, -2.4531790e-8, 4.3333313e+1
-0.130, -1.4171266e-8, -2.4649975e-8, 4.3666645e+1
-0.131, -1.4029542e-8, -2.4555428e-8, 4.3999977e+1
-0.132, -1.3805145e-8, -2.4437243e-8, 4.4333309e+1
-0.133, -1.3639800e-8, -2.4330879e-8, 4.4666641e+1
-0.134, -1.3450834e-8, -2.4330879e-8, 4.4999973e+1
-0.135, -1.3427214e-8, -2.4307241e-8, 4.5333305e+1
-0.136, -1.3202818e-8, -2.4271786e-8, 4.5666637e+1
-0.137, -1.2990230e-8, -2.4295423e-8, 4.5999969e+1
-0.138, -1.2801265e-8, -2.4307241e-8, 4.6333302e+1
-0.139, -1.2600488e-8, -2.4224514e-8, 4.6666634e+1
-0.140, -1.2506005e-8, -2.4212694e-8, 4.6999966e+1
-0.141, -1.2364282e-8, -2.4212694e-8, 4.7333298e+1
-0.142, -1.2139885e-8, -2.4189056e-8, 4.7666630e+1
-0.143, -1.1962729e-8, -2.4082693e-8, 4.7999962e+1
-0.144, -1.1797384e-8, -2.4023601e-8, 4.8333294e+1
-0.145, -1.1513936e-8, -2.4011781e-8, 4.8666626e+1
-0.146, -1.1372212e-8, -2.4023601e-8, 4.8999958e+1
-0.147, -1.1159626e-8, -2.4011781e-8, 4.9333290e+1
-0.148, -1.0982471e-8, -2.4011781e-8, 4.9666622e+1
-0.149, -1.0828935e-8, -2.3988145e-8, 4.9999954e+1
-0.150, -1.0569108e-8, -2.4035421e-8, 5.0333286e+1
-0.151, -1.0356522e-8, -2.4047237e-8, 5.0666618e+1
-0.152, -1.0037642e-8, -2.3917236e-8, 5.0999950e+1
-0.153, -9.9077280e-9, -2.3940872e-8, 5.1333282e+1
-0.154, -9.6951425e-9, -2.3881780e-8, 5.1666615e+1
-0.155, -9.4235046e-9, -2.3834508e-8, 5.1999947e+1
-0.156, -9.1754870e-9, -2.3905418e-8, 5.2333279e+1
-0.157, -8.9156593e-9, -2.4011781e-8, 5.2666611e+1
-0.158, -8.6558307e-9, -2.4023601e-8, 5.2999943e+1
-0.159, -8.3487617e-9, -2.4059055e-8, 5.3333275e+1
-0.160, -8.0416926e-9, -2.4177240e-8, 5.3666607e+1
-0.161, -7.6991933e-9, -2.4330879e-8, 5.3999939e+1
-0.162, -7.3566921e-9, -2.4378149e-8, 5.4333271e+1
-0.163, -7.1677269e-9, -2.4449063e-8, 5.4666603e+1
-0.164, -6.7897954e-9, -2.4484519e-8, 5.4999935e+1
-0.165, -6.4472956e-9, -2.4543606e-8, 5.5333267e+1
-0.166, -6.0811742e-9, -2.4614520e-8, 5.5666599e+1
-0.167, -5.6796221e-9, -2.4673611e-8, 5.5999931e+1
-0.168, -5.2544502e-9, -2.4803612e-8, 5.6333263e+1
-0.169, -4.9591913e-9, -2.4933616e-8, 5.6666595e+1
-0.170, -4.4631561e-9, -2.5004525e-8, 5.6999928e+1
-0.171, -3.9080694e-9, -2.5217252e-8, 5.7333260e+1
-0.172, -3.3529832e-9, -2.5406349e-8, 5.7666592e+1
-0.173, -2.8687590e-9, -2.5429985e-8, 5.7999924e+1
-0.174, -2.2191895e-9, -2.5512712e-8, 5.8333256e+1
-0.175, -1.7703958e-9, -2.5737261e-8, 5.8666588e+1
-0.176, -1.0263437e-9, -2.6032721e-8, 5.8999920e+1
-0.177, -4.7125720e-10, -2.6375453e-8, 5.9333252e+1
-0.178, 1.7831214e-10, -2.6753641e-8, 5.9666584e+1
-0.179, 9.1055397e-10, -2.7025463e-8, 5.9999916e+1
-0.180, 1.7608993e-9, -2.7202740e-8, 6.0333248e+1
-0.181, 2.4577103e-9, -2.7403651e-8, 6.0666580e+1
-0.182, 3.2844349e-9, -2.7817293e-8, 6.0999912e+1
-0.183, 4.0757282e-9, -2.8112751e-8, 6.1333244e+1
-0.184, 4.9496949e-9, -2.8384575e-8, 6.1666576e+1
-0.185, 5.9181433e-9, -2.8869124e-8, 6.1999908e+1
-0.186, 6.8984023e-9, -2.9341862e-8, 6.2333241e+1
-0.187, 8.0085751e-9, -2.9909142e-8, 6.2666573e+1
-0.188, 9.2014218e-9, -3.0440965e-8, 6.2999905e+1
-0.189, 1.0382458e-8, -3.0937340e-8, 6.3333237e+1
-0.190, 1.1669785e-8, -3.1587351e-8, 6.3666569e+1
-0.191, 1.2992545e-8, -3.2320084e-8, 6.3999901e+1
-0.192, 1.4409785e-8, -3.2993732e-8, 6.4333237e+1
-0.193, 1.5886082e-8, -3.3726469e-8, 6.4666573e+1
-0.194, 1.7492289e-8, -3.4530121e-8, 6.4999908e+1
-0.195, 1.9192980e-8, -3.5522859e-8, 6.5333244e+1
-0.196, 2.0988152e-8, -3.6409237e-8, 6.5666580e+1
-0.197, 2.2795136e-8, -3.7366526e-8, 6.5999916e+1
-0.198, 2.4791087e-8, -3.8382904e-8, 6.6333252e+1
-0.199, 2.6810655e-8, -3.9541099e-8, 6.6666588e+1
-0.200, 2.9090055e-8, -4.0864762e-8, 6.6999924e+1
-0.201, 3.1570227e-8, -4.2235687e-8, 6.7333260e+1
-0.202, 3.4133073e-8, -4.3677524e-8, 6.7666595e+1
-0.203, 3.7026613e-8, -4.5320277e-8, 6.7999931e+1
-0.204, 3.9931958e-8, -4.7010303e-8, 6.8333267e+1
-0.205, 4.2872735e-8, -4.8712145e-8, 6.8666603e+1
-0.206, 4.6156014e-8, -5.0555812e-8, 6.8999939e+1
-0.207, 4.9581015e-8, -5.2529476e-8, 6.9333275e+1
-0.208, 5.3147737e-8, -5.4538599e-8, 6.9666611e+1
-0.209, 5.7033347e-8, -5.6677717e-8, 6.9999947e+1
-0.210, 6.1048866e-8, -5.8958658e-8, 7.0333282e+1
-0.211, 6.5324215e-8, -6.1570518e-8, 7.0666618e+1
-0.212, 6.9705855e-8, -6.4525103e-8, 7.0999954e+1
-0.213, 7.4122923e-8, -6.7786971e-8, 7.1333290e+1
-0.214, 7.9036035e-8, -7.0966109e-8, 7.1666626e+1
-0.215, 8.4338872e-8, -7.4405250e-8, 7.1999962e+1
-0.216, 9.0078707e-8, -7.7986215e-8, 7.2333298e+1
-0.217, 9.6078374e-8, -8.1720813e-8, 7.2666634e+1
-0.218, 1.0201897e-7, -8.5679964e-8, 7.2999969e+1
-0.219, 1.0884536e-7, -8.9934566e-8, 7.3333305e+1
-0.220, 1.1589614e-7, -9.4579185e-8, 7.3666641e+1
-0.221, 1.2310045e-7, -9.9483799e-8, 7.3999977e+1
-0.222, 1.3090710e-7, -1.0456569e-7, 7.4333313e+1
-0.223, 1.3918616e-7, -1.0987213e-7, 7.4666649e+1
-0.224, 1.4786676e-7, -1.1556858e-7, 7.4999985e+1
-0.225, 1.5686625e-7, -1.2172595e-7, 7.5333321e+1
-0.226, 1.6619644e-7, -1.2819059e-7, 7.5666656e+1
-0.227, 1.7629429e-7, -1.3497433e-7, 7.5999992e+1
-0.228, 1.8656928e-7, -1.4219535e-7, 7.6333328e+1
-0.229, 1.9725765e-7, -1.4983000e-7, 7.6666664e+1
-0.230, 2.0874913e-7, -1.5791375e-7, 7.7000000e+1
-0.231, 2.2042957e-7, -1.6618660e-7, 7.7333336e+1
-0.232, 2.3240527e-7, -1.7514490e-7, 7.7666672e+1
-0.233, 2.4486519e-7, -1.8438685e-7, 7.8000008e+1
-0.234, 2.5821089e-7, -1.9380610e-7, 7.8333344e+1
-0.235, 2.7211166e-7, -2.0404079e-7, 7.8666679e+1
-0.236, 2.8641401e-7, -2.1458277e-7, 7.9000015e+1
-0.237, 3.0117693e-7, -2.2556202e-7, 7.9333351e+1
-0.238, 3.1687293e-7, -2.3729766e-7, 7.9666687e+1
-0.239, 3.3249799e-7, -2.4919873e-7, 8.0000023e+1
-0.240, 3.4902070e-7, -2.6167891e-7, 8.0333359e+1
-0.241, 3.6586223e-7, -2.7458458e-7, 8.0666695e+1
-0.242, 3.8277466e-7, -2.8786840e-7, 8.1000031e+1
-0.243, 4.0060829e-7, -3.0168405e-7, 8.1333366e+1
-0.244, 4.1866633e-7, -3.1564150e-7, 8.1666702e+1
-0.245, 4.3714951e-7, -3.2969359e-7, 8.2000038e+1
-0.246, 4.5601064e-7, -3.4475013e-7, 8.2333374e+1
-0.247, 4.7508436e-7, -3.6009035e-7, 8.2666710e+1
-0.248, 4.9458328e-7, -3.7557240e-7, 8.3000046e+1
-0.249, 5.1440105e-7, -3.9175171e-7, 8.3333382e+1
-0.250, 5.3440777e-7, -4.0836832e-7, 8.3666718e+1
-0.251, 5.5461527e-7, -4.2499676e-7, 8.4000053e+1
-0.252, 5.7483464e-7, -4.4195610e-7, 8.4333389e+1
-0.253, 5.9518385e-7, -4.5904545e-7, 8.4666725e+1
-0.254, 6.1566300e-7, -4.7652478e-7, 8.5000061e+1
-0.255, 6.3576420e-7, -4.9398051e-7, 8.5333397e+1
-0.256, 6.5607804e-7, -5.1123533e-7, 8.5666733e+1
-0.257, 6.7663979e-7, -5.2884468e-7, 8.6000069e+1
-0.258, 6.9689457e-7, -5.4692674e-7, 8.6333405e+1
-0.259, 7.1690135e-7, -5.6480792e-7, 8.6666740e+1
-0.260, 7.3689631e-7, -5.8260639e-7, 8.7000076e+1
-0.261, 7.5682027e-7, -6.0058210e-7, 8.7333412e+1
-0.262, 7.7648457e-7, -6.1819139e-7, 8.7666748e+1
-0.263, 7.9591257e-7, -6.3584804e-7, 8.8000084e+1
-0.264, 8.1492720e-7, -6.5330374e-7, 8.8333420e+1
-0.265, 8.3352853e-7, -6.7075950e-7, 8.8666756e+1
-0.266, 8.5153937e-7, -6.8784885e-7, 8.9000092e+1
-0.267, 8.6942021e-7, -7.0539903e-7, 8.9333427e+1
-0.268, 8.8695867e-7, -7.2211020e-7, 8.9666763e+1
-0.269, 9.0378842e-7, -7.3876231e-7, 9.0000099e+1
-0.270, 9.2044093e-7, -7.5481159e-7, 9.0333435e+1
-0.271, 9.3668018e-7, -7.7041193e-7, 9.0666771e+1
-0.272, 9.5235248e-7, -7.8551574e-7, 9.1000107e+1
-0.273, 9.6746976e-7, -8.0061960e-7, 9.1333443e+1
-0.274, 9.8213820e-7, -8.1541612e-7, 9.1666779e+1
-0.275, 9.9649958e-7, -8.2969274e-7, 9.2000114e+1
-0.276, 1.0104949e-6, -8.4340195e-7, 9.2333450e+1
-0.277, 1.0232383e-6, -8.5702857e-7, 9.2666786e+1
-0.278, 1.0356391e-6, -8.6983971e-7, 9.3000122e+1
-0.279, 1.0480636e-6, -8.8282809e-7, 9.3333458e+1
-0.280, 1.0599566e-6, -8.9497729e-7, 9.3666794e+1
-0.281, 1.0716490e-6, -9.0698478e-7, 9.4000130e+1
-0.282, 1.0825735e-6, -9.1861403e-7, 9.4333466e+1
-0.283, 1.0931083e-6, -9.2986517e-7, 9.4666801e+1
-0.284, 1.1033715e-6, -9.4069077e-7, 9.5000137e+1
-0.285, 1.1132568e-6, -9.5104355e-7, 9.5333473e+1
-0.286, 1.1224806e-6, -9.6120743e-7, 9.5666809e+1
-0.287, 1.1313974e-6, -9.7105215e-7, 9.6000145e+1
-0.288, 1.1399718e-6, -9.8110945e-7, 9.6333481e+1
-0.289, 1.1482508e-6, -9.9038687e-7, 9.6666817e+1
-0.290, 1.1561756e-6, -9.9878969e-7, 9.7000153e+1
-0.291, 1.1637933e-6, -1.0071100e-6, 9.7333488e+1
-0.292, 1.1711156e-6, -1.0154890e-6, 9.7666824e+1
-0.293, 1.1781192e-6, -1.0233838e-6, 9.8000160e+1
-0.294, 1.1848747e-6, -1.0310774e-6, 9.8333496e+1
-0.295, 1.1912641e-6, -1.0385230e-6, 9.8666832e+1
-0.296, 1.1975591e-6, -1.0457560e-6, 9.9000168e+1
-0.297, 1.2034642e-6, -1.0524687e-6, 9.9333504e+1
-0.298, 1.2082475e-6, -1.0590752e-6, 9.9666840e+1
-0.299, 1.2124401e-6, -1.0655871e-6, 1.0000018e+2
-0.300, 1.2168808e-6, -1.0718981e-6, 1.0033351e+2
-0.301, 1.2216876e-6, -1.0779728e-6, 1.0066685e+2
-0.302, 1.2265771e-6, -1.0837874e-6, 1.0100018e+2
-0.303, 1.2314193e-6, -1.0894720e-6, 1.0133352e+2
-0.304, 1.2359545e-6, -1.0948493e-6, 1.0166685e+2
-0.305, 1.2403361e-6, -1.1000612e-6, 1.0200019e+2
-0.306, 1.2447650e-6, -1.1049541e-6, 1.0233353e+2
-0.307, 1.2489812e-6, -1.1097877e-6, 1.0266686e+2
-0.308, 1.2529732e-6, -1.1146096e-6, 1.0300020e+2
-0.309, 1.2568471e-6, -1.1191597e-6, 1.0333353e+2
-0.310, 1.2607208e-6, -1.1236862e-6, 1.0366687e+2
-0.311, 1.2644647e-6, -1.1276217e-6, 1.0400021e+2
-0.312, 1.2681141e-6, -1.1320890e-6, 1.0433354e+2
-0.313, 1.2719643e-6, -1.1365327e-6, 1.0466688e+2
-0.314, 1.2755664e-6, -1.1399718e-6, 1.0500021e+2
-0.315, 1.2792630e-6, -1.1440728e-6, 1.0533355e+2
-0.316, 1.2827943e-6, -1.1478193e-6, 1.0566689e+2
-0.317, 1.2861840e-6, -1.1514711e-6, 1.0600022e+2
-0.318, 1.2894790e-6, -1.1547330e-6, 1.0633356e+2
-0.319, 1.2925971e-6, -1.1581602e-6, 1.0666689e+2
-0.320, 1.2955023e-6, -1.1619539e-6, 1.0700023e+2
-0.321, 1.2985257e-6, -1.1656294e-6, 1.0733356e+2
-0.322, 1.3014784e-6, -1.1689268e-6, 1.0766690e+2
-0.323, 1.3043837e-6, -1.1722832e-6, 1.0800024e+2
-0.324, 1.3073244e-6, -1.1760533e-6, 1.0833357e+2
-0.325, 1.3101235e-6, -1.1795634e-6, 1.0866691e+2
-0.326, 1.3128399e-6, -1.1827543e-6, 1.0900024e+2
-0.327, 1.3155917e-6, -1.1855434e-6, 1.0933358e+2
-0.328, 1.3182490e-6, -1.1885808e-6, 1.0966692e+2
-0.329, 1.3210245e-6, -1.1914171e-6, 1.1000025e+2
-0.330, 1.3236109e-6, -1.1943481e-6, 1.1033359e+2
-0.331, 1.3261738e-6, -1.1970900e-6, 1.1066692e+2
-0.332, 1.3289846e-6, -1.2002928e-6, 1.1100026e+2
-0.333, 1.3314294e-6, -1.2029991e-6, 1.1133360e+2
-0.334, 1.3341811e-6, -1.2057765e-6, 1.1166693e+2
-0.335, 1.3364370e-6, -1.2085892e-6, 1.1200027e+2
-0.336, 1.3387637e-6, -1.2109410e-6, 1.1233360e+2
-0.337, 1.3413147e-6, -1.2133756e-6, 1.1266694e+2
-0.338, 1.3437830e-6, -1.2160584e-6, 1.1300027e+2
-0.339, 1.3464403e-6, -1.2184930e-6, 1.1333361e+2
-0.340, 1.3489559e-6, -1.2208684e-6, 1.1366695e+2
-0.341, 1.3514125e-6, -1.2233504e-6, 1.1400028e+2
-0.342, 1.3539046e-6, -1.2258913e-6, 1.1433362e+2
-0.343, 1.3563021e-6, -1.2283259e-6, 1.1466695e+2
-0.344, 1.3586759e-6, -1.2308431e-6, 1.1500029e+2
-0.345, 1.3610969e-6, -1.2334315e-6, 1.1533363e+2
-0.346, 1.3633763e-6, -1.2358895e-6, 1.1566696e+2
-0.347, 1.3657622e-6, -1.2382060e-6, 1.1600030e+2
-0.348, 1.3682304e-6, -1.2405106e-6, 1.1633363e+2
-0.349, 1.3706870e-6, -1.2428742e-6, 1.1666697e+2
-0.350, 1.3732262e-6, -1.2451434e-6, 1.1700031e+2
-0.351, 1.3756945e-6, -1.2474126e-6, 1.1733364e+2
-0.352, 1.3780329e-6, -1.2497408e-6, 1.1766698e+2
-0.353, 1.3803124e-6, -1.2521280e-6, 1.1800031e+2
-0.354, 1.3825328e-6, -1.2545390e-6, 1.1833365e+2
-0.355, 1.3847650e-6, -1.2570208e-6, 1.1866698e+2
-0.356, 1.3871150e-6, -1.2595381e-6, 1.1900032e+2
-0.357, 1.3892883e-6, -1.2622208e-6, 1.1933366e+2
-0.358, 1.3916504e-6, -1.2648209e-6, 1.1966699e+2
-0.359, 1.3938471e-6, -1.2672083e-6, 1.2000033e+2
-0.360, 1.3961265e-6, -1.2696073e-6, 1.2033366e+2
-0.361, 1.3984650e-6, -1.2717584e-6, 1.2066700e+2
-0.362, 1.4008507e-6, -1.2739329e-6, 1.2100034e+2
-0.363, 1.4032009e-6, -1.2762375e-6, 1.2133367e+2
-0.364, 1.4055394e-6, -1.2785539e-6, 1.2166701e+2
-0.365, 1.4077833e-6, -1.2808466e-6, 1.2200034e+2
-0.366, 1.4098857e-6, -1.2833167e-6, 1.2233368e+2
-0.367, 1.4121296e-6, -1.2857630e-6, 1.2266702e+2
-0.368, 1.4142200e-6, -1.2881386e-6, 1.2300035e+2
-0.369, 1.4165230e-6, -1.2901712e-6, 1.2333369e+2
-0.370, 1.4186606e-6, -1.2922513e-6, 1.2366702e+2
-0.371, 1.4210347e-6, -1.2943786e-6, 1.2400036e+2
-0.372, 1.4233138e-6, -1.2963760e-6, 1.2433369e+2
-0.373, 1.4256287e-6, -1.2985270e-6, 1.2466703e+2
-0.374, 1.4280499e-6, -1.3007015e-6, 1.2500037e+2
-0.375, 1.4304238e-6, -1.3027698e-6, 1.2533370e+2
-0.376, 1.4327151e-6, -1.3049323e-6, 1.2566704e+2
-0.377, 1.4350535e-6, -1.3073908e-6, 1.2600037e+2
-0.378, 1.4373092e-6, -1.3091161e-6, 1.2633371e+2
-0.379, 1.4396477e-6, -1.3115272e-6, 1.2666705e+2
-0.380, 1.4420216e-6, -1.3138081e-6, 1.2700038e+2
-0.381, 1.4443717e-6, -1.3160179e-6, 1.2733372e+2
-0.382, 1.4465330e-6, -1.3182398e-6, 1.2766705e+2
-0.383, 1.4488714e-6, -1.3204265e-6, 1.2800038e+2
-0.384, 1.4510802e-6, -1.3228255e-6, 1.2833371e+2
-0.385, 1.4533358e-6, -1.3251891e-6, 1.2866704e+2
-0.386, 1.4552492e-6, -1.3274464e-6, 1.2900037e+2
-0.387, 1.4575756e-6, -1.3296800e-6, 1.2933369e+2
-0.388, 1.4593001e-6, -1.3319020e-6, 1.2966702e+2
-0.389, 1.4608590e-6, -1.3342419e-6, 1.3000035e+2
-0.390, 1.4629495e-6, -1.3364638e-6, 1.3033368e+2
-0.391, 1.4648626e-6, -1.3387211e-6, 1.3066701e+2
-0.392, 1.4668705e-6, -1.3409311e-6, 1.3100034e+2
-0.393, 1.4687130e-6, -1.3429758e-6, 1.3133366e+2
-0.394, 1.4704608e-6, -1.3451976e-6, 1.3166699e+2
-0.395, 1.4724332e-6, -1.3475021e-6, 1.3200032e+2
-0.396, 1.4741693e-6, -1.3495941e-6, 1.3233365e+2
-0.397, 1.4758108e-6, -1.3516033e-6, 1.3266698e+2
-0.398, 1.4774998e-6, -1.3536122e-6, 1.3300031e+2
-0.399, 1.4791651e-6, -1.3555386e-6, 1.3333363e+2
