Jan. 28, 2006   00:04:31
Square Wave Voltammetry
File: z:\users\scottsaunders\git\labwork\ida\01_17_19_psoralen_nonequil_2\data\psoralen\1\75um_psoralen_soak_1_swv_1.txt
Data Source:  Experiment
Instrument Model:  CHI760E
Header: 
Note: 

Init E (V) = 0.1
Final E (V) = -0.5
Incr E (V) = 0.001
Amplitude (V) = 0.025
Frequency (Hz) = 300
Quiet Time (sec) = 2
Sensitivity (A/V) = 1e-5
Sens 2 (A/V) = 1e-5

Potential/V, i1/A, i2/A

0.099, 1.4849520e-5, 1.5073863e-5
0.098, 1.6230822e-5, 1.5720812e-5
0.097, 1.6236405e-5, 1.5655896e-5
0.096, 1.6210663e-5, 1.5629910e-5
0.095, 1.6178354e-5, 1.5614147e-5
0.094, 1.6158498e-5, 1.5605041e-5
0.093, 1.6109576e-5, 1.5576199e-5
0.092, 1.6070489e-5, 1.5536774e-5
0.091, 1.6058528e-5, 1.5535139e-5
0.090, 1.6030059e-5, 1.5521382e-5
0.089, 1.6013437e-5, 1.5525768e-5
0.088, 1.5964823e-5, 1.5497333e-5
0.087, 1.5925949e-5, 1.5454672e-5
0.086, 1.5920938e-5, 1.5464288e-5
0.085, 1.5896097e-5, 1.5447888e-5
0.084, 1.5866804e-5, 1.5441756e-5
0.083, 1.5828311e-5, 1.5421527e-5
0.082, 1.5793570e-5, 1.5382848e-5
0.081, 1.5779442e-5, 1.5391408e-5
0.080, 1.5759422e-5, 1.5375699e-5
0.079, 1.5740028e-5, 1.5376432e-5
0.078, 1.5700574e-5, 1.5364451e-5
0.077, 1.5663210e-5, 1.5314441e-5
0.076, 1.5647360e-5, 1.5321868e-5
0.075, 1.5634996e-5, 1.5320806e-5
0.074, 1.5615273e-5, 1.5310849e-5
0.073, 1.5568772e-5, 1.5299922e-5
0.072, 1.5536716e-5, 1.5249498e-5
0.071, 1.5524531e-5, 1.5257755e-5
0.070, 1.5511741e-5, 1.5263473e-5
0.069, 1.5485297e-5, 1.5247058e-5
0.068, 1.5442698e-5, 1.5234317e-5
0.067, 1.5418116e-5, 1.5199506e-5
0.066, 1.5409238e-5, 1.5201265e-5
0.065, 1.5381853e-5, 1.5195028e-5
0.064, 1.5369300e-5, 1.5190495e-5
0.063, 1.5327294e-5, 1.5177230e-5
0.062, 1.5303796e-5, 1.5148629e-5
0.061, 1.5287889e-5, 1.5142120e-5
0.060, 1.5275298e-5, 1.5145159e-5
0.059, 1.5260379e-5, 1.5150796e-5
0.058, 1.5219496e-5, 1.5126354e-5
0.057, 1.5188652e-5, 1.5093001e-5
0.056, 1.5179448e-5, 1.5097480e-5
0.055, 1.5166518e-5, 1.5092922e-5
0.054, 1.5153335e-5, 1.5102723e-5
0.053, 1.5111033e-5, 1.5077465e-5
0.052, 1.5080455e-5, 1.5039617e-5
0.051, 1.5078675e-5, 1.5058600e-5
0.050, 1.5059408e-5, 1.5043086e-5
0.049, 1.5056125e-5, 1.5062071e-5
0.048, 1.5016047e-5, 1.5042593e-5
0.047, 1.4989773e-5, 1.5003704e-5
0.046, 1.4984294e-5, 1.5019441e-5
0.045, 1.4968703e-5, 1.5009360e-5
0.044, 1.4959410e-5, 1.5015261e-5
0.043, 1.4918386e-5, 1.5004875e-5
0.042, 1.4891188e-5, 1.4958488e-5
0.041, 1.4887513e-5, 1.4972853e-5
0.040, 1.4877947e-5, 1.4978341e-5
0.039, 1.4859457e-5, 1.4970258e-5
0.038, 1.4826816e-5, 1.4962956e-5
0.037, 1.4800209e-5, 1.4922984e-5
0.036, 1.4796105e-5, 1.4929145e-5
0.035, 1.4778459e-5, 1.4931182e-5
0.034, 1.4771250e-5, 1.4927841e-5
0.033, 1.4734012e-5, 1.4916776e-5
0.032, 1.4710473e-5, 1.4885980e-5
0.031, 1.4702673e-5, 1.4884406e-5
0.030, 1.4698709e-5, 1.4893973e-5
0.029, 1.4686520e-5, 1.4894064e-5
0.028, 1.4646597e-5, 1.4874118e-5
0.027, 1.4627147e-5, 1.4849315e-5
0.026, 1.4620885e-5, 1.4852612e-5
0.025, 1.4614467e-5, 1.4853444e-5
0.024, 1.4601833e-5, 1.4858653e-5
0.023, 1.4565001e-5, 1.4836804e-5
0.022, 1.4546680e-5, 1.4808615e-5
0.021, 1.4539954e-5, 1.4820379e-5
0.020, 1.4527237e-5, 1.4812729e-5
0.019, 1.4522935e-5, 1.4821742e-5
0.018, 1.4487389e-5, 1.4803746e-5
0.017, 1.4465218e-5, 1.4766725e-5
0.016, 1.4456367e-5, 1.4776048e-5
0.015, 1.4453521e-5, 1.4776970e-5
0.014, 1.4448923e-5, 1.4784325e-5
0.013, 1.4408808e-5, 1.4769072e-5
0.012, 1.4384899e-5, 1.4724506e-5
0.011, 1.4390320e-5, 1.4744781e-5
0.010, 1.4377825e-5, 1.4742617e-5
0.009, 1.4370698e-5, 1.4741387e-5
0.008, 1.4331774e-5, 1.4729307e-5
0.007, 1.4314600e-5, 1.4696318e-5
0.006, 1.4316751e-5, 1.4705568e-5
0.005, 1.4302320e-5, 1.4702732e-5
0.004, 1.4293679e-5, 1.4700738e-5
0.003, 1.4264386e-5, 1.4694044e-5
0.002, 1.4244648e-5, 1.4664984e-5
0.001, 1.4240345e-5, 1.4666504e-5
-0.000, 1.4234889e-5, 1.4670915e-5
-0.001, 1.4217396e-5, 1.4661688e-5
-0.002, 1.4186819e-5, 1.4646237e-5
-0.003, 1.4159968e-5, 1.4611041e-5
-0.004, 1.4162355e-5, 1.4622012e-5
-0.005, 1.4160175e-5, 1.4626385e-5
-0.006, 1.4149477e-5, 1.4630077e-5
-0.007, 1.4112224e-5, 1.4603253e-5
-0.008, 1.4096853e-5, 1.4576902e-5
-0.009, 1.4091841e-5, 1.4582844e-5
-0.010, 1.4093712e-5, 1.4591537e-5
-0.011, 1.4079133e-5, 1.4589042e-5
-0.012, 1.4048355e-5, 1.4573930e-5
-0.013, 1.4034641e-5, 1.4541538e-5
-0.014, 1.4024854e-5, 1.4546760e-5
-0.015, 1.4021925e-5, 1.4544669e-5
-0.016, 1.4010680e-5, 1.4545110e-5
-0.017, 1.3980687e-5, 1.4538467e-5
-0.018, 1.3965688e-5, 1.4501644e-5
-0.019, 1.3963765e-5, 1.4511777e-5
-0.020, 1.3954730e-5, 1.4510429e-5
-0.021, 1.3955144e-5, 1.4514730e-5
-0.022, 1.3914032e-5, 1.4498833e-5
-0.023, 1.3901079e-5, 1.4467922e-5
-0.024, 1.3902136e-5, 1.4474273e-5
-0.025, 1.3892593e-5, 1.4479640e-5
-0.026, 1.3889812e-5, 1.4474303e-5
-0.027, 1.3854503e-5, 1.4460088e-5
-0.028, 1.3834506e-5, 1.4431384e-5
-0.029, 1.3834408e-5, 1.4432067e-5
-0.030, 1.3829256e-5, 1.4439262e-5
-0.031, 1.3822424e-5, 1.4436308e-5
-0.032, 1.3792499e-5, 1.4420825e-5
-0.033, 1.3770254e-5, 1.4388981e-5
-0.034, 1.3776928e-5, 1.4397115e-5
-0.035, 1.3767843e-5, 1.4397661e-5
-0.036, 1.3761337e-5, 1.4403500e-5
-0.037, 1.3732194e-5, 1.4383771e-5
-0.038, 1.3715885e-5, 1.4355101e-5
-0.039, 1.3712432e-5, 1.4363097e-5
-0.040, 1.3706141e-5, 1.4356239e-5
-0.041, 1.3697668e-5, 1.4360193e-5
-0.042, 1.3673611e-5, 1.4352839e-5
-0.043, 1.3655144e-5, 1.4313944e-5
-0.044, 1.3646280e-5, 1.4321725e-5
-0.045, 1.3650855e-5, 1.4321375e-5
-0.046, 1.3639715e-5, 1.4321911e-5
-0.047, 1.3611163e-5, 1.4314697e-5
-0.048, 1.3591386e-5, 1.4271225e-5
-0.049, 1.3591918e-5, 1.4282162e-5
-0.050, 1.3594410e-5, 1.4291069e-5
-0.051, 1.3581708e-5, 1.4280482e-5
-0.052, 1.3543451e-5, 1.4266658e-5
-0.053, 1.3538947e-5, 1.4241373e-5
-0.054, 1.3538186e-5, 1.4245034e-5
-0.055, 1.3529811e-5, 1.4250489e-5
-0.056, 1.3524606e-5, 1.4243413e-5
-0.057, 1.3492010e-5, 1.4230709e-5
-0.058, 1.3480654e-5, 1.4209666e-5
-0.059, 1.3473127e-5, 1.4200692e-5
-0.060, 1.3469890e-5, 1.4208048e-5
-0.061, 1.3465698e-5, 1.4207712e-5
-0.062, 1.3435667e-5, 1.4188585e-5
-0.063, 1.3412055e-5, 1.4157500e-5
-0.064, 1.3419898e-5, 1.4167477e-5
-0.065, 1.3414642e-5, 1.4168534e-5
-0.066, 1.3406650e-5, 1.4172107e-5
-0.067, 1.3372930e-5, 1.4146442e-5
-0.068, 1.3359261e-5, 1.4119947e-5
-0.069, 1.3358574e-5, 1.4126213e-5
-0.070, 1.3353510e-5, 1.4123147e-5
-0.071, 1.3341938e-5, 1.4123232e-5
-0.072, 1.3314193e-5, 1.4110525e-5
-0.073, 1.3300797e-5, 1.4075973e-5
-0.074, 1.3295268e-5, 1.4080826e-5
-0.075, 1.3293507e-5, 1.4080222e-5
-0.076, 1.3284385e-5, 1.4080249e-5
-0.077, 1.3255367e-5, 1.4073295e-5
-0.078, 1.3238407e-5, 1.4036214e-5
-0.079, 1.3237668e-5, 1.4040908e-5
-0.080, 1.3235014e-5, 1.4043771e-5
-0.081, 1.3223474e-5, 1.4034000e-5
-0.082, 1.3193672e-5, 1.4028643e-5
-0.083, 1.3177644e-5, 1.3993380e-5
-0.084, 1.3169853e-5, 1.3990817e-5
-0.085, 1.3170762e-5, 1.4001869e-5
-0.086, 1.3163857e-5, 1.3991616e-5
-0.087, 1.3130174e-5, 1.3978273e-5
-0.088, 1.3115743e-5, 1.3952747e-5
-0.089, 1.3110701e-5, 1.3949300e-5
-0.090, 1.3112113e-5, 1.3958735e-5
-0.091, 1.3102324e-5, 1.3950994e-5
-0.092, 1.3068146e-5, 1.3930728e-5
-0.093, 1.3052459e-5, 1.3904680e-5
-0.094, 1.3051816e-5, 1.3902572e-5
-0.095, 1.3046515e-5, 1.3906993e-5
-0.096, 1.3036934e-5, 1.3908741e-5
-0.097, 1.3005483e-5, 1.3885361e-5
-0.098, 1.2994151e-5, 1.3860654e-5
-0.099, 1.2991436e-5, 1.3867954e-5
-0.100, 1.2986204e-5, 1.3862399e-5
-0.101, 1.2977502e-5, 1.3864725e-5
-0.102, 1.2945926e-5, 1.3847499e-5
-0.103, 1.2932396e-5, 1.3813802e-5
-0.104, 1.2924278e-5, 1.3816190e-5
-0.105, 1.2922157e-5, 1.3814984e-5
-0.106, 1.2916857e-5, 1.3817466e-5
-0.107, 1.2886493e-5, 1.3809098e-5
-0.108, 1.2867324e-5, 1.3767283e-5
-0.109, 1.2871013e-5, 1.3778574e-5
-0.110, 1.2865652e-5, 1.3778488e-5
-0.111, 1.2859256e-5, 1.3771923e-5
-0.112, 1.2826204e-5, 1.3764045e-5
-0.113, 1.2819091e-5, 1.3736947e-5
-0.114, 1.2819608e-5, 1.3739753e-5
-0.115, 1.2812305e-5, 1.3748082e-5
-0.116, 1.2804379e-5, 1.3735488e-5
-0.117, 1.2782097e-5, 1.3732242e-5
-0.118, 1.2767599e-5, 1.3708602e-5
-0.119, 1.2766128e-5, 1.3707661e-5
-0.120, 1.2764051e-5, 1.3713860e-5
-0.121, 1.2760302e-5, 1.3713013e-5
-0.122, 1.2738138e-5, 1.3703367e-5
-0.123, 1.2721622e-5, 1.3677969e-5
-0.124, 1.2725725e-5, 1.3682291e-5
-0.125, 1.2731920e-5, 1.3695596e-5
-0.126, 1.2727174e-5, 1.3700670e-5
-0.127, 1.2702179e-5, 1.3684723e-5
-0.128, 1.2698999e-5, 1.3667237e-5
-0.129, 1.2697868e-5, 1.3673078e-5
-0.130, 1.2706400e-5, 1.3684721e-5
-0.131, 1.2704507e-5, 1.3690904e-5
-0.132, 1.2685071e-5, 1.3688002e-5
-0.133, 1.2685388e-5, 1.3667877e-5
-0.134, 1.2683488e-5, 1.3676065e-5
-0.135, 1.2695635e-5, 1.3689762e-5
-0.136, 1.2697469e-5, 1.3698506e-5
-0.137, 1.2680805e-5, 1.3705483e-5
-0.138, 1.2679031e-5, 1.3679921e-5
-0.139, 1.2697647e-5, 1.3703951e-5
-0.140, 1.2707396e-5, 1.3722065e-5
-0.141, 1.2721423e-5, 1.3735016e-5
-0.142, 1.2703029e-5, 1.3741765e-5
-0.143, 1.2707694e-5, 1.3729105e-5
-0.144, 1.2729473e-5, 1.3748513e-5
-0.145, 1.2745147e-5, 1.3780312e-5
-0.146, 1.2764871e-5, 1.3794866e-5
-0.147, 1.2754706e-5, 1.3805306e-5
-0.148, 1.2763666e-5, 1.3804300e-5
-0.149, 1.2784847e-5, 1.3823317e-5
-0.150, 1.2813975e-5, 1.3862233e-5
-0.151, 1.2836752e-5, 1.3887733e-5
-0.152, 1.2837108e-5, 1.3900425e-5
-0.153, 1.2847422e-5, 1.3900932e-5
-0.154, 1.2884364e-5, 1.3935541e-5
-0.155, 1.2921374e-5, 1.3983352e-5
-0.156, 1.2948425e-5, 1.4019306e-5
-0.157, 1.2960955e-5, 1.4041303e-5
-0.158, 1.2982040e-5, 1.4048257e-5
-0.159, 1.3023545e-5, 1.4101104e-5
-0.160, 1.3070867e-5, 1.4146010e-5
-0.161, 1.3099737e-5, 1.4185197e-5
-0.162, 1.3123306e-5, 1.4223403e-5
-0.163, 1.3155288e-5, 1.4236317e-5
-0.164, 1.3195514e-5, 1.4287316e-5
-0.165, 1.3253134e-5, 1.4346453e-5
-0.166, 1.3304028e-5, 1.4400557e-5
-0.167, 1.3326355e-5, 1.4448873e-5
-0.168, 1.3368968e-5, 1.4464704e-5
-0.169, 1.3427832e-5, 1.4530675e-5
-0.170, 1.3491055e-5, 1.4603983e-5
-0.171, 1.3550414e-5, 1.4661746e-5
-0.172, 1.3577591e-5, 1.4713641e-5
-0.173, 1.3634437e-5, 1.4751409e-5
-0.174, 1.3701009e-5, 1.4816449e-5
-0.175, 1.3762010e-5, 1.4892620e-5
-0.176, 1.3837891e-5, 1.4962810e-5
-0.177, 1.3879270e-5, 1.5026933e-5
-0.178, 1.3941239e-5, 1.5078833e-5
-0.179, 1.4011161e-5, 1.5144909e-5
-0.180, 1.4095109e-5, 1.5237913e-5
-0.181, 1.4174340e-5, 1.5321411e-5
-0.182, 1.4220391e-5, 1.5380154e-5
-0.183, 1.4280762e-5, 1.5433061e-5
-0.184, 1.4367282e-5, 1.5519479e-5
-0.185, 1.4455851e-5, 1.5609501e-5
-0.186, 1.4542089e-5, 1.5705760e-5
-0.187, 1.4592665e-5, 1.5767906e-5
-0.188, 1.4660659e-5, 1.5823112e-5
-0.189, 1.4752502e-5, 1.5924405e-5
-0.190, 1.4839362e-5, 1.6009328e-5
-0.191, 1.4923945e-5, 1.6101829e-5
-0.192, 1.4984503e-5, 1.6179154e-5
-0.193, 1.5057545e-5, 1.6229118e-5
-0.194, 1.5142816e-5, 1.6324144e-5
-0.195, 1.5237905e-5, 1.6420996e-5
-0.196, 1.5323123e-5, 1.6506423e-5
-0.197, 1.5384132e-5, 1.6595655e-5
-0.198, 1.5446609e-5, 1.6630580e-5
-0.199, 1.5529957e-5, 1.6719821e-5
-0.200, 1.5622385e-5, 1.6825417e-5
-0.201, 1.5699221e-5, 1.6897438e-5
-0.202, 1.5759142e-5, 1.6978198e-5
-0.203, 1.5819747e-5, 1.7020740e-5
-0.204, 1.5895075e-5, 1.7091139e-5
-0.205, 1.5970876e-5, 1.7181977e-5
-0.206, 1.6044438e-5, 1.7250793e-5
-0.207, 1.6087826e-5, 1.7312144e-5
-0.208, 1.6139904e-5, 1.7352504e-5
-0.209, 1.6200866e-5, 1.7405371e-5
-0.210, 1.6272394e-5, 1.7485876e-5
-0.211, 1.6324233e-5, 1.7539591e-5
-0.212, 1.6352697e-5, 1.7584283e-5
-0.213, 1.6389225e-5, 1.7607988e-5
-0.214, 1.6439912e-5, 1.7655335e-5
-0.215, 1.6482471e-5, 1.7700817e-5
-0.216, 1.6518668e-5, 1.7741075e-5
-0.217, 1.6533559e-5, 1.7767725e-5
-0.218, 1.6553342e-5, 1.7775172e-5
-0.219, 1.6576732e-5, 1.7802542e-5
-0.220, 1.6595895e-5, 1.7819180e-5
-0.221, 1.6620817e-5, 1.7845177e-5
-0.222, 1.6609734e-5, 1.7858376e-5
-0.223, 1.6601683e-5, 1.7825523e-5
-0.224, 1.6599222e-5, 1.7829800e-5
-0.225, 1.6599948e-5, 1.7833510e-5
-0.226, 1.6598409e-5, 1.7824892e-5
-0.227, 1.6557202e-5, 1.7813458e-5
-0.228, 1.6531339e-5, 1.7760407e-5
-0.229, 1.6513804e-5, 1.7745910e-5
-0.230, 1.6485319e-5, 1.7730516e-5
-0.231, 1.6451992e-5, 1.7685374e-5
-0.232, 1.6398768e-5, 1.7658826e-5
-0.233, 1.6351092e-5, 1.7590934e-5
-0.234, 1.6309630e-5, 1.7545506e-5
-0.235, 1.6254471e-5, 1.7503527e-5
-0.236, 1.6204998e-5, 1.7448514e-5
-0.237, 1.6138150e-5, 1.7397901e-5
-0.238, 1.6062882e-5, 1.7310411e-5
-0.239, 1.5998363e-5, 1.7239527e-5
-0.240, 1.5932788e-5, 1.7184400e-5
-0.241, 1.5860114e-5, 1.7118015e-5
-0.242, 1.5781194e-5, 1.7054286e-5
-0.243, 1.5695192e-5, 1.6952878e-5
-0.244, 1.5615000e-5, 1.6871309e-5
-0.245, 1.5538422e-5, 1.6797416e-5
-0.246, 1.5448790e-5, 1.6715647e-5
-0.247, 1.5360016e-5, 1.6642887e-5
-0.248, 1.5268208e-5, 1.6529882e-5
-0.249, 1.5177415e-5, 1.6450063e-5
-0.250, 1.5090962e-5, 1.6362997e-5
-0.251, 1.5000183e-5, 1.6274125e-5
-0.252, 1.4896015e-5, 1.6196209e-5
-0.253, 1.4799329e-5, 1.6077684e-5
-0.254, 1.4714835e-5, 1.5998814e-5
-0.255, 1.4625291e-5, 1.5915472e-5
-0.256, 1.4535575e-5, 1.5821688e-5
-0.257, 1.4432480e-5, 1.5744390e-5
-0.258, 1.4343943e-5, 1.5634065e-5
-0.259, 1.4261349e-5, 1.5556525e-5
-0.260, 1.4171013e-5, 1.5480242e-5
-0.261, 1.4086192e-5, 1.5386206e-5
-0.262, 1.3990218e-5, 1.5313452e-5
-0.263, 1.3904821e-5, 1.5219975e-5
-0.264, 1.3821981e-5, 1.5135429e-5
-0.265, 1.3744570e-5, 1.5069085e-5
-0.266, 1.3671866e-5, 1.4994073e-5
-0.267, 1.3581361e-5, 1.4918773e-5
-0.268, 1.3494220e-5, 1.4824709e-5
-0.269, 1.3442328e-5, 1.4768582e-5
-0.270, 1.3369241e-5, 1.4704006e-5
-0.271, 1.3298003e-5, 1.4639874e-5
-0.272, 1.3218853e-5, 1.4570194e-5
-0.273, 1.3152383e-5, 1.4492936e-5
-0.274, 1.3095145e-5, 1.4438054e-5
-0.275, 1.3032683e-5, 1.4381394e-5
-0.276, 1.2977864e-5, 1.4332329e-5
-0.277, 1.2914889e-5, 1.4285206e-5
-0.278, 1.2857121e-5, 1.4207204e-5
-0.279, 1.2801962e-5, 1.4160171e-5
-0.280, 1.2762151e-5, 1.4121211e-5
-0.281, 1.2712706e-5, 1.4076595e-5
-0.282, 1.2656194e-5, 1.4043857e-5
-0.283, 1.2607903e-5, 1.3972371e-5
-0.284, 1.2570694e-5, 1.3937270e-5
-0.285, 1.2542304e-5, 1.3920158e-5
-0.286, 1.2501731e-5, 1.3874106e-5
-0.287, 1.2445596e-5, 1.3841060e-5
-0.288, 1.2405741e-5, 1.3785548e-5
-0.289, 1.2379955e-5, 1.3753972e-5
-0.290, 1.2351558e-5, 1.3742942e-5
-0.291, 1.2323568e-5, 1.3705109e-5
-0.292, 1.2282308e-5, 1.3683749e-5
-0.293, 1.2253586e-5, 1.3644685e-5
-0.294, 1.2227303e-5, 1.3610495e-5
-0.295, 1.2212104e-5, 1.3605129e-5
-0.296, 1.2188497e-5, 1.3581904e-5
-0.297, 1.2153610e-5, 1.3559202e-5
-0.298, 1.2126862e-5, 1.3522781e-5
-0.299, 1.2116098e-5, 1.3507651e-5
-0.300, 1.2102679e-5, 1.3496481e-5
-0.301, 1.2081928e-5, 1.3482163e-5
-0.302, 1.2050382e-5, 1.3460531e-5
-0.303, 1.2033237e-5, 1.3429464e-5
-0.304, 1.2023285e-5, 1.3422933e-5
-0.305, 1.2014807e-5, 1.3417883e-5
-0.306, 1.2007362e-5, 1.3408460e-5
-0.307, 1.1972149e-5, 1.3388432e-5
-0.308, 1.1958035e-5, 1.3354147e-5
-0.309, 1.1952698e-5, 1.3353389e-5
-0.310, 1.1948314e-5, 1.3352979e-5
-0.311, 1.1939893e-5, 1.3337201e-5
-0.312, 1.1913182e-5, 1.3335861e-5
-0.313, 1.1901198e-5, 1.3297245e-5
-0.314, 1.1901915e-5, 1.3298606e-5
-0.315, 1.1898677e-5, 1.3307706e-5
-0.316, 1.1887794e-5, 1.3287639e-5
-0.317, 1.1870916e-5, 1.3290497e-5
-0.318, 1.1861070e-5, 1.3261284e-5
-0.319, 1.1860573e-5, 1.3254179e-5
-0.320, 1.1858703e-5, 1.3262674e-5
-0.321, 1.1857010e-5, 1.3251732e-5
-0.322, 1.1839933e-5, 1.3253330e-5
-0.323, 1.1829996e-5, 1.3230978e-5
-0.324, 1.1832716e-5, 1.3223615e-5
-0.325, 1.1839364e-5, 1.3236646e-5
-0.326, 1.1839134e-5, 1.3239736e-5
-0.327, 1.1815986e-5, 1.3226909e-5
-0.328, 1.1805851e-5, 1.3202797e-5
-0.329, 1.1815210e-5, 1.3205765e-5
-0.330, 1.1824311e-5, 1.3215494e-5
-0.331, 1.1813916e-5, 1.3209494e-5
-0.332, 1.1801792e-5, 1.3208278e-5
-0.333, 1.1799337e-5, 1.3187800e-5
-0.334, 1.1805289e-5, 1.3196015e-5
-0.335, 1.1810627e-5, 1.3197019e-5
-0.336, 1.1811891e-5, 1.3196572e-5
-0.337, 1.1793696e-5, 1.3196364e-5
-0.338, 1.1793793e-5, 1.3177882e-5
-0.339, 1.1798007e-5, 1.3179606e-5
-0.340, 1.1807240e-5, 1.3192597e-5
-0.341, 1.1811787e-5, 1.3188517e-5
-0.342, 1.1787353e-5, 1.3186208e-5
-0.343, 1.1792203e-5, 1.3164847e-5
-0.344, 1.1798473e-5, 1.3172457e-5
-0.345, 1.1806686e-5, 1.3188901e-5
-0.346, 1.1811617e-5, 1.3183742e-5
-0.347, 1.1799581e-5, 1.3186147e-5
-0.348, 1.1793452e-5, 1.3170382e-5
-0.349, 1.1804713e-5, 1.3172501e-5
-0.350, 1.1815860e-5, 1.3189041e-5
-0.351, 1.1815921e-5, 1.3184701e-5
-0.352, 1.1805215e-5, 1.3183434e-5
-0.353, 1.1797778e-5, 1.3167171e-5
-0.354, 1.1814374e-5, 1.3171606e-5
-0.355, 1.1826174e-5, 1.3190011e-5
-0.356, 1.1827519e-5, 1.3193820e-5
-0.357, 1.1815513e-5, 1.3188153e-5
-0.358, 1.1816985e-5, 1.3173404e-5
-0.359, 1.1823098e-5, 1.3178702e-5
-0.360, 1.1838838e-5, 1.3193680e-5
-0.361, 1.1842949e-5, 1.3201500e-5
-0.362, 1.1837441e-5, 1.3209270e-5
-0.363, 1.1833360e-5, 1.3181771e-5
-0.364, 1.1840044e-5, 1.3188369e-5
-0.365, 1.1857654e-5, 1.3208455e-5
-0.366, 1.1862104e-5, 1.3210462e-5
-0.367, 1.1847347e-5, 1.3216028e-5
-0.368, 1.1849868e-5, 1.3193903e-5
-0.369, 1.1866074e-5, 1.3209068e-5
-0.370, 1.1881984e-5, 1.3232358e-5
-0.371, 1.1885421e-5, 1.3226629e-5
-0.372, 1.1869474e-5, 1.3231338e-5
-0.373, 1.1876535e-5, 1.3219508e-5
-0.374, 1.1888653e-5, 1.3221853e-5
-0.375, 1.1895321e-5, 1.3242221e-5
-0.376, 1.1906055e-5, 1.3240684e-5
-0.377, 1.1896142e-5, 1.3248803e-5
-0.378, 1.1897901e-5, 1.3240044e-5
-0.379, 1.1907793e-5, 1.3236774e-5
-0.380, 1.1921602e-5, 1.3260542e-5
-0.381, 1.1932870e-5, 1.3268485e-5
-0.382, 1.1926017e-5, 1.3270263e-5
-0.383, 1.1923163e-5, 1.3256543e-5
-0.384, 1.1936803e-5, 1.3262887e-5
-0.385, 1.1956203e-5, 1.3283855e-5
-0.386, 1.1960246e-5, 1.3288960e-5
-0.387, 1.1949274e-5, 1.3288620e-5
-0.388, 1.1953267e-5, 1.3277631e-5
-0.389, 1.1968149e-5, 1.3295851e-5
-0.390, 1.1980592e-5, 1.3307483e-5
-0.391, 1.1992709e-5, 1.3316099e-5
-0.392, 1.1980925e-5, 1.3318342e-5
-0.393, 1.1983512e-5, 1.3301352e-5
-0.394, 1.1998120e-5, 1.3318429e-5
-0.395, 1.2017416e-5, 1.3339633e-5
-0.396, 1.2024018e-5, 1.3336505e-5
-0.397, 1.2015951e-5, 1.3353399e-5
-0.398, 1.2019553e-5, 1.3329450e-5
-0.399, 1.2035669e-5, 1.3344746e-5
-0.400, 1.2050656e-5, 1.3369364e-5
-0.401, 1.2057619e-5, 1.3367251e-5
-0.402, 1.2052615e-5, 1.3379851e-5
-0.403, 1.2055867e-5, 1.3365205e-5
-0.404, 1.2070461e-5, 1.3370227e-5
-0.405, 1.2085033e-5, 1.3395063e-5
-0.406, 1.2099715e-5, 1.3400395e-5
-0.407, 1.2087946e-5, 1.3403978e-5
-0.408, 1.2091479e-5, 1.3397554e-5
-0.409, 1.2104114e-5, 1.3396171e-5
-0.410, 1.2123564e-5, 1.3422606e-5
-0.411, 1.2128541e-5, 1.3429600e-5
-0.412, 1.2117206e-5, 1.3428261e-5
-0.413, 1.2127593e-5, 1.3422274e-5
-0.414, 1.2141596e-5, 1.3429994e-5
-0.415, 1.2160523e-5, 1.3447856e-5
-0.416, 1.2164272e-5, 1.3454131e-5
-0.417, 1.2155939e-5, 1.3459911e-5
-0.418, 1.2168366e-5, 1.3449818e-5
-0.419, 1.2177527e-5, 1.3462364e-5
-0.420, 1.2194427e-5, 1.3473478e-5
-0.421, 1.2208829e-5, 1.3485445e-5
-0.422, 1.2196548e-5, 1.3494079e-5
-0.423, 1.2198257e-5, 1.3475728e-5
-0.424, 1.2214210e-5, 1.3487456e-5
-0.425, 1.2230113e-5, 1.3504809e-5
-0.426, 1.2244049e-5, 1.3509522e-5
-0.427, 1.2225240e-5, 1.3513556e-5
-0.428, 1.2231576e-5, 1.3493560e-5
-0.429, 1.2252174e-5, 1.3511502e-5
-0.430, 1.2265924e-5, 1.3534829e-5
-0.431, 1.2273043e-5, 1.3529179e-5
-0.432, 1.2264165e-5, 1.3536298e-5
-0.433, 1.2267958e-5, 1.3530022e-5
-0.434, 1.2284245e-5, 1.3535009e-5
-0.435, 1.2295688e-5, 1.3552908e-5
-0.436, 1.2302712e-5, 1.3553094e-5
-0.437, 1.2299482e-5, 1.3560263e-5
-0.438, 1.2293840e-5, 1.3543146e-5
-0.439, 1.2315229e-5, 1.3555062e-5
-0.440, 1.2326133e-5, 1.3569321e-5
-0.441, 1.2330895e-5, 1.3575564e-5
-0.442, 1.2325541e-5, 1.3576866e-5
-0.443, 1.2325106e-5, 1.3559656e-5
-0.444, 1.2332446e-5, 1.3564744e-5
-0.445, 1.2351638e-5, 1.3584950e-5
-0.446, 1.2352333e-5, 1.3584870e-5
-0.447, 1.2344297e-5, 1.3590805e-5
-0.448, 1.2345939e-5, 1.3568228e-5
-0.449, 1.2350316e-5, 1.3576092e-5
-0.450, 1.2373115e-5, 1.3594512e-5
-0.451, 1.2374373e-5, 1.3595431e-5
-0.452, 1.2364377e-5, 1.3605795e-5
-0.453, 1.2367549e-5, 1.3582488e-5
-0.454, 1.2378882e-5, 1.3590618e-5
-0.455, 1.2388553e-5, 1.3609705e-5
-0.456, 1.2393388e-5, 1.3601823e-5
-0.457, 1.2378801e-5, 1.3609927e-5
-0.458, 1.2384862e-5, 1.3595671e-5
-0.459, 1.2393786e-5, 1.3596735e-5
-0.460, 1.2399702e-5, 1.3613288e-5
-0.461, 1.2407079e-5, 1.3608716e-5
-0.462, 1.2395310e-5, 1.3615545e-5
-0.463, 1.2396848e-5, 1.3606230e-5
-0.464, 1.2407345e-5, 1.3603700e-5
-0.465, 1.2424948e-5, 1.3626217e-5
-0.466, 1.2425480e-5, 1.3626792e-5
-0.467, 1.2415411e-5, 1.3626233e-5
-0.468, 1.2406163e-5, 1.3606981e-5
-0.469, 1.2423803e-5, 1.3618819e-5
-0.470, 1.2432991e-5, 1.3625751e-5
-0.471, 1.2428918e-5, 1.3623356e-5
-0.472, 1.2423625e-5, 1.3628916e-5
-0.473, 1.2421398e-5, 1.3613088e-5
-0.474, 1.2432260e-5, 1.3625970e-5
-0.475, 1.2440370e-5, 1.3630748e-5
-0.476, 1.2444865e-5, 1.3632894e-5
-0.477, 1.2435757e-5, 1.3643479e-5
-0.478, 1.2434589e-5, 1.3619078e-5
-0.479, 1.2440584e-5, 1.3627303e-5
-0.480, 1.2453922e-5, 1.3642433e-5
-0.481, 1.2456893e-5, 1.3637562e-5
-0.482, 1.2444348e-5, 1.3649504e-5
-0.483, 1.2442802e-5, 1.3622907e-5
-0.484, 1.2451585e-5, 1.3631694e-5
-0.485, 1.2466586e-5, 1.3657002e-5
-0.486, 1.2465624e-5, 1.3644050e-5
-0.487, 1.2458077e-5, 1.3655573e-5
-0.488, 1.2456849e-5, 1.3639274e-5
-0.489, 1.2464168e-5, 1.3638284e-5
-0.490, 1.2475967e-5, 1.3662010e-5
-0.491, 1.2481409e-5, 1.3661172e-5
-0.492, 1.2471354e-5, 1.3661657e-5
-0.493, 1.2469261e-5, 1.3647475e-5
-0.494, 1.2474888e-5, 1.3645697e-5
-0.495, 1.2487752e-5, 1.3665321e-5
-0.496, 1.2493222e-5, 1.3675013e-5
-0.497, 1.2477069e-5, 1.3670997e-5
-0.498, 1.2484721e-5, 1.3661031e-5
-0.499, 1.2490857e-5, 1.3663706e-5
-0.500, 1.2502759e-5, 1.3676414e-5
