Jan. 28, 2006   00:30:04
Cyclic Voltammetry
File: z:\users\scottsaunders\git\labwork\ida\01_17_19_psoralen_nonequil_2\data\psoralen\1\75um_psoralen_transfer_1_gc_7.txt
Data Source:  Experiment
Instrument Model:  CHI760E
Header: 
Note: 

Init E (V) = 0
High E (V) = 0
Low E (V) = -0.4
Init P/N = N
Scan Rate (V/s) = 0.003
Segment = 1
Sample Interval (V) = 0.001
Quiet Time (sec) = 2
Sensitivity (A/V) = 1e-7
2nd E (V) = 0
Sens 2 (A/V) = 1e-7

Potential/V, i1/A, i2/A, Time/s

0.000, -4.1383817e-8, -4.2417820e-8, 3.3333334e-1
-0.001, -3.4178324e-8, -3.7518639e-8, 6.6666669e-1
-0.002, -2.9892227e-8, -3.3741021e-8, 1.0000000e+0
-0.003, -2.6582613e-8, -3.0713746e-8, 1.3333334e+0
-0.004, -2.3907685e-8, -2.8220427e-8, 1.6666667e+0
-0.005, -2.1715683e-8, -2.6139572e-8, 2.0000000e+0
-0.006, -1.9829924e-8, -2.4381592e-8, 2.3333333e+0
-0.007, -1.8240250e-8, -2.2866951e-8, 2.6666665e+0
-0.008, -1.6846156e-8, -2.1531713e-8, 2.9999998e+0
-0.009, -1.5589535e-8, -2.0371624e-8, 3.3333330e+0
-0.010, -1.4504401e-8, -1.9329599e-8, 3.6666663e+0
-0.011, -1.3508433e-8, -1.8421359e-8, 3.9999995e+0
-0.012, -1.2592777e-8, -1.7586746e-8, 4.3333330e+0
-0.013, -1.1809396e-8, -1.6830255e-8, 4.6666665e+0
-0.014, -1.1052117e-8, -1.6151171e-8, 5.0000000e+0
-0.015, -1.0343967e-8, -1.5510736e-8, 5.3333335e+0
-0.016, -9.7406945e-9, -1.4935180e-8, 5.6666670e+0
-0.017, -9.1348236e-9, -1.4401699e-8, 6.0000005e+0
-0.018, -8.6044212e-9, -1.3916201e-8, 6.3333340e+0
-0.019, -8.0779152e-9, -1.3462612e-8, 6.6666675e+0
-0.020, -7.5973521e-9, -1.3042825e-8, 7.0000010e+0
-0.021, -7.1702893e-9, -1.2655539e-8, 7.3333344e+0
-0.022, -6.7505495e-9, -1.2292359e-8, 7.6666679e+0
-0.023, -6.3456906e-9, -1.1959673e-8, 8.0000010e+0
-0.024, -5.9671694e-9, -1.1628286e-8, 8.3333340e+0
-0.025, -5.5867577e-9, -1.1316990e-8, 8.6666670e+0
-0.026, -5.3022462e-9, -1.1054505e-8, 9.0000000e+0
-0.027, -4.9636437e-9, -1.0777246e-8, 9.3333330e+0
-0.028, -4.6437010e-9, -1.0526814e-8, 9.6666660e+0
-0.029, -4.3717088e-9, -1.0287256e-8, 9.9999990e+0
-0.030, -4.0802290e-9, -1.0054672e-8, 1.0333332e+1
-0.031, -3.8059929e-9, -9.8457225e-9, 1.0666665e+1
-0.032, -3.5766357e-9, -9.6412656e-9, 1.0999998e+1
-0.033, -3.3138552e-9, -9.4378709e-9, 1.1333331e+1
-0.034, -3.1033949e-9, -9.2548049e-9, 1.1666664e+1
-0.035, -2.8636447e-9, -9.0694936e-9, 1.1999997e+1
-0.036, -2.6355866e-9, -8.9141992e-9, 1.2333330e+1
-0.037, -2.4509910e-9, -8.7579606e-9, 1.2666663e+1
-0.038, -2.2209254e-9, -8.5930951e-9, 1.2999996e+1
-0.039, -2.0338493e-9, -8.4482021e-9, 1.3333329e+1
-0.040, -1.8551587e-9, -8.3067366e-9, 1.3666662e+1
-0.041, -1.6418636e-9, -8.1733083e-9, 1.3999995e+1
-0.042, -1.5045093e-9, -8.0477971e-9, 1.4333328e+1
-0.043, -1.3229842e-9, -7.9208675e-9, 1.4666661e+1
-0.044, -1.1370892e-9, -7.7916917e-9, 1.4999994e+1
-0.045, -1.0031598e-9, -7.6886364e-9, 1.5333327e+1
-0.046, -8.4135793e-10, -7.5705717e-9, 1.5666660e+1
-0.047, -6.8487077e-10, -7.4658599e-9, 1.5999993e+1
-0.048, -5.5661037e-10, -7.3515767e-9, 1.6333326e+1
-0.049, -3.8654127e-10, -7.2536031e-9, 1.6666660e+1
-0.050, -2.7835845e-10, -7.1636657e-9, 1.6999994e+1
-0.051, -1.3214627e-10, -7.0755006e-9, 1.7333328e+1
-0.052, 6.5072622e-12, -6.9810717e-9, 1.7666662e+1
-0.053, 1.0158060e-10, -6.8946795e-9, 1.7999996e+1
-0.054, 2.2665225e-10, -6.8084054e-9, 1.8333330e+1
-0.055, 3.5479455e-10, -6.7239045e-9, 1.8666664e+1
-0.056, 4.5825327e-10, -6.6509851e-9, 1.8999998e+1
-0.057, 6.0824468e-10, -6.5582113e-9, 1.9333332e+1
-0.058, 6.8312234e-10, -6.5051466e-9, 1.9666666e+1
-0.059, 7.8351031e-10, -6.4377814e-9, 2.0000000e+1
-0.060, 9.0468455e-10, -6.3656906e-9, 2.0333334e+1
-0.061, 9.7814501e-10, -6.2974981e-9, 2.0666668e+1
-0.062, 1.0899890e-9, -6.2284786e-9, 2.1000002e+1
-0.063, 1.1886054e-9, -6.1706871e-9, 2.1333336e+1
-0.064, 1.2680891e-9, -6.1146679e-9, 2.1666670e+1
-0.065, 1.3840669e-9, -6.0530945e-9, 2.2000004e+1
-0.066, 1.4425281e-9, -5.9962484e-9, 2.2333338e+1
-0.067, 1.5281530e-9, -5.9424745e-9, 2.2666672e+1
-0.068, 1.6307852e-9, -5.8904739e-9, 2.3000006e+1
-0.069, 1.6866479e-9, -5.8430820e-9, 2.3333340e+1
-0.070, 1.7925870e-9, -5.7770180e-9, 2.3666674e+1
-0.071, 1.8608507e-9, -5.7328169e-9, 2.4000008e+1
-0.072, 1.9263982e-9, -5.6823528e-9, 2.4333342e+1
-0.073, 2.0184008e-9, -5.6368519e-9, 2.4666676e+1
-0.074, 2.0687130e-9, -5.5872151e-9, 2.5000010e+1
-0.075, 2.1405200e-9, -5.5466778e-9, 2.5333344e+1
-0.076, 2.2309872e-9, -5.5005862e-9, 2.5666677e+1
-0.077, 2.2618123e-9, -5.4576854e-9, 2.6000011e+1
-0.078, 2.3489726e-9, -5.4102940e-9, 2.6333345e+1
-0.079, 2.4049536e-9, -5.3861844e-9, 2.6666679e+1
-0.080, 2.4520770e-9, -5.3404472e-9, 2.7000013e+1
-0.081, 2.5449063e-9, -5.2975468e-9, 2.7333347e+1
-0.082, 2.5861244e-9, -5.2636282e-9, 2.7666681e+1
-0.083, 2.6484830e-9, -5.2272280e-9, 2.8000015e+1
-0.084, 2.7205262e-9, -5.1918909e-9, 2.8333349e+1
-0.085, 2.7597367e-9, -5.1539542e-9, 2.8666683e+1
-0.086, 2.8148910e-9, -5.1169624e-9, 2.9000017e+1
-0.087, 2.8866980e-9, -5.0816253e-9, 2.9333351e+1
-0.088, 2.9234282e-9, -5.0589342e-9, 2.9666685e+1
-0.089, 2.9899205e-9, -5.0287978e-9, 3.0000019e+1
-0.090, 3.0160214e-9, -5.0003153e-9, 3.0333353e+1
-0.091, 3.0749550e-9, -4.9707691e-9, 3.0666687e+1
-0.092, 3.1465255e-9, -4.9428781e-9, 3.1000021e+1
-0.093, 3.1739253e-9, -4.9099049e-9, 3.1333355e+1
-0.094, 3.2316785e-9, -4.8912319e-9, 3.1666689e+1
-0.095, 3.2790377e-9, -4.8615676e-9, 3.2000023e+1
-0.096, 3.3122249e-9, -4.8363948e-9, 3.2333355e+1
-0.097, 3.3829690e-9, -4.8011759e-9, 3.2666687e+1
-0.098, 3.4116683e-9, -4.7809663e-9, 3.3000019e+1
-0.099, 3.4618624e-9, -4.7546118e-9, 3.3333351e+1
-0.100, 3.5085130e-9, -4.7443298e-9, 3.3666683e+1
-0.101, 3.5442982e-9, -4.7080473e-9, 3.4000015e+1
-0.102, 3.6083103e-9, -4.6880739e-9, 3.4333347e+1
-0.103, 3.6593311e-9, -4.6634923e-9, 3.4666679e+1
-0.104, 3.6784638e-9, -4.6385553e-9, 3.5000011e+1
-0.105, 3.7332639e-9, -4.6097184e-9, 3.5333344e+1
-0.106, 3.7481453e-9, -4.5877364e-9, 3.5666676e+1
-0.107, 3.7929064e-9, -4.5638635e-9, 3.6000008e+1
-0.108, 3.8543204e-9, -4.5347903e-9, 3.6333340e+1
-0.109, 3.8756971e-9, -4.5142263e-9, 3.6666672e+1
-0.110, 3.9101833e-9, -4.4972079e-9, 3.7000004e+1
-0.111, 3.9556531e-9, -4.4811350e-9, 3.7333336e+1
-0.112, 3.9841157e-9, -4.4527710e-9, 3.7666668e+1
-0.113, 4.0402148e-9, -4.4346886e-9, 3.8000000e+1
-0.114, 4.0566315e-9, -4.4265343e-9, 3.8333332e+1
-0.115, 4.0937160e-9, -4.4101065e-9, 3.8666664e+1
-0.116, 4.1508783e-9, -4.3885975e-9, 3.8999996e+1
-0.117, 4.1695385e-9, -4.3666151e-9, 3.9333328e+1
-0.118, 4.2080401e-9, -4.3512514e-9, 3.9666660e+1
-0.119, 4.2556363e-9, -4.3330508e-9, 3.9999992e+1
-0.120, 4.2800834e-9, -4.3123687e-9, 4.0333324e+1
-0.121, 4.3359463e-9, -4.2964139e-9, 4.0666656e+1
-0.122, 4.3655901e-9, -4.2666319e-9, 4.0999989e+1
-0.123, 4.3931081e-9, -4.2539861e-9, 4.1333321e+1
-0.124, 4.4422395e-9, -4.2451220e-9, 4.1666653e+1
-0.125, 4.4486170e-9, -4.2246766e-9, 4.1999985e+1
-0.126, 4.5040074e-9, -4.2107309e-9, 4.2333317e+1
-0.127, 4.5382578e-9, -4.1947765e-9, 4.2666649e+1
-0.128, 4.5564454e-9, -4.1800030e-9, 4.2999981e+1
-0.129, 4.6162056e-9, -4.1613304e-9, 4.3333313e+1
-0.130, 4.6347481e-9, -4.1493937e-9, 4.3666645e+1
-0.131, 4.6633293e-9, -4.1378119e-9, 4.3999977e+1
-0.132, 4.7155311e-9, -4.1220933e-9, 4.4333309e+1
-0.133, 4.7253339e-9, -4.1051926e-9, 4.4666641e+1
-0.134, 4.7732840e-9, -4.0969201e-9, 4.4999973e+1
-0.135, 4.8279660e-9, -4.0680832e-9, 4.5333305e+1
-0.136, 4.8423741e-9, -4.0704471e-9, 4.5666637e+1
-0.137, 4.8922137e-9, -4.0565014e-9, 4.5999969e+1
-0.138, 4.9049689e-9, -4.0450376e-9, 4.6333302e+1
-0.139, 4.9510298e-9, -4.0292010e-9, 4.6666634e+1
-0.140, 4.9994520e-9, -4.0092281e-9, 4.6999966e+1
-0.141, 5.0032312e-9, -4.0059187e-9, 4.7333298e+1
-0.142, 5.0547246e-9, -3.9946912e-9, 4.7666630e+1
-0.143, 5.0934625e-9, -3.9878367e-9, 4.7999962e+1
-0.144, 5.1124771e-9, -3.9682182e-9, 4.8333294e+1
-0.145, 5.1786153e-9, -3.9560453e-9, 4.8666626e+1
-0.146, 5.1930233e-9, -3.9566359e-9, 4.8999958e+1
-0.147, 5.2332969e-9, -3.9451722e-9, 4.9333290e+1
-0.148, 5.2847899e-9, -3.9364267e-9, 4.9666622e+1
-0.149, 5.3033324e-9, -3.9256722e-9, 4.9999954e+1
-0.150, 5.3421880e-9, -3.9058170e-9, 5.0333286e+1
-0.151, 5.3675806e-9, -3.9064081e-9, 5.0666618e+1
-0.152, 5.3948628e-9, -3.8968353e-9, 5.0999950e+1
-0.153, 5.4569846e-9, -3.8850172e-9, 5.1333282e+1
-0.154, 5.4762359e-9, -3.8808805e-9, 5.1666615e+1
-0.155, 5.5176899e-9, -3.8750896e-9, 5.1999947e+1
-0.156, 5.5757972e-9, -3.8610257e-9, 5.2333279e+1
-0.157, 5.5886700e-9, -3.8492072e-9, 5.2666611e+1
-0.158, 5.6402820e-9, -3.8447165e-9, 5.2999943e+1
-0.159, 5.6837437e-9, -3.8324250e-9, 5.3333275e+1
-0.160, 5.7156315e-9, -3.8211980e-9, 5.3666607e+1
-0.161, 5.7685421e-9, -3.8174162e-9, 5.3999939e+1
-0.162, 5.7906275e-9, -3.8124526e-9, 5.4333271e+1
-0.163, 5.8267671e-9, -3.8058343e-9, 5.4666603e+1
-0.164, 5.8932597e-9, -3.7967340e-9, 5.4999935e+1
-0.165, 5.9037704e-9, -3.7916519e-9, 5.5333267e+1
-0.166, 5.9559726e-9, -3.7840882e-9, 5.5666599e+1
-0.167, 5.9942376e-9, -3.7816061e-9, 5.5999931e+1
-0.168, 6.0332126e-9, -3.7694337e-9, 5.6333263e+1
-0.169, 6.0907288e-9, -3.7680152e-9, 5.6666595e+1
-0.170, 6.1154122e-9, -3.7644696e-9, 5.6999928e+1
-0.171, 6.1609997e-9, -3.7597427e-9, 5.7333260e+1
-0.172, 6.2342242e-9, -3.7466239e-9, 5.7666592e+1
-0.173, 6.2540657e-9, -3.7447334e-9, 5.7999924e+1
-0.174, 6.3108727e-9, -3.7428420e-9, 5.8333256e+1
-0.175, 6.3563430e-9, -3.7350425e-9, 5.8666588e+1
-0.176, 6.3909478e-9, -3.7207422e-9, 5.8999920e+1
-0.177, 6.4505898e-9, -3.7279508e-9, 5.9333252e+1
-0.178, 6.4804704e-9, -3.7252330e-9, 5.9666584e+1
-0.179, 6.5186172e-9, -3.7231054e-9, 5.9999916e+1
-0.180, 6.5880621e-9, -3.7150694e-9, 6.0333248e+1
-0.181, 6.6155805e-9, -3.7141237e-9, 6.0666580e+1
-0.182, 6.6721522e-9, -3.7097507e-9, 6.0999912e+1
-0.183, 6.7304948e-9, -3.7080963e-9, 6.1333244e+1
-0.184, 6.7782095e-9, -3.7033689e-9, 6.1666576e+1
-0.185, 6.8477721e-9, -3.7011236e-9, 6.1999908e+1
-0.186, 6.8791874e-9, -3.7092780e-9, 6.2333241e+1
-0.187, 6.9320976e-9, -3.7079777e-9, 6.2666573e+1
-0.188, 7.0078023e-9, -3.7040777e-9, 6.2999905e+1
-0.189, 7.0258723e-9, -3.7110508e-9, 6.3333237e+1
-0.190, 7.0992141e-9, -3.7161327e-9, 6.3666569e+1
-0.191, 7.1711392e-9, -3.7060872e-9, 6.3999901e+1
-0.192, 7.2069253e-9, -3.7124690e-9, 6.4333237e+1
-0.193, 7.2891253e-9, -3.7140053e-9, 6.4666573e+1
-0.194, 7.3269173e-9, -3.7199148e-9, 6.4999908e+1
-0.195, 7.3896311e-9, -3.7128234e-9, 6.5333244e+1
-0.196, 7.4723037e-9, -3.7216872e-9, 6.5666580e+1
-0.197, 7.5138766e-9, -3.7359875e-9, 6.5999916e+1
-0.198, 7.5957214e-9, -3.7365782e-9, 6.6333252e+1
-0.199, 7.6662294e-9, -3.7416603e-9, 6.6666588e+1
-0.200, 7.7215017e-9, -3.7486334e-9, 6.6999924e+1
-0.201, 7.8084259e-9, -3.7600971e-9, 6.7333260e+1
-0.202, 7.8505886e-9, -3.7702610e-9, 6.7666595e+1
-0.203, 7.9548750e-9, -3.7689607e-9, 6.7999931e+1
-0.204, 8.0203044e-9, -3.7982701e-9, 6.8333267e+1
-0.205, 8.1171487e-9, -3.8044159e-9, 6.8666603e+1
-0.206, 8.1753742e-9, -3.8123340e-9, 6.8999939e+1
-0.207, 8.2618250e-9, -3.8304160e-9, 6.9333275e+1
-0.208, 8.3411908e-9, -3.8367984e-9, 6.9666611e+1
-0.209, 8.4427603e-9, -3.8562984e-9, 6.9999947e+1
-0.210, 8.5104332e-9, -3.8833621e-9, 7.0333282e+1
-0.211, 8.6112930e-9, -3.8860808e-9, 7.0666618e+1
-0.212, 8.7217202e-9, -3.9152721e-9, 7.0999954e+1
-0.213, 8.7928180e-9, -3.9372541e-9, 7.1333290e+1
-0.214, 8.9004120e-9, -3.9620729e-9, 7.1666626e+1
-0.215, 9.0058778e-9, -3.9933914e-9, 7.1999962e+1
-0.216, 9.1076826e-9, -4.0225827e-9, 7.2333298e+1
-0.217, 9.2412584e-9, -4.0502379e-9, 7.2666634e+1
-0.218, 9.3301900e-9, -4.0891202e-9, 7.2999969e+1
-0.219, 9.4667172e-9, -4.1238657e-9, 7.3333305e+1
-0.220, 9.6033634e-9, -4.1627484e-9, 7.3666641e+1
-0.221, 9.7088293e-9, -4.2034034e-9, 7.3999977e+1
-0.222, 9.8566959e-9, -4.2480770e-9, 7.4333313e+1
-0.223, 1.0002672e-8, -4.2957051e-9, 7.4666649e+1
-0.224, 1.0137428e-8, -4.3456967e-9, 7.4999985e+1
-0.225, 1.0296985e-8, -4.4007700e-9, 7.5333321e+1
-0.226, 1.0429497e-8, -4.4587982e-9, 7.5666656e+1
-0.227, 1.0588583e-8, -4.5175352e-9, 7.5999992e+1
-0.228, 1.0772706e-8, -4.5795816e-9, 7.6333328e+1
-0.229, 1.0915494e-8, -4.6582924e-9, 7.6666664e+1
-0.230, 1.1100916e-8, -4.7296749e-9, 7.7000000e+1
-0.231, 1.1274174e-8, -4.8103943e-9, 7.7333336e+1
-0.232, 1.1461840e-8, -4.8815409e-9, 7.7666672e+1
-0.233, 1.1671711e-8, -4.9721876e-9, 7.8000008e+1
-0.234, 1.1843551e-8, -5.0556253e-9, 7.8333344e+1
-0.235, 1.2049642e-8, -5.1485176e-9, 7.8666679e+1
-0.236, 1.2252308e-8, -5.2435367e-9, 7.9000015e+1
-0.237, 1.2440211e-8, -5.3546301e-9, 7.9333351e+1
-0.238, 1.2671458e-8, -5.4588676e-9, 7.9666687e+1
-0.239, 1.2897979e-8, -5.5714966e-9, 8.0000023e+1
-0.240, 1.3112573e-8, -5.6812892e-9, 8.0333359e+1
-0.241, 1.3361419e-8, -5.8129457e-9, 8.0666695e+1
-0.242, 1.3582862e-8, -5.9401111e-9, 8.1000031e+1
-0.243, 1.3827218e-8, -6.0714132e-9, 8.1333366e+1
-0.244, 1.4079488e-8, -6.2139422e-9, 8.1666702e+1
-0.245, 1.4324552e-8, -6.3535168e-9, 8.2000038e+1
-0.246, 1.4593001e-8, -6.4750099e-9, 8.2333374e+1
-0.247, 1.4814328e-8, -6.6553580e-9, 8.2666710e+1
-0.248, 1.5064471e-8, -6.8033241e-9, 8.3000046e+1
-0.249, 1.5354415e-8, -6.9603900e-9, 8.3333382e+1
-0.250, 1.5596527e-8, -7.1213551e-9, 8.3666718e+1
-0.251, 1.5869936e-8, -7.2703847e-9, 8.4000053e+1
-0.252, 1.6144527e-8, -7.4369058e-9, 8.4333389e+1
-0.253, 1.6370342e-8, -7.6081541e-9, 8.4666725e+1
-0.254, 1.6667490e-8, -7.7697111e-9, 8.5000061e+1
-0.255, 1.6916216e-8, -7.9409581e-9, 8.5333397e+1
-0.256, 1.7167068e-8, -8.1079525e-9, 8.5666733e+1
-0.257, 1.7435635e-8, -8.2787279e-9, 8.6000069e+1
-0.258, 1.7663810e-8, -8.4451299e-9, 8.6333405e+1
-0.259, 1.7931434e-8, -8.6091685e-9, 8.6666740e+1
-0.260, 1.8161145e-8, -8.7870342e-9, 8.7000076e+1
-0.261, 1.8362925e-8, -8.9456362e-9, 8.7333412e+1
-0.262, 1.8617378e-8, -9.1170040e-9, 8.7666748e+1
-0.263, 1.8830614e-8, -9.2860057e-9, 8.8000084e+1
-0.264, 1.9060916e-8, -9.4390531e-9, 8.8333420e+1
-0.265, 1.9261337e-8, -9.6049835e-9, 8.8666756e+1
-0.266, 1.9458454e-8, -9.7583852e-9, 8.9000092e+1
-0.267, 1.9663423e-8, -9.9312878e-9, 8.9333427e+1
-0.268, 1.9877721e-8, -1.0071808e-8, 8.9666763e+1
-0.269, 2.0055642e-8, -1.0230528e-8, 9.0000099e+1
-0.270, 2.0268525e-8, -1.0376248e-8, 9.0333435e+1
-0.271, 2.0468178e-8, -1.0513342e-8, 9.0666771e+1
-0.272, 2.0621123e-8, -1.0660362e-8, 9.1000107e+1
-0.273, 2.0820009e-8, -1.0796155e-8, 9.1333443e+1
-0.274, 2.0959018e-8, -1.0936203e-8, 9.1666779e+1
-0.275, 2.1144382e-8, -1.1057341e-8, 9.2000114e+1
-0.276, 2.1305770e-8, -1.1192898e-8, 9.2333450e+1
-0.277, 2.1436509e-8, -1.1310845e-8, 9.2666786e+1
-0.278, 2.1589631e-8, -1.1430919e-8, 9.3000122e+1
-0.279, 2.1730175e-8, -1.1549930e-8, 9.3333458e+1
-0.280, 2.1878336e-8, -1.1652040e-8, 9.3666794e+1
-0.281, 2.2019409e-8, -1.1770225e-8, 9.4000130e+1
-0.282, 2.2111236e-8, -1.1871271e-8, 9.4333466e+1
-0.283, 2.2244810e-8, -1.1972555e-8, 9.4666801e+1
-0.284, 2.2380451e-8, -1.2072065e-8, 9.5000137e+1
-0.285, 2.2470861e-8, -1.2166021e-8, 9.5333473e+1
-0.286, 2.2601011e-8, -1.2264468e-8, 9.5666809e+1
-0.287, 2.2726319e-8, -1.2344006e-8, 9.6000145e+1
-0.288, 2.2822691e-8, -1.2433234e-8, 9.6333481e+1
-0.289, 2.2929221e-8, -1.2518445e-8, 9.6666817e+1
-0.290, 2.3011539e-8, -1.2601409e-8, 9.7000153e+1
-0.291, 2.3109092e-8, -1.2679529e-8, 9.7333488e+1
-0.292, 2.3223002e-8, -1.2740393e-8, 9.7666824e+1
-0.293, 2.3284061e-8, -1.2824185e-8, 9.8000160e+1
-0.294, 2.3376833e-8, -1.2895213e-8, 9.8333496e+1
-0.295, 2.3468953e-8, -1.2959624e-8, 9.8666832e+1
-0.296, 2.3547491e-8, -1.3022850e-8, 9.9000168e+1
-0.297, 2.3646287e-8, -1.3090927e-8, 9.9333504e+1
-0.298, 2.3701677e-8, -1.3153090e-8, 9.9666840e+1
-0.299, 2.3797694e-8, -1.3214073e-8, 1.0000018e+2
-0.300, 2.3884029e-8, -1.3275056e-8, 1.0033351e+2
-0.301, 2.3946741e-8, -1.3331310e-8, 1.0066685e+2
-0.302, 2.4033959e-8, -1.3387920e-8, 1.0100018e+2
-0.303, 2.4104706e-8, -1.3444412e-8, 1.0133352e+2
-0.304, 2.4159680e-8, -1.3492632e-8, 1.0166685e+2
-0.305, 2.4247257e-8, -1.3550660e-8, 1.0200019e+2
-0.306, 2.4306603e-8, -1.3592851e-8, 1.0233353e+2
-0.307, 2.4393291e-8, -1.3635280e-8, 1.0266686e+2
-0.308, 2.4441949e-8, -1.3698743e-8, 1.0300020e+2
-0.309, 2.4478501e-8, -1.3742707e-8, 1.0333353e+2
-0.310, 2.4533657e-8, -1.3785844e-8, 1.0366687e+2
-0.311, 2.4598142e-8, -1.3825199e-8, 1.0400021e+2
-0.312, 2.4652469e-8, -1.3873891e-8, 1.0433354e+2
-0.313, 2.4728468e-8, -1.3913128e-8, 1.0466688e+2
-0.314, 2.4769982e-8, -1.3953311e-8, 1.0500021e+2
-0.315, 2.4831159e-8, -1.3991484e-8, 1.0533355e+2
-0.316, 2.4901844e-8, -1.4039230e-8, 1.0566689e+2
-0.317, 2.4943713e-8, -1.4067004e-8, 1.0600022e+2
-0.318, 2.5012683e-8, -1.4111440e-8, 1.0633356e+2
-0.319, 2.5072447e-8, -1.4155759e-8, 1.0666689e+2
-0.320, 2.5120041e-8, -1.4190504e-8, 1.0700023e+2
-0.321, 2.5198224e-8, -1.4232223e-8, 1.0733356e+2
-0.322, 2.5242572e-8, -1.4264724e-8, 1.0766690e+2
-0.323, 2.5296133e-8, -1.4307742e-8, 1.0800024e+2
-0.324, 2.5362686e-8, -1.4342843e-8, 1.0833357e+2
-0.325, 2.5413472e-8, -1.4367071e-8, 1.0866691e+2
-0.326, 2.5471047e-8, -1.4413992e-8, 1.0900024e+2
-0.327, 2.5530568e-8, -1.4438808e-8, 1.0933358e+2
-0.328, 2.5582535e-8, -1.4471546e-8, 1.0966692e+2
-0.329, 2.5649856e-8, -1.4509009e-8, 1.1000025e+2
-0.330, 2.5675599e-8, -1.4539737e-8, 1.1033359e+2
-0.331, 2.5743688e-8, -1.4572357e-8, 1.1066692e+2
-0.332, 2.5809706e-8, -1.4605330e-8, 1.1100026e+2
-0.333, 2.5838995e-8, -1.4635466e-8, 1.1133360e+2
-0.334, 2.5922615e-8, -1.4652957e-8, 1.1166693e+2
-0.335, 2.5978832e-8, -1.4695385e-8, 1.1200027e+2
-0.336, 2.6010541e-8, -1.4737696e-8, 1.1233360e+2
-0.337, 2.6087722e-8, -1.4769487e-8, 1.1266694e+2
-0.338, 2.6127049e-8, -1.4800215e-8, 1.1300027e+2
-0.339, 2.6196025e-8, -1.4827043e-8, 1.1333361e+2
-0.340, 2.6253954e-8, -1.4864979e-8, 1.1366695e+2
-0.341, 2.6283065e-8, -1.4901143e-8, 1.1400028e+2
-0.342, 2.6352925e-8, -1.4933171e-8, 1.1433362e+2
-0.343, 2.6405361e-8, -1.4968272e-8, 1.1466695e+2
-0.344, 2.6455259e-8, -1.5004552e-8, 1.1500029e+2
-0.345, 2.6534330e-8, -1.5029373e-8, 1.1533363e+2
-0.346, 2.6560372e-8, -1.5062819e-8, 1.1566696e+2
-0.347, 2.6626745e-8, -1.5097092e-8, 1.1600030e+2
-0.348, 2.6701153e-8, -1.5128055e-8, 1.1633363e+2
-0.349, 2.6722706e-8, -1.5158783e-8, 1.1666697e+2
-0.350, 2.6795755e-8, -1.5188801e-8, 1.1700031e+2
-0.351, 2.6853860e-8, -1.5216221e-8, 1.1733364e+2
-0.352, 2.6906356e-8, -1.5256285e-8, 1.1766698e+2
-0.353, 2.6972849e-8, -1.5285712e-8, 1.1800031e+2
-0.354, 2.7012179e-8, -1.5305568e-8, 1.1833365e+2
-0.355, 2.7066624e-8, -1.5341259e-8, 1.1866698e+2
-0.356, 2.7130399e-8, -1.5373642e-8, 1.1900032e+2
-0.357, 2.7162109e-8, -1.5402478e-8, 1.1933366e+2
-0.358, 2.7233741e-8, -1.5429896e-8, 1.1966699e+2
-0.359, 2.7286355e-8, -1.5461687e-8, 1.2000033e+2
-0.360, 2.7330229e-8, -1.5491825e-8, 1.2033366e+2
-0.361, 2.7397016e-8, -1.5521962e-8, 1.2066700e+2
-0.362, 2.7427429e-8, -1.5546663e-8, 1.2100034e+2
-0.363, 2.7495870e-8, -1.5571361e-8, 1.2133367e+2
-0.364, 2.7560477e-8, -1.5603627e-8, 1.2166701e+2
-0.365, 2.7597558e-8, -1.5634235e-8, 1.2200034e+2
-0.366, 2.7652774e-8, -1.5660000e-8, 1.2233368e+2
-0.367, 2.7719265e-8, -1.5686709e-8, 1.2266702e+2
-0.368, 2.7753455e-8, -1.5720982e-8, 1.2300035e+2
-0.369, 2.7822072e-8, -1.5746627e-8, 1.2333369e+2
-0.370, 2.7850891e-8, -1.5778538e-8, 1.2366702e+2
-0.371, 2.7900789e-8, -1.5803829e-8, 1.2400036e+2
-0.372, 2.7966690e-8, -1.5832194e-8, 1.2433369e+2
-0.373, 2.8000528e-8, -1.5862092e-8, 1.2466703e+2
-0.374, 2.8065836e-8, -1.5896722e-8, 1.2500037e+2
-0.375, 2.8138057e-8, -1.5915631e-8, 1.2533370e+2
-0.376, 2.8179512e-8, -1.5968459e-8, 1.2566704e+2
-0.377, 2.8263781e-8, -1.5982994e-8, 1.2600037e+2
-0.378, 2.8305177e-8, -1.6020104e-8, 1.2633371e+2
-0.379, 2.8367829e-8, -1.6055205e-8, 1.2666705e+2
-0.380, 2.8444830e-8, -1.6093143e-8, 1.2700038e+2
-0.381, 2.8482210e-8, -1.6130725e-8, 1.2733372e+2
-0.382, 2.8577581e-8, -1.6151644e-8, 1.2766705e+2
-0.383, 2.8648266e-8, -1.6198090e-8, 1.2800038e+2
-0.384, 2.8703303e-8, -1.6232363e-8, 1.2833371e+2
-0.385, 2.8801679e-8, -1.6269473e-8, 1.2866704e+2
-0.386, 2.8856185e-8, -1.6312610e-8, 1.2900037e+2
-0.387, 2.8938681e-8, -1.6345702e-8, 1.2933369e+2
-0.388, 2.9034817e-8, -1.6392383e-8, 1.2966702e+2
-0.389, 2.9098180e-8, -1.6422756e-8, 1.3000035e+2
-0.390, 2.9183393e-8, -1.6471329e-8, 1.3033368e+2
-0.391, 2.9270494e-8, -1.6507613e-8, 1.3066701e+2
-0.392, 2.9337695e-8, -1.6546613e-8, 1.3100034e+2
-0.393, 2.9433302e-8, -1.6590695e-8, 1.3133366e+2
-0.394, 2.9496722e-8, -1.6631587e-8, 1.3166699e+2
-0.395, 2.9586303e-8, -1.6665505e-8, 1.3200032e+2
-0.396, 2.9680431e-8, -1.6716678e-8, 1.3233365e+2
-0.397, 2.9729209e-8, -1.6758163e-8, 1.3266698e+2
-0.398, 2.9830009e-8, -1.6790663e-8, 1.3300031e+2
-0.399, 2.9907959e-8, -1.6833326e-8, 1.3333363e+2
