Jan. 28, 2006   00:35:37
Cyclic Voltammetry
File: z:\users\scottsaunders\git\labwork\ida\01_17_19_psoralen_nonequil_2\data\psoralen\1\75um_psoralen_transfer_1_gc_9.txt
Data Source:  Experiment
Instrument Model:  CHI760E
Header: 
Note: 

Init E (V) = 0
High E (V) = 0
Low E (V) = -0.4
Init P/N = N
Scan Rate (V/s) = 0.003
Segment = 1
Sample Interval (V) = 0.001
Quiet Time (sec) = 2
Sensitivity (A/V) = 1e-7
2nd E (V) = 0
Sens 2 (A/V) = 1e-7

Potential/V, i1/A, i2/A, Time/s

0.000, -3.8882739e-8, -4.1284441e-8, 3.3333334e-1
-0.001, -3.2129936e-8, -3.6535827e-8, 6.6666669e-1
-0.002, -2.8145946e-8, -3.2865046e-8, 1.0000000e+0
-0.003, -2.5057423e-8, -2.9904310e-8, 1.3333334e+0
-0.004, -2.2557526e-8, -2.7501756e-8, 1.6666667e+0
-0.005, -2.0506540e-8, -2.5469825e-8, 2.0000000e+0
-0.006, -1.8742309e-8, -2.3746118e-8, 2.3333333e+0
-0.007, -1.7225387e-8, -2.2255826e-8, 2.6666665e+0
-0.008, -1.5905345e-8, -2.0957932e-8, 2.9999998e+0
-0.009, -1.4705059e-8, -1.9821952e-8, 3.3333330e+0
-0.010, -1.3684289e-8, -1.8810420e-8, 3.6666663e+0
-0.011, -1.2732730e-8, -1.7917305e-8, 3.9999995e+0
-0.012, -1.1869747e-8, -1.7105503e-8, 4.3333330e+0
-0.013, -1.1125577e-8, -1.6371345e-8, 4.6666665e+0
-0.014, -1.0398295e-8, -1.5700655e-8, 5.0000000e+0
-0.015, -9.7339630e-9, -1.5085865e-8, 5.3333335e+0
-0.016, -9.1508863e-9, -1.4511492e-8, 5.6666670e+0
-0.017, -8.5662730e-9, -1.3996329e-8, 6.0000005e+0
-0.018, -8.0604359e-9, -1.3517922e-8, 6.3333340e+0
-0.019, -7.5659363e-9, -1.3074379e-8, 6.6666675e+0
-0.020, -7.0958848e-9, -1.2661092e-8, 7.0000010e+0
-0.021, -6.6828765e-9, -1.2276169e-8, 7.3333344e+0
-0.022, -6.2753016e-9, -1.1915827e-8, 7.6666679e+0
-0.023, -5.8817800e-9, -1.1572149e-8, 8.0000010e+0
-0.024, -5.5293596e-9, -1.1261917e-8, 8.3333340e+0
-0.025, -5.1674900e-9, -1.0965985e-8, 8.6666670e+0
-0.026, -4.8626645e-9, -1.0672299e-8, 9.0000000e+0
-0.027, -4.5381165e-9, -1.0400359e-8, 9.3333330e+0
-0.028, -4.2376609e-9, -1.0159619e-8, 9.6666660e+0
-0.029, -3.9856283e-9, -9.9244328e-9, 9.9999990e+0
-0.030, -3.7005261e-9, -9.7010666e-9, 1.0333332e+1
-0.031, -3.4488477e-9, -9.4825445e-9, 1.0666665e+1
-0.032, -3.2030740e-9, -9.2832870e-9, 1.0999998e+1
-0.033, -2.9526948e-9, -9.0832026e-9, 1.1333331e+1
-0.034, -2.7474307e-9, -8.9092369e-9, 1.1666664e+1
-0.035, -2.5243332e-9, -8.7260519e-9, 1.1999997e+1
-0.036, -2.2920235e-9, -8.5639043e-9, 1.2333330e+1
-0.037, -2.1141597e-9, -8.4049470e-9, 1.2666663e+1
-0.038, -1.9146829e-9, -8.2562721e-9, 1.2999996e+1
-0.039, -1.7127257e-9, -8.1064160e-9, 1.3333329e+1
-0.040, -1.5473808e-9, -7.9638864e-9, 1.3666662e+1
-0.041, -1.3497936e-9, -7.8289215e-9, 1.3999995e+1
-0.042, -1.2048806e-9, -7.6980919e-9, 1.4333328e+1
-0.043, -1.0313865e-9, -7.5723436e-9, 1.4666661e+1
-0.044, -8.5694762e-10, -7.4516784e-9, 1.4999994e+1
-0.045, -7.1486905e-10, -7.3285311e-9, 1.5333327e+1
-0.046, -5.6216121e-10, -7.2221660e-9, 1.5666660e+1
-0.047, -4.1724821e-10, -7.1165100e-9, 1.5999993e+1
-0.048, -2.8780672e-10, -7.0125088e-9, 1.6333326e+1
-0.049, -1.2659541e-10, -6.9063799e-9, 1.6666660e+1
-0.050, -2.3727241e-11, -6.8119510e-9, 1.6999994e+1
-0.051, 1.1528061e-10, -6.7190586e-9, 1.7333328e+1
-0.052, 2.6125657e-10, -6.6259296e-9, 1.7666662e+1
-0.053, 3.5526698e-10, -6.5419012e-9, 1.7999996e+1
-0.054, 4.7325244e-10, -6.4611823e-9, 1.8333330e+1
-0.055, 6.0021371e-10, -6.3804628e-9, 1.8666664e+1
-0.056, 7.0260947e-10, -6.3019887e-9, 1.8999998e+1
-0.057, 8.4114493e-10, -6.2167786e-9, 1.9333332e+1
-0.058, 9.1779401e-10, -6.1507142e-9, 1.9666666e+1
-0.059, 1.0195993e-9, -6.0840586e-9, 2.0000000e+1
-0.060, 1.1317975e-9, -6.0166943e-9, 2.0333334e+1
-0.061, 1.1991167e-9, -5.9459015e-9, 2.0666668e+1
-0.062, 1.3103703e-9, -5.8826739e-9, 2.1000002e+1
-0.063, 1.3991840e-9, -5.8220460e-9, 2.1333336e+1
-0.064, 1.4829195e-9, -5.7518448e-9, 2.1666670e+1
-0.065, 1.5881497e-9, -5.6973617e-9, 2.2000004e+1
-0.066, 1.6518075e-9, -5.6460703e-9, 2.2333338e+1
-0.067, 1.7334171e-9, -5.5776419e-9, 2.2666672e+1
-0.068, 1.8326238e-9, -5.5284777e-9, 2.3000006e+1
-0.069, 1.8912032e-9, -5.4717497e-9, 2.3333340e+1
-0.070, 1.9790722e-9, -5.4280216e-9, 2.3666674e+1
-0.071, 2.0551310e-9, -5.3759028e-9, 2.4000008e+1
-0.072, 2.1399293e-9, -5.2986104e-9, 2.4333342e+1
-0.073, 2.2429156e-9, -5.2378639e-9, 2.4666676e+1
-0.074, 2.2437423e-9, -5.2364459e-9, 2.5000010e+1
-0.075, 2.3218087e-9, -5.1851541e-9, 2.5333344e+1
-0.076, 2.3969227e-9, -5.1487539e-9, 2.5666677e+1
-0.077, 2.4425104e-9, -5.0968709e-9, 2.6000011e+1
-0.078, 2.5118372e-9, -5.0576343e-9, 2.6333345e+1
-0.079, 2.5810463e-9, -5.0202886e-9, 2.6666679e+1
-0.080, 2.6297047e-9, -4.9732516e-9, 2.7000013e+1
-0.081, 2.7129676e-9, -4.9368505e-9, 2.7333347e+1
-0.082, 2.7532410e-9, -4.9003317e-9, 2.7666681e+1
-0.083, 2.8128833e-9, -4.8661768e-9, 2.8000015e+1
-0.084, 2.8924851e-9, -4.8281219e-9, 2.8333349e+1
-0.085, 2.9104368e-9, -4.7940851e-9, 2.8666683e+1
-0.086, 2.9713783e-9, -4.7553210e-9, 2.9000017e+1
-0.087, 3.0431853e-9, -4.7144293e-9, 2.9333351e+1
-0.088, 3.0748371e-9, -4.6981201e-9, 2.9666685e+1
-0.089, 3.1508953e-9, -4.6617195e-9, 3.0000019e+1
-0.090, 3.1767600e-9, -4.6348920e-9, 3.0333353e+1
-0.091, 3.2332135e-9, -4.6003823e-9, 3.0666687e+1
-0.092, 3.2850609e-9, -4.5724908e-9, 3.1000021e+1
-0.093, 3.3196654e-9, -4.5351451e-9, 3.1333355e+1
-0.094, 3.3735208e-9, -4.5111537e-9, 3.1666689e+1
-0.095, 3.4259588e-9, -4.4833803e-9, 3.2000023e+1
-0.096, 3.4665861e-9, -4.4534798e-9, 3.2333355e+1
-0.097, 3.5287087e-9, -4.4186157e-9, 3.2666687e+1
-0.098, 3.5465424e-9, -4.3968700e-9, 3.3000019e+1
-0.099, 3.5828003e-9, -4.3688608e-9, 3.3333351e+1
-0.100, 3.6482293e-9, -4.3452237e-9, 3.3666683e+1
-0.101, 3.6698424e-9, -4.3168598e-9, 3.4000015e+1
-0.102, 3.7417673e-9, -4.2938142e-9, 3.4333347e+1
-0.103, 3.7749546e-9, -4.2710044e-9, 3.4666679e+1
-0.104, 3.7867651e-9, -4.2519770e-9, 3.5000011e+1
-0.105, 3.8521941e-9, -4.2266857e-9, 3.5333344e+1
-0.106, 3.8560919e-9, -4.2065946e-9, 3.5666676e+1
-0.107, 3.9101833e-9, -4.1888670e-9, 3.6000008e+1
-0.108, 3.9600225e-9, -4.1615666e-9, 3.6333340e+1
-0.109, 3.9849426e-9, -4.1432480e-9, 3.6666672e+1
-0.110, 4.0268695e-9, -4.1215027e-9, 3.7000004e+1
-0.111, 4.0625370e-9, -4.0990473e-9, 3.7333336e+1
-0.112, 4.0830868e-9, -4.0820289e-9, 3.7666668e+1
-0.113, 4.1456816e-9, -4.0587471e-9, 3.8000000e+1
-0.114, 4.1594994e-9, -4.0497645e-9, 3.8333332e+1
-0.115, 4.1982378e-9, -4.0255372e-9, 3.8666664e+1
-0.116, 4.2416999e-9, -4.0063917e-9, 3.8999996e+1
-0.117, 4.2565809e-9, -3.9832275e-9, 3.9333328e+1
-0.118, 4.2966177e-9, -3.9708183e-9, 3.9666660e+1
-0.119, 4.3373634e-9, -3.9551002e-9, 3.9999992e+1
-0.120, 4.3771644e-9, -3.9197627e-9, 4.0333324e+1
-0.121, 4.4098787e-9, -3.9207082e-9, 4.0666656e+1
-0.122, 4.4240518e-9, -3.9111359e-9, 4.0999989e+1
-0.123, 4.4640887e-9, -3.8902170e-9, 4.1333321e+1
-0.124, 4.5055430e-9, -3.8683532e-9, 4.1666653e+1
-0.125, 4.5276281e-9, -3.8386889e-9, 4.1999985e+1
-0.126, 4.5640043e-9, -3.8403436e-9, 4.2333317e+1
-0.127, 4.5984900e-9, -3.8305346e-9, 4.2666649e+1
-0.128, 4.6064033e-9, -3.8175343e-9, 4.2999981e+1
-0.129, 4.6749036e-9, -3.8000429e-9, 4.3333313e+1
-0.130, 4.6826987e-9, -3.7853880e-9, 4.3666645e+1
-0.131, 4.7148223e-9, -3.7752246e-9, 4.3999977e+1
-0.132, 4.7705675e-9, -3.7527697e-9, 4.4333309e+1
-0.133, 4.7768265e-9, -3.7441423e-9, 4.4666641e+1
-0.134, 4.8212336e-9, -3.7306691e-9, 4.4999973e+1
-0.135, 4.8550115e-9, -3.7161327e-9, 4.5333305e+1
-0.136, 4.8828839e-9, -3.7018326e-9, 4.5666637e+1
-0.137, 4.9349675e-9, -3.6830414e-9, 4.5999969e+1
-0.138, 4.9420534e-9, -3.6744137e-9, 4.6333302e+1
-0.139, 4.9734692e-9, -3.6707501e-9, 4.6666634e+1
-0.140, 5.0275606e-9, -3.6595227e-9, 4.6999966e+1
-0.141, 5.0333480e-9, -3.6440406e-9, 4.7333298e+1
-0.142, 5.0752740e-9, -3.6402588e-9, 4.7666630e+1
-0.143, 5.1163744e-9, -3.6256038e-9, 4.7999962e+1
-0.144, 5.1339715e-9, -3.6105947e-9, 4.8333294e+1
-0.145, 5.1833391e-9, -3.6050403e-9, 4.8666626e+1
-0.146, 5.2037707e-9, -3.5923946e-9, 4.8999958e+1
-0.147, 5.2446349e-9, -3.5737213e-9, 4.9333290e+1
-0.148, 5.2814833e-9, -3.5713581e-9, 4.9666622e+1
-0.149, 5.2986078e-9, -3.5608396e-9, 4.9999954e+1
-0.150, 5.3343934e-9, -3.5550487e-9, 5.0333286e+1
-0.151, 5.3732494e-9, -3.5445302e-9, 5.0666618e+1
-0.152, 5.4010036e-9, -3.5286933e-9, 5.0999950e+1
-0.153, 5.4546230e-9, -3.5269208e-9, 5.1333282e+1
-0.154, 5.4654885e-9, -3.5168752e-9, 5.1666615e+1
-0.155, 5.5071787e-9, -3.5047025e-9, 5.1999947e+1
-0.156, 5.5513496e-9, -3.4979657e-9, 5.2333279e+1
-0.157, 5.5517040e-9, -3.4862657e-9, 5.2666611e+1
-0.158, 5.6065041e-9, -3.4744476e-9, 5.2999943e+1
-0.159, 5.6411085e-9, -3.4763381e-9, 5.3333275e+1
-0.160, 5.6773661e-9, -3.4685381e-9, 5.3666607e+1
-0.161, 5.7263794e-9, -3.4596745e-9, 5.3999939e+1
-0.162, 5.7420868e-9, -3.4536469e-9, 5.4333271e+1
-0.163, 5.7719669e-9, -3.4405288e-9, 5.4666603e+1
-0.164, 5.8319638e-9, -3.4336742e-9, 5.4999935e+1
-0.165, 5.8438920e-9, -3.4255192e-9, 5.5333267e+1
-0.166, 5.8867640e-9, -3.4199648e-9, 5.5666599e+1
-0.167, 5.9368395e-9, -3.4107461e-9, 5.5999931e+1
-0.168, 5.9624679e-9, -3.4056646e-9, 5.6333263e+1
-0.169, 6.0120717e-9, -3.3994008e-9, 5.6666595e+1
-0.170, 6.0290786e-9, -3.3916003e-9, 5.6999928e+1
-0.171, 6.0842327e-9, -3.3731640e-9, 5.7333260e+1
-0.172, 6.1272227e-9, -3.3809644e-9, 5.7666592e+1
-0.173, 6.1510796e-9, -3.3762366e-9, 5.7999924e+1
-0.174, 6.2010370e-9, -3.3712730e-9, 5.8333256e+1
-0.175, 6.2431997e-9, -3.3664276e-9, 5.8666588e+1
-0.176, 6.2766232e-9, -3.3527185e-9, 5.8999920e+1
-0.177, 6.3313053e-9, -3.3593368e-9, 5.9333252e+1
-0.178, 6.3551622e-9, -3.3502368e-9, 5.9666584e+1
-0.179, 6.4002776e-9, -3.3473999e-9, 5.9999916e+1
-0.180, 6.4553136e-9, -3.3490546e-9, 6.0333248e+1
-0.181, 6.4749188e-9, -3.3439727e-9, 6.0666580e+1
-0.182, 6.5234596e-9, -3.3377090e-9, 6.0999912e+1
-0.183, 6.5821575e-9, -3.3326268e-9, 6.1333244e+1
-0.184, 6.6136914e-9, -3.3278997e-9, 6.1666576e+1
-0.185, 6.6812458e-9, -3.3225815e-9, 6.1999908e+1
-0.186, 6.7130155e-9, -3.3210450e-9, 6.2333241e+1
-0.187, 6.7526984e-9, -3.3200995e-9, 6.2666573e+1
-0.188, 6.8173005e-9, -3.3234091e-9, 6.2999905e+1
-0.189, 6.8405672e-9, -3.3167906e-9, 6.3333237e+1
-0.190, 6.9068240e-9, -3.3186813e-9, 6.3666569e+1
-0.191, 6.9632771e-9, -3.3156087e-9, 6.3999901e+1
-0.192, 6.9926851e-9, -3.3174996e-9, 6.4333237e+1
-0.193, 7.0699251e-9, -3.3171452e-9, 6.4666573e+1
-0.194, 7.0928365e-9, -3.3179723e-9, 6.4999908e+1
-0.195, 7.1536603e-9, -3.3156087e-9, 6.5333244e+1
-0.196, 7.2176727e-9, -3.3156087e-9, 6.5666580e+1
-0.197, 7.2591262e-9, -3.3133629e-9, 6.5999916e+1
-0.198, 7.3217223e-9, -3.3177361e-9, 6.6333252e+1
-0.199, 7.3832536e-9, -3.3260088e-9, 6.6666588e+1
-0.200, 7.4288415e-9, -3.3275451e-9, 6.6999924e+1
-0.201, 7.4948616e-9, -3.3356999e-9, 6.7333260e+1
-0.202, 7.5549762e-9, -3.3255361e-9, 6.7666595e+1
-0.203, 7.6172171e-9, -3.3404273e-9, 6.7999931e+1
-0.204, 7.6924485e-9, -3.3449181e-9, 6.8333267e+1
-0.205, 7.7711055e-9, -3.3563818e-9, 6.8666603e+1
-0.206, 7.8132683e-9, -3.3617003e-9, 6.8999939e+1
-0.207, 7.8804687e-9, -3.3702090e-9, 6.9333275e+1
-0.208, 7.9355056e-9, -3.3776548e-9, 6.9666611e+1
-0.209, 8.0297520e-9, -3.3845093e-9, 6.9999947e+1
-0.210, 8.0856148e-9, -3.4040102e-9, 7.0333282e+1
-0.211, 8.1688780e-9, -3.4163010e-9, 7.0666618e+1
-0.212, 8.2568654e-9, -3.4288283e-9, 7.0999954e+1
-0.213, 8.3120195e-9, -3.4423016e-9, 7.1333290e+1
-0.214, 8.4094545e-9, -3.4454923e-9, 7.1666626e+1
-0.215, 8.4850420e-9, -3.4800018e-9, 7.1999962e+1
-0.216, 8.5635801e-9, -3.4965475e-9, 7.2333298e+1
-0.217, 8.6729441e-9, -3.5140388e-9, 7.2666634e+1
-0.218, 8.7347125e-9, -3.5323575e-9, 7.2999969e+1
-0.219, 8.8406509e-9, -3.5559942e-9, 7.3333305e+1
-0.220, 8.9536760e-9, -3.5893217e-9, 7.3666641e+1
-0.221, 9.0281995e-9, -3.6128402e-9, 7.3999977e+1
-0.222, 9.1458308e-9, -3.6430952e-9, 7.4333313e+1
-0.223, 9.2522425e-9, -3.6810319e-9, 7.4666649e+1
-0.224, 9.3562909e-9, -3.7109327e-9, 7.4999985e+1
-0.225, 9.5047472e-9, -3.7487511e-9, 7.5333321e+1
-0.226, 9.5895452e-9, -3.7937791e-9, 7.5666656e+1
-0.227, 9.7189874e-9, -3.8337253e-9, 7.5999992e+1
-0.228, 9.8656718e-9, -3.8799350e-9, 7.6333328e+1
-0.229, 9.9725552e-9, -3.9328811e-9, 7.6666664e+1
-0.230, 1.0118177e-8, -3.9696366e-9, 7.7000000e+1
-0.231, 1.0252342e-8, -4.0333372e-9, 7.7333336e+1
-0.232, 1.0383202e-8, -4.0955017e-9, 7.7666672e+1
-0.233, 1.0557049e-8, -4.1540029e-9, 7.8000008e+1
-0.234, 1.0682239e-8, -4.2177035e-9, 7.8333344e+1
-0.235, 1.0850419e-8, -4.2851864e-9, 7.8666679e+1
-0.236, 1.1022496e-8, -4.3532604e-9, 7.9000015e+1
-0.237, 1.1167526e-8, -4.4277160e-9, 7.9333351e+1
-0.238, 1.1338895e-8, -4.5038262e-9, 7.9666687e+1
-0.239, 1.1516522e-8, -4.5846638e-9, 8.0000023e+1
-0.240, 1.1680214e-8, -4.6639652e-9, 8.0333359e+1
-0.241, 1.1879691e-8, -4.7502389e-9, 8.0666695e+1
-0.242, 1.2048225e-8, -4.8246949e-9, 8.1000031e+1
-0.243, 1.2195027e-8, -4.9356688e-9, 8.1333366e+1
-0.244, 1.2399818e-8, -5.0227702e-9, 8.1666702e+1
-0.245, 1.2557723e-8, -5.1292535e-9, 8.2000038e+1
-0.246, 1.2754129e-8, -5.2228550e-9, 8.2333374e+1
-0.247, 1.2952190e-8, -5.3325291e-9, 8.2666710e+1
-0.248, 1.3148950e-8, -5.4297944e-9, 8.3000046e+1
-0.249, 1.3352560e-8, -5.5459686e-9, 8.3333382e+1
-0.250, 1.3530896e-8, -5.6571792e-9, 8.3666718e+1
-0.251, 1.3725768e-8, -5.7725269e-9, 8.4000053e+1
-0.252, 1.3941189e-8, -5.8766463e-9, 8.4333389e+1
-0.253, 1.4106768e-8, -5.9967209e-9, 8.4666725e+1
-0.254, 1.4299160e-8, -6.1221135e-9, 8.5000061e+1
-0.255, 1.4501353e-8, -6.2401790e-9, 8.5333397e+1
-0.256, 1.4681460e-8, -6.3537531e-9, 8.5666733e+1
-0.257, 1.4893692e-8, -6.4688637e-9, 8.6000069e+1
-0.258, 1.5061046e-8, -6.5950840e-9, 8.6333405e+1
-0.259, 1.5238083e-8, -6.7176402e-9, 8.6666740e+1
-0.260, 1.5433544e-8, -6.8359420e-9, 8.7000076e+1
-0.261, 1.5597827e-8, -6.9600352e-9, 8.7333412e+1
-0.262, 1.5788563e-8, -7.0825914e-9, 8.7666748e+1
-0.263, 1.5971505e-8, -7.1945108e-9, 8.8000084e+1
-0.264, 1.6123504e-8, -7.3152955e-9, 8.8333420e+1
-0.265, 1.6314123e-8, -7.4367876e-9, 8.8666756e+1
-0.266, 1.6460335e-8, -7.5477615e-9, 8.9000092e+1
-0.267, 1.6619303e-8, -7.6751645e-9, 8.9333427e+1
-0.268, 1.6784767e-8, -7.7859017e-9, 8.9666763e+1
-0.269, 1.6928261e-8, -7.8940401e-9, 9.0000099e+1
-0.270, 1.7083568e-8, -8.0030054e-9, 9.0333435e+1
-0.271, 1.7234859e-8, -8.1161069e-9, 9.0666771e+1
-0.272, 1.7365128e-8, -8.2171541e-9, 9.1000107e+1
-0.273, 1.7524567e-8, -8.3267091e-9, 9.1333443e+1
-0.274, 1.7652710e-8, -8.4214928e-9, 9.1666779e+1
-0.275, 1.7786046e-8, -8.5142675e-9, 9.2000114e+1
-0.276, 1.7931491e-8, -8.6205141e-9, 9.2333450e+1
-0.277, 1.8037964e-8, -8.7104519e-9, 9.2666786e+1
-0.278, 1.8158959e-8, -8.8092529e-9, 9.3000122e+1
-0.279, 1.8283087e-8, -8.8965910e-9, 9.3333458e+1
-0.280, 1.8395049e-8, -8.9853476e-9, 9.3666794e+1
-0.281, 1.8518467e-8, -9.0726848e-9, 9.4000130e+1
-0.282, 1.8603856e-8, -9.1552943e-9, 9.4333466e+1
-0.283, 1.8713102e-8, -9.2392050e-9, 9.4666801e+1
-0.284, 1.8836579e-8, -9.3143697e-9, 9.5000137e+1
-0.285, 1.8902776e-8, -9.3943804e-9, 9.5333473e+1
-0.286, 1.9009009e-8, -9.4677715e-9, 9.5666809e+1
-0.287, 1.9105499e-8, -9.5332462e-9, 9.6000145e+1
-0.288, 1.9198566e-8, -9.6077013e-9, 9.6333481e+1
-0.289, 1.9305922e-8, -9.6558024e-9, 9.6666817e+1
-0.290, 1.9350034e-8, -9.7399484e-9, 9.7000153e+1
-0.291, 1.9439202e-8, -9.8051860e-9, 9.7333488e+1
-0.292, 1.9537818e-8, -9.8685327e-9, 9.7666824e+1
-0.293, 1.9589431e-8, -9.9252606e-9, 9.8000160e+1
-0.294, 1.9669505e-8, -9.9751336e-9, 9.8333496e+1
-0.295, 1.9750759e-8, -1.0026426e-8, 9.8666832e+1
-0.296, 1.9815717e-8, -1.0081499e-8, 9.9000168e+1
-0.297, 1.9898270e-8, -1.0132200e-8, 9.9333504e+1
-0.298, 1.9938309e-8, -1.0185264e-8, 9.9666840e+1
-0.299, 2.0021984e-8, -1.0233956e-8, 1.0000018e+2
-0.300, 2.0082926e-8, -1.0281229e-8, 1.0033351e+2
-0.301, 2.0140263e-8, -1.0324839e-8, 1.0066685e+2
-0.302, 2.0207938e-8, -1.0373058e-8, 1.0100018e+2
-0.303, 2.0265984e-8, -1.0417376e-8, 1.0133352e+2
-0.304, 2.0315177e-8, -1.0456377e-8, 1.0166685e+2
-0.305, 2.0395898e-8, -1.0499869e-8, 1.0200019e+2
-0.306, 2.0440483e-8, -1.0536861e-8, 1.0233353e+2
-0.307, 2.0517781e-8, -1.0581179e-8, 1.0266686e+2
-0.308, 2.0578369e-8, -1.0611316e-8, 1.0300020e+2
-0.309, 2.0602698e-8, -1.0659653e-8, 1.0333353e+2
-0.310, 2.0659980e-8, -1.0699245e-8, 1.0366687e+2
-0.311, 2.0715664e-8, -1.0740136e-8, 1.0400021e+2
-0.312, 2.0766214e-8, -1.0767437e-8, 1.0433354e+2
-0.313, 2.0846228e-8, -1.0806083e-8, 1.0466688e+2
-0.314, 2.0888509e-8, -1.0823220e-8, 1.0500021e+2
-0.315, 2.0919570e-8, -1.0881365e-8, 1.0533355e+2
-0.316, 2.0996220e-8, -1.0916111e-8, 1.0566689e+2
-0.317, 2.1015648e-8, -1.0942230e-8, 1.0600022e+2
-0.318, 2.1083439e-8, -1.0980285e-8, 1.0633356e+2
-0.319, 2.1158199e-8, -1.0999904e-8, 1.0666689e+2
-0.320, 2.1178041e-8, -1.1033941e-8, 1.0700023e+2
-0.321, 2.1248962e-8, -1.1069395e-8, 1.0733356e+2
-0.322, 2.1277128e-8, -1.1102251e-8, 1.0766690e+2
-0.323, 2.1330157e-8, -1.1121870e-8, 1.0800024e+2
-0.324, 2.1384663e-8, -1.1162642e-8, 1.0833357e+2
-0.325, 2.1421156e-8, -1.1188289e-8, 1.0866691e+2
-0.326, 2.1471941e-8, -1.1217834e-8, 1.0900024e+2
-0.327, 2.1534714e-8, -1.1228825e-8, 1.0933358e+2
-0.328, 2.1555618e-8, -1.1266644e-8, 1.0966692e+2
-0.329, 2.1612660e-8, -1.1298318e-8, 1.1000025e+2
-0.330, 2.1630969e-8, -1.1320063e-8, 1.1033359e+2
-0.331, 2.1678563e-8, -1.1340509e-8, 1.1066692e+2
-0.332, 2.1735724e-8, -1.1366390e-8, 1.1100026e+2
-0.333, 2.1741808e-8, -1.1396410e-8, 1.1133360e+2
-0.334, 2.1804343e-8, -1.1409055e-8, 1.1166693e+2
-0.335, 2.1841251e-8, -1.1442619e-8, 1.1200027e+2
-0.336, 2.1868946e-8, -1.1461291e-8, 1.1233360e+2
-0.337, 2.1928530e-8, -1.1479020e-8, 1.1266694e+2
-0.338, 2.1950616e-8, -1.1505965e-8, 1.1300027e+2
-0.339, 2.1994964e-8, -1.1530076e-8, 1.1333361e+2
-0.340, 2.2040018e-8, -1.1548866e-8, 1.1366695e+2
-0.341, 2.2053541e-8, -1.1569313e-8, 1.1400028e+2
-0.342, 2.2098126e-8, -1.1596375e-8, 1.1433362e+2
-0.343, 2.2138636e-8, -1.1613986e-8, 1.1466695e+2
-0.344, 2.2166390e-8, -1.1640931e-8, 1.1500029e+2
-0.345, 2.2224260e-8, -1.1659605e-8, 1.1533363e+2
-0.346, 2.2238670e-8, -1.1677450e-8, 1.1566696e+2
-0.347, 2.2278648e-8, -1.1705223e-8, 1.1600030e+2
-0.348, 2.2331381e-8, -1.1720823e-8, 1.1633363e+2
-0.349, 2.2338762e-8, -1.1742569e-8, 1.1666697e+2
-0.350, 2.2396572e-8, -1.1771170e-8, 1.1700031e+2
-0.351, 2.2443935e-8, -1.1790553e-8, 1.1733364e+2
-0.352, 2.2482080e-8, -1.1813952e-8, 1.1766698e+2
-0.353, 2.2547923e-8, -1.1828607e-8, 1.1800031e+2
-0.354, 2.2584240e-8, -1.1841134e-8, 1.1833365e+2
-0.355, 2.2604377e-8, -1.1889472e-8, 1.1866698e+2
-0.356, 2.2675534e-8, -1.1906607e-8, 1.1900032e+2
-0.357, 2.2707955e-8, -1.1930954e-8, 1.1933366e+2
-0.358, 2.2765587e-8, -1.1954000e-8, 1.1966699e+2
-0.359, 2.2814422e-8, -1.1981654e-8, 1.2000033e+2
-0.360, 2.2851392e-8, -1.2003400e-8, 1.2033366e+2
-0.361, 2.2919950e-8, -1.2021955e-8, 1.2066700e+2
-0.362, 2.2944457e-8, -1.2051383e-8, 1.2100034e+2
-0.363, 2.3001855e-8, -1.2080338e-8, 1.2133367e+2
-0.364, 2.3070296e-8, -1.2101492e-8, 1.2166701e+2
-0.365, 2.3103127e-8, -1.2131393e-8, 1.2200034e+2
-0.366, 2.3163595e-8, -1.2153139e-8, 1.2233368e+2
-0.367, 2.3228493e-8, -1.2176422e-8, 1.2266702e+2
-0.368, 2.3257313e-8, -1.2211758e-8, 1.2300035e+2
-0.369, 2.3344237e-8, -1.2239059e-8, 1.2333369e+2
-0.370, 2.3379137e-8, -1.2266950e-8, 1.2366702e+2
-0.371, 2.3435531e-8, -1.2289878e-8, 1.2400036e+2
-0.372, 2.3516254e-8, -1.2317533e-8, 1.2433369e+2
-0.373, 2.3543063e-8, -1.2348260e-8, 1.2466703e+2
-0.374, 2.3615874e-8, -1.2374614e-8, 1.2500037e+2
-0.375, 2.3680357e-8, -1.2398842e-8, 1.2533370e+2
-0.376, 2.3736575e-8, -1.2426971e-8, 1.2566704e+2
-0.377, 2.3816357e-8, -1.2455571e-8, 1.2600037e+2
-0.378, 2.3861531e-8, -1.2484406e-8, 1.2633371e+2
-0.379, 2.3919341e-8, -1.2516791e-8, 1.2666705e+2
-0.380, 2.3997881e-8, -1.2548464e-8, 1.2700038e+2
-0.381, 2.4040515e-8, -1.2569854e-8, 1.2733372e+2
-0.382, 2.4116751e-8, -1.2598100e-8, 1.2766705e+2
-0.383, 2.4177988e-8, -1.2637811e-8, 1.2800038e+2
-0.384, 2.4221922e-8, -1.2671847e-8, 1.2833371e+2
-0.385, 2.4304121e-8, -1.2696546e-8, 1.2866704e+2
-0.386, 2.4348175e-8, -1.2728101e-8, 1.2900037e+2
-0.387, 2.4411419e-8, -1.2752211e-8, 1.2933369e+2
-0.388, 2.4489605e-8, -1.2784003e-8, 1.2966702e+2
-0.389, 2.4543342e-8, -1.2809412e-8, 1.3000035e+2
-0.390, 2.4621761e-8, -1.2832222e-8, 1.3033368e+2
-0.391, 2.4685184e-8, -1.2869567e-8, 1.3066701e+2
-0.392, 2.4736382e-8, -1.2893913e-8, 1.3100034e+2
-0.393, 2.4814566e-8, -1.2918377e-8, 1.3133366e+2
-0.394, 2.4854840e-8, -1.2945442e-8, 1.3166699e+2
-0.395, 2.4930721e-8, -1.2975224e-8, 1.3200032e+2
-0.396, 2.5002823e-8, -1.3005478e-8, 1.3233365e+2
-0.397, 2.5034415e-8, -1.3033134e-8, 1.3266698e+2
-0.398, 2.5138405e-8, -1.3049089e-8, 1.3300031e+2
-0.399, 2.5203127e-8, -1.3083953e-8, 1.3333363e+2
