Dec. 9, 2005   03:24:08
Square Wave Voltammetry
File: d:\ida_biofilms\11_28_18_blankidapyo\100um_transfer\100um_pyo_transfer_swv_49.txt
Data Source:  Experiment
Instrument Model:  CHI760B
Header: 
Note: 

Init E (V) = 0.1
Final E (V) = -0.5
Incr E (V) = 0.001
Amplitude (V) = 0.025
Frequency (Hz) = 300
Quiet Time (sec) = 2
Sensitivity (A/V) = 1e-6
Sens 2 (A/V) = 1e-6

Potential/V, i1/A, i2/A

0.099, 5.9093145e-7, 3.1848685e-7
0.098, 5.9668673e-7, 4.2312101e-7
0.097, 5.6339178e-7, 3.8299891e-7
0.096, 5.6721763e-7, 3.6710173e-7
0.095, 6.0475077e-7, 4.0108932e-7
0.094, 5.4942404e-7, 3.5285370e-7
0.093, 5.8237271e-7, 3.0230939e-7
0.092, 5.2636989e-7, 3.1035688e-7
0.091, 5.6804220e-7, 3.7199953e-7
0.090, 5.6240231e-7, 3.7811759e-7
0.089, 5.3520898e-7, 3.2495126e-7
0.088, 5.7615568e-7, 3.8931486e-7
0.087, 5.0968123e-7, 3.9107937e-7
0.086, 5.6540364e-7, 3.3252053e-7
0.085, 5.3011331e-7, 3.0959831e-7
0.084, 5.3595107e-7, 3.3090444e-7
0.083, 5.4272880e-7, 3.6104962e-7
0.082, 5.0700970e-7, 2.5188052e-7
0.081, 5.3214171e-7, 2.8578563e-7
0.080, 4.8753407e-7, 3.2849681e-7
0.079, 5.1665688e-7, 3.4820329e-7
0.078, 5.1579934e-7, 3.1551855e-7
0.077, 4.8510992e-7, 3.6091768e-7
0.076, 5.2097744e-7, 3.7082867e-7
0.075, 4.6415013e-7, 3.0577246e-7
0.074, 5.2465487e-7, 3.0349673e-7
0.073, 4.7224711e-7, 2.9972034e-7
0.072, 5.0884023e-7, 2.5433764e-7
0.071, 4.9505388e-7, 2.7653428e-7
0.070, 4.6391926e-7, 3.1248419e-7
0.069, 5.0509681e-7, 2.9023812e-7
0.068, 4.3332881e-7, 3.0448615e-7
0.067, 4.9467462e-7, 3.4452586e-7
0.066, 4.6512309e-7, 3.4474022e-7
0.065, 4.6350698e-7, 3.0926850e-7
0.064, 5.0300247e-7, 2.7739179e-7
0.063, 4.3741852e-7, 2.6954217e-7
0.062, 4.8583553e-7, 2.9462467e-7
0.061, 4.2745808e-7, 2.1771157e-7
0.060, 4.6944365e-7, 2.4866480e-7
0.059, 4.7229659e-7, 3.1296247e-7
0.058, 4.3778135e-7, 2.9206862e-7
0.057, 4.6177544e-7, 2.7285682e-7
0.056, 4.0750422e-7, 3.0308445e-7
0.055, 4.6421610e-7, 3.2869468e-7
0.054, 4.2620479e-7, 3.0315044e-7
0.053, 4.3651153e-7, 2.3911664e-7
0.052, 4.4370154e-7, 2.9061741e-7
0.051, 4.0311767e-7, 2.7096036e-7
0.050, 4.3941392e-7, 2.1594707e-7
0.049, 3.9830235e-7, 2.2496752e-7
0.048, 4.4675232e-7, 2.8435090e-7
0.047, 4.2818368e-7, 2.9582850e-7
0.046, 4.0686109e-7, 2.5565691e-7
0.045, 4.2704582e-7, 2.9807126e-7
0.044, 3.8195998e-7, 3.2148819e-7
0.043, 4.2973380e-7, 2.8469719e-7
0.042, 4.0275486e-7, 2.5507973e-7
0.041, 4.0765264e-7, 2.5326574e-7
0.040, 4.2773843e-7, 2.6378689e-7
0.039, 3.7763940e-7, 2.0506313e-7
0.038, 4.3502735e-7, 2.1053808e-7
0.037, 3.7597380e-7, 2.6868463e-7
0.036, 4.1222060e-7, 2.6390234e-7
0.035, 4.0636635e-7, 2.8725327e-7
0.034, 3.9937424e-7, 2.5257313e-7
0.033, 4.2462167e-7, 3.1223686e-7
0.032, 3.7519874e-7, 2.5503024e-7
0.031, 4.2584199e-7, 2.5432115e-7
0.030, 3.7768882e-7, 2.4660346e-7
0.029, 3.8398832e-7, 2.4183760e-7
0.028, 4.0414011e-7, 2.3456518e-7
0.027, 3.6903117e-7, 2.0629994e-7
0.026, 4.1810779e-7, 2.6761273e-7
0.025, 3.5971388e-7, 2.4229936e-7
0.024, 4.0339802e-7, 2.7284034e-7
0.023, 3.9188743e-7, 2.8979287e-7
0.022, 3.8550550e-7, 2.7683112e-7
0.021, 4.0765264e-7, 2.8745120e-7
0.020, 3.6431481e-7, 2.4025451e-7
0.019, 4.0514601e-7, 2.6314373e-7
0.018, 3.5940053e-7, 2.1030721e-7
0.017, 4.0232612e-7, 2.0583821e-7
0.016, 3.9980301e-7, 2.5822948e-7
0.015, 3.6365515e-7, 2.5029740e-7
0.014, 3.9741184e-7, 2.4394845e-7
0.013, 3.5651465e-7, 2.6103291e-7
0.012, 3.9591117e-7, 2.8438390e-7
0.011, 3.7605628e-7, 2.6926182e-7
0.010, 3.8289994e-7, 2.2732571e-7
0.009, 4.0112229e-7, 2.3535674e-7
0.008, 3.5402454e-7, 2.3755001e-7
0.007, 4.0735580e-7, 1.9462445e-7
0.006, 3.5639923e-7, 1.8657694e-7
0.005, 3.9099695e-7, 2.3867139e-7
0.004, 3.8527463e-7, 2.7270841e-7
0.003, 3.5733922e-7, 2.2760605e-7
0.002, 4.0389273e-7, 2.5941682e-7
0.001, 3.3835829e-7, 2.7808443e-7
-0.000, 3.9152462e-7, 2.9236543e-7
-0.001, 3.5385963e-7, 2.5841086e-7
-0.002, 3.9373441e-7, 2.0722342e-7
-0.003, 3.9518562e-7, 2.5493131e-7
-0.004, 3.5519540e-7, 1.9848329e-7
-0.005, 3.9150814e-7, 1.9696614e-7
-0.006, 3.4798893e-7, 2.2749062e-7
-0.007, 3.8520864e-7, 2.5087459e-7
-0.008, 3.7653450e-7, 2.6607910e-7
-0.009, 3.6838804e-7, 2.3400449e-7
-0.010, 3.8641249e-7, 2.8016223e-7
-0.011, 3.4690052e-7, 2.5920244e-7
-0.012, 3.9099695e-7, 2.6154413e-7
-0.013, 3.5359579e-7, 2.4454209e-7
-0.014, 3.7963477e-7, 2.2594048e-7
-0.015, 3.7053184e-7, 2.3659354e-7
-0.016, 3.4168943e-7, 1.8474647e-7
-0.017, 3.9533398e-7, 2.1812384e-7
-0.018, 3.4243152e-7, 2.4637259e-7
-0.019, 3.8939731e-7, 2.4815361e-7
-0.020, 3.7521522e-7, 2.7795249e-7
-0.021, 3.7152131e-7, 2.5425521e-7
-0.022, 3.9747783e-7, 2.9897825e-7
-0.023, 3.4045260e-7, 2.5498079e-7
-0.024, 4.0860908e-7, 2.4462457e-7
-0.025, 3.6281415e-7, 2.5221033e-7
-0.026, 3.7618818e-7, 2.4414635e-7
-0.027, 3.9147517e-7, 2.2427491e-7
-0.028, 3.5371121e-7, 1.9765875e-7
-0.029, 4.1101674e-7, 2.6936078e-7
-0.030, 3.4835170e-7, 2.4582837e-7
-0.031, 3.7737550e-7, 2.6137923e-7
-0.032, 3.9845077e-7, 2.8530738e-7
-0.033, 3.7932142e-7, 2.7125722e-7
-0.034, 4.0796596e-7, 2.9698288e-7
-0.035, 3.4612546e-7, 2.4055132e-7
-0.036, 4.1810782e-7, 2.4906058e-7
-0.037, 3.6607935e-7, 2.3364169e-7
-0.038, 3.9967108e-7, 2.0930128e-7
-0.039, 3.9948969e-7, 2.2905725e-7
-0.040, 3.8431816e-7, 2.3499393e-7
-0.041, 4.0483272e-7, 2.5771826e-7
-0.042, 3.5603642e-7, 2.4256320e-7
-0.043, 3.9878060e-7, 2.9172230e-7
-0.044, 3.9792306e-7, 3.0773487e-7
-0.045, 3.8811106e-7, 2.6790957e-7
-0.046, 4.1654118e-7, 2.6556788e-7
-0.047, 3.7117496e-7, 2.3611531e-7
-0.048, 4.1855310e-7, 2.5466747e-7
-0.049, 3.6512284e-7, 2.0882302e-7
-0.050, 4.2689737e-7, 2.1513900e-7
-0.051, 4.1936110e-7, 2.6734890e-7
-0.052, 3.6855295e-7, 2.7264244e-7
-0.053, 4.2824968e-7, 2.4968725e-7
-0.054, 3.6226996e-7, 2.7209825e-7
-0.055, 4.1541981e-7, 3.3040973e-7
-0.056, 3.8910048e-7, 3.0123749e-7
-0.057, 4.1121461e-7, 2.6677171e-7
-0.058, 4.3329584e-7, 2.7693005e-7
-0.059, 3.8151472e-7, 2.5006653e-7
-0.060, 4.3496141e-7, 2.6406721e-7
-0.061, 3.8677530e-7, 2.0262249e-7
-0.062, 4.2900822e-7, 2.2411000e-7
-0.063, 4.1184131e-7, 3.0801522e-7
-0.064, 3.9828586e-7, 2.6156061e-7
-0.065, 4.3872132e-7, 2.6842079e-7
-0.066, 3.8586828e-7, 2.9243142e-7
-0.067, 4.4490537e-7, 3.2391236e-7
-0.068, 4.0120474e-7, 2.7895842e-7
-0.069, 4.3133343e-7, 2.2852954e-7
-0.070, 4.5130378e-7, 2.7859562e-7
-0.071, 4.0488220e-7, 2.7183438e-7
-0.072, 4.5450301e-7, 2.2902427e-7
-0.073, 4.0049562e-7, 2.3755001e-7
-0.074, 4.5224377e-7, 2.8885290e-7
-0.075, 4.3436773e-7, 3.0963133e-7
-0.076, 4.2815071e-7, 2.6566681e-7
-0.077, 4.5661383e-7, 3.0763593e-7
-0.078, 4.1238550e-7, 3.2587474e-7
-0.079, 4.6421610e-7, 3.0898815e-7
-0.080, 4.2856297e-7, 2.6325915e-7
-0.081, 4.5280444e-7, 2.7468730e-7
-0.082, 4.7485267e-7, 3.0506334e-7
-0.083, 4.1626083e-7, 2.3685740e-7
-0.084, 4.8031109e-7, 2.5105598e-7
-0.085, 4.3123447e-7, 2.9714778e-7
-0.086, 4.7274182e-7, 3.1916301e-7
-0.087, 4.6443046e-7, 3.1416630e-7
-0.088, 4.6776159e-7, 2.8773152e-7
-0.089, 4.9358619e-7, 3.4915976e-7
-0.090, 4.4165665e-7, 3.0529424e-7
-0.091, 4.8999124e-7, 3.0633316e-7
-0.092, 4.6058813e-7, 2.8637925e-7
-0.093, 4.7280781e-7, 2.9140898e-7
-0.094, 4.9609281e-7, 2.8344391e-7
-0.095, 4.6149512e-7, 2.2048202e-7
-0.096, 5.1510676e-7, 2.9218404e-7
-0.097, 4.5085855e-7, 3.1471049e-7
-0.098, 5.0201299e-7, 3.1884969e-7
-0.099, 4.8863899e-7, 3.0882325e-7
-0.100, 4.8529131e-7, 3.2341762e-7
-0.101, 5.1568389e-7, 3.7711169e-7
-0.102, 4.7031767e-7, 3.3634637e-7
-0.103, 5.3102031e-7, 3.2424214e-7
-0.104, 4.8987579e-7, 3.0912008e-7
-0.105, 5.3299925e-7, 3.1710164e-7
-0.106, 5.2744184e-7, 2.8578560e-7
-0.107, 4.9213503e-7, 2.6604613e-7
-0.108, 5.5752105e-7, 3.2737540e-7
-0.109, 4.8469769e-7, 3.3004693e-7
-0.110, 5.3484621e-7, 3.5183126e-7
-0.111, 5.2534750e-7, 3.5455224e-7
-0.112, 5.1609618e-7, 3.7005361e-7
-0.113, 5.6687134e-7, 3.5451927e-7
-0.114, 4.9871483e-7, 3.1560097e-7
-0.115, 5.7076318e-7, 3.3123428e-7
-0.116, 5.1500780e-7, 3.3250404e-7
-0.117, 5.6141289e-7, 3.0577246e-7
-0.118, 5.6274865e-7, 3.1494136e-7
-0.119, 5.3276835e-7, 3.2744137e-7
-0.120, 5.7661742e-7, 3.6927852e-7
-0.121, 5.0811462e-7, 3.4520195e-7
-0.122, 5.8014643e-7, 3.5916969e-7
-0.123, 5.4983633e-7, 3.7488542e-7
-0.124, 5.6896567e-7, 3.7839794e-7
-0.125, 5.7069724e-7, 3.5456873e-7
-0.126, 5.3484621e-7, 3.3543941e-7
-0.127, 5.9678564e-7, 3.5900479e-7
-0.128, 5.4622484e-7, 3.5102320e-7
-0.129, 6.0019920e-7, 3.0521176e-7
-0.130, 5.7493537e-7, 3.4366832e-7
-0.131, 5.8313123e-7, 3.6373763e-7
-0.132, 5.9365243e-7, 3.8075615e-7
-0.133, 5.6070377e-7, 3.5648168e-7
-0.134, 6.1909770e-7, 3.9048572e-7
-0.135, 5.7641950e-7, 4.2262627e-7
-0.136, 5.9004094e-7, 3.8501076e-7
-0.137, 6.0898890e-7, 3.8151472e-7
-0.138, 5.7021896e-7, 3.7401139e-7
-0.139, 6.2602385e-7, 3.7994809e-7
-0.140, 5.6683837e-7, 3.3816042e-7
-0.141, 6.1560166e-7, 3.3380684e-7
-0.142, 6.1360629e-7, 4.0560778e-7
-0.143, 6.0480016e-7, 3.6974029e-7
-0.144, 6.3619871e-7, 3.9355299e-7
-0.145, 5.8606668e-7, 3.7989861e-7
-0.146, 6.3779828e-7, 4.2015267e-7
-0.147, 6.0166690e-7, 4.3372461e-7
-0.148, 6.1081937e-7, 4.2031758e-7
-0.149, 6.4431219e-7, 4.1563419e-7
-0.150, 6.0794991e-7, 3.7340124e-7
-0.151, 6.4963865e-7, 4.0580568e-7
-0.152, 5.9988588e-7, 3.2068016e-7
-0.153, 6.4960568e-7, 3.8370800e-7
-0.154, 6.5000148e-7, 4.1878394e-7
-0.155, 6.3324683e-7, 3.7818359e-7
-0.156, 6.4950677e-7, 4.2721069e-7
-0.157, 6.1048951e-7, 4.1998777e-7
-0.158, 6.6820735e-7, 4.6029126e-7
-0.159, 6.3257067e-7, 4.2153789e-7
-0.160, 6.6227062e-7, 3.9239865e-7
-0.161, 6.7688148e-7, 4.1741521e-7
-0.162, 6.3755090e-7, 3.7721063e-7
-0.163, 6.6852067e-7, 3.5301861e-7
-0.164, 6.2140646e-7, 3.4541637e-7
-0.165, 6.7719481e-7, 4.2237895e-7
-0.166, 6.6207269e-7, 4.3102011e-7
-0.167, 6.3794670e-7, 4.0354641e-7
-0.168, 6.8535775e-7, 4.3883674e-7
-0.169, 6.3334573e-7, 4.5785060e-7
-0.170, 6.8985975e-7, 4.3969428e-7
-0.171, 6.4510368e-7, 4.0054510e-7
-0.172, 6.9251473e-7, 4.1174235e-7
-0.173, 7.0026545e-7, 4.4572988e-7
-0.174, 6.4447704e-7, 3.6896523e-7
-0.175, 7.1296336e-7, 3.6001072e-7
-0.176, 6.3761689e-7, 4.3972724e-7
-0.177, 7.0687827e-7, 4.5247464e-7
-0.178, 6.7181884e-7, 4.3177869e-7
-0.179, 6.9198711e-7, 4.3532418e-7
-0.180, 7.3398917e-7, 4.9023856e-7
-0.181, 6.6159453e-7, 4.7289024e-7
-0.182, 7.1763020e-7, 4.3548908e-7
-0.183, 6.7632084e-7, 4.2163686e-7
-0.184, 7.2158809e-7, 4.2864545e-7
-0.185, 7.1858670e-7, 4.5359602e-7
-0.186, 7.0851081e-7, 3.6548565e-7
-0.187, 7.3044362e-7, 3.9817044e-7
-0.188, 6.9177270e-7, 4.5709209e-7
-0.189, 7.4390010e-7, 4.6571677e-7
-0.190, 7.0448709e-7, 4.4789019e-7
-0.191, 7.3461581e-7, 4.7330252e-7
-0.192, 7.4965533e-7, 5.0785076e-7
-0.193, 7.0480041e-7, 4.7284078e-7
-0.194, 7.7600765e-7, 4.3690733e-7
-0.195, 7.2486978e-7, 4.7312113e-7
-0.196, 7.6804264e-7, 4.6319366e-7
-0.197, 7.7073065e-7, 4.4277806e-7
-0.198, 7.5903870e-7, 3.9662029e-7
-0.199, 7.8680915e-7, 4.7269236e-7
-0.200, 7.3400565e-7, 4.7345094e-7
-0.201, 7.9142660e-7, 4.9752748e-7
-0.202, 7.6330980e-7, 5.0730659e-7
-0.203, 7.9556577e-7, 5.3580266e-7
-0.204, 8.0588904e-7, 5.3854012e-7
-0.205, 7.6819106e-7, 4.6411716e-7
-0.206, 8.4253156e-7, 4.7435793e-7
-0.207, 7.7026891e-7, 4.7478670e-7
-0.208, 8.2645306e-7, 4.5493175e-7
-0.209, 8.2216548e-7, 4.5747137e-7
-0.210, 8.1525582e-7, 4.7199975e-7
-0.211, 8.4193789e-7, 5.5041352e-7
-0.212, 7.9352094e-7, 4.8788036e-7
-0.213, 8.6942805e-7, 5.5392604e-7
-0.214, 8.3331321e-7, 5.5829611e-7
-0.215, 8.3753486e-7, 5.3354341e-7
-0.216, 8.5364638e-7, 5.3948008e-7
-0.217, 8.4792407e-7, 4.8423595e-7
-0.218, 8.8509432e-7, 5.3111927e-7
-0.219, 8.3598468e-7, 4.4686777e-7
-0.220, 8.8778233e-7, 4.7951954e-7
-0.221, 9.1464585e-7, 5.3847418e-7
-0.222, 8.7485353e-7, 5.2366545e-7
-0.223, 9.1899943e-7, 5.7731000e-7
-0.224, 8.6276583e-7, 5.4096427e-7
-0.225, 9.3638073e-7, 5.9902840e-7
-0.226, 8.9272964e-7, 5.7374797e-7
-0.227, 9.4317494e-7, 5.3304871e-7
-0.228, 9.6631152e-7, 5.5969781e-7
-0.229, 9.0649939e-7, 5.5120506e-7
-0.230, 9.6792758e-7, 4.8624781e-7
-0.231, 9.1456343e-7, 4.9695029e-7
-0.232, 9.7369946e-7, 5.5564112e-7
-0.233, 9.4995266e-7, 5.7951979e-7
-0.234, 9.3903577e-7, 5.6738259e-7
-0.235, 1.0005959e-6, 5.8829289e-7
-0.236, 9.3107076e-7, 5.9670322e-7
-0.237, 1.0077860e-6, 6.3529171e-7
-0.238, 9.6312885e-7, 6.0466823e-7
-0.239, 1.0052463e-6, 5.8957914e-7
-0.240, 1.0262886e-6, 6.3766635e-7
-0.241, 9.8022974e-7, 5.7815100e-7
-0.242, 1.0493593e-6, 5.2853022e-7
-0.243, 9.8207681e-7, 5.2856319e-7
-0.244, 1.0418560e-6, 5.9670316e-7
-0.245, 1.0194615e-6, 6.3346124e-7
-0.246, 1.0253157e-6, 5.6230340e-7
-0.247, 1.0548013e-6, 6.7828319e-7
-0.248, 1.0199891e-6, 6.8809521e-7
-0.249, 1.0724464e-6, 6.5661425e-7
-0.250, 1.0307082e-6, 6.1284766e-7
-0.251, 1.0916582e-6, 6.1405149e-7
-0.252, 1.0898111e-6, 6.5714198e-7
-0.253, 1.0667405e-6, 5.7874473e-7
-0.254, 1.0938019e-6, 5.8347757e-7
-0.255, 1.0686865e-6, 6.4536755e-7
-0.256, 1.1225454e-6, 6.3702322e-7
-0.257, 1.0940659e-6, 6.4681876e-7
-0.258, 1.0978752e-6, 6.5738936e-7
-0.259, 1.1229577e-6, 7.3436843e-7
-0.260, 1.0612821e-6, 7.2054911e-7
-0.261, 1.1364142e-6, 6.5897245e-7
-0.262, 1.0826377e-6, 6.5547641e-7
-0.263, 1.1325059e-6, 6.5181547e-7
-0.264, 1.1343034e-6, 6.7272583e-7
-0.265, 1.1125355e-6, 5.7076318e-7
-0.266, 1.1564670e-6, 6.1373817e-7
-0.267, 1.0949399e-6, 6.7874493e-7
-0.268, 1.1596003e-6, 6.7917370e-7
-0.269, 1.1325058e-6, 6.5717495e-7
-0.270, 1.1205336e-6, 7.2516656e-7
-0.271, 1.1704676e-6, 7.7526562e-7
-0.272, 1.1177301e-6, 6.7239597e-7
-0.273, 1.1705172e-6, 6.8506091e-7
-0.274, 1.1282677e-6, 6.5491577e-7
-0.275, 1.1591055e-6, 6.9843497e-7
-0.276, 1.1645475e-6, 6.3900211e-7
-0.277, 1.1554116e-6, 5.7338525e-7
-0.278, 1.2009427e-6, 7.1118234e-7
-0.279, 1.1298838e-6, 6.9136041e-7
-0.280, 1.1773443e-6, 7.0836245e-7
-0.281, 1.1611999e-6, 7.0051283e-7
-0.282, 1.1817639e-6, 7.5339881e-7
-0.283, 1.1823246e-6, 7.3913429e-7
-0.284, 1.1254313e-6, 6.5697708e-7
-0.285, 1.2014045e-6, 6.6868552e-7
-0.286, 1.1397783e-6, 6.6705297e-7
-0.287, 1.1754809e-6, 6.4751134e-7
-0.288, 1.1701050e-6, 6.3519275e-7
-0.289, 1.1433074e-6, 6.5541042e-7
-0.290, 1.2063022e-6, 7.0623514e-7
-0.291, 1.1243429e-6, 6.8855695e-7
-0.292, 1.1800983e-6, 7.1443105e-7
-0.293, 1.1395474e-6, 7.3552280e-7
-0.294, 1.1752335e-6, 7.2945414e-7
-0.295, 1.1796035e-6, 7.3748521e-7
-0.296, 1.1272123e-6, 6.7480369e-7
-0.297, 1.1897289e-6, 6.7406154e-7
-0.298, 1.1216549e-6, 6.5900542e-7
-0.299, 1.1593694e-6, 6.3839195e-7
-0.300, 1.1394980e-6, 6.6523899e-7
-0.301, 1.1387065e-6, 6.5729046e-7
-0.302, 1.1752170e-6, 7.0570741e-7
-0.303, 1.1020803e-6, 6.7945405e-7
-0.304, 1.1695606e-6, 7.2259400e-7
-0.305, 1.1153554e-6, 7.3481368e-7
-0.306, 1.1571267e-6, 7.0626811e-7
-0.307, 1.1499531e-6, 7.0971464e-7
-0.308, 1.1396629e-6, 6.7026866e-7
-0.309, 1.1555600e-6, 6.8748506e-7
-0.310, 1.1178620e-6, 6.1335891e-7
-0.311, 1.1468198e-6, 6.5221127e-7
-0.312, 1.1413449e-6, 6.9721466e-7
-0.313, 1.1212262e-6, 6.7152200e-7
-0.314, 1.1241120e-6, 7.2076352e-7
-0.315, 1.0864471e-6, 7.0183205e-7
-0.316, 1.1584624e-6, 7.3032817e-7
-0.317, 1.0973640e-6, 7.0760382e-7
-0.318, 1.1524103e-6, 6.6260043e-7
-0.319, 1.1455832e-6, 6.9774234e-7
-0.320, 1.1224629e-6, 6.1507399e-7
-0.321, 1.1489801e-6, 6.1197363e-7
-0.322, 1.0861007e-6, 6.1551918e-7
-0.323, 1.1597816e-6, 6.8581949e-7
-0.324, 1.1230732e-6, 6.7549621e-7
-0.325, 1.0855565e-6, 6.8115259e-7
-0.326, 1.1522948e-6, 7.4746208e-7
-0.327, 1.0947419e-6, 7.3359331e-7
-0.328, 1.1356721e-6, 7.2887701e-7
-0.329, 1.0816648e-6, 6.4998494e-7
-0.330, 1.1418562e-6, 6.8276870e-7
-0.331, 1.1537954e-6, 7.0071070e-7
-0.332, 1.1005632e-6, 5.8905147e-7
-0.333, 1.1577697e-6, 6.5389327e-7
-0.334, 1.1027234e-6, 6.9914404e-7
-0.335, 1.1495243e-6, 6.8544017e-7
-0.336, 1.0976607e-6, 6.7139001e-7
-0.337, 1.1280698e-6, 7.1591523e-7
-0.338, 1.1382117e-6, 7.9798997e-7
-0.339, 1.0982214e-6, 6.8194413e-7
-0.340, 1.1490627e-6, 6.7074689e-7
-0.341, 1.1117440e-6, 6.7102724e-7
-0.342, 1.1508272e-6, 6.9139338e-7
-0.343, 1.1361503e-6, 6.3451660e-7
-0.344, 1.1180929e-6, 6.1015965e-7
-0.345, 1.1809889e-6, 7.1304578e-7
-0.346, 1.1020473e-6, 7.1490928e-7
-0.347, 1.1469024e-6, 7.0267311e-7
-0.348, 1.1218528e-6, 7.2538091e-7
-0.349, 1.1519485e-6, 7.5463561e-7
-0.350, 1.1678458e-6, 7.5494893e-7
-0.351, 1.1079675e-6, 6.9843497e-7
-0.352, 1.1827698e-6, 6.8031159e-7
-0.353, 1.1071101e-6, 7.0554250e-7
-0.354, 1.1614142e-6, 6.6457937e-7
-0.355, 1.1498378e-6, 6.5519612e-7
-0.356, 1.1489801e-6, 6.7567765e-7
-0.357, 1.1879315e-6, 7.1702004e-7
-0.358, 1.1087920e-6, 7.1227078e-7
-0.359, 1.1808569e-6, 7.4051951e-7
-0.360, 1.1456655e-6, 7.6578340e-7
-0.361, 1.1923180e-6, 7.5541061e-7
-0.362, 1.1825719e-6, 7.3451685e-7
-0.363, 1.1718530e-6, 6.9864933e-7
-0.364, 1.2096004e-6, 7.2246200e-7
-0.365, 1.1395639e-6, 6.6786106e-7
-0.366, 1.2106063e-6, 6.6626137e-7
-0.367, 1.1759262e-6, 7.2754125e-7
-0.368, 1.1822091e-6, 7.1042382e-7
-0.369, 1.1976774e-6, 7.6293048e-7
-0.370, 1.1686043e-6, 7.3336247e-7
-0.371, 1.2213912e-6, 7.9432891e-7
-0.372, 1.1869586e-6, 7.8915082e-7
-0.373, 1.2142177e-6, 7.3964543e-7
-0.374, 1.2198906e-6, 7.7752486e-7
-0.375, 1.2209296e-6, 7.3563820e-7
-0.376, 1.2453359e-6, 7.4662114e-7
-0.377, 1.1970509e-6, 6.8931553e-7
-0.378, 1.2513551e-6, 7.2129120e-7
-0.379, 1.2415430e-6, 7.7091204e-7
-0.380, 1.2278392e-6, 7.5303603e-7
-0.381, 1.2563518e-6, 8.0033163e-7
-0.382, 1.2169883e-6, 7.8372540e-7
-0.383, 1.2734693e-6, 8.2846498e-7
-0.384, 1.2096993e-6, 7.6825700e-7
-0.385, 1.2750525e-6, 7.6636059e-7
-0.386, 1.2817642e-6, 7.9446090e-7
-0.387, 1.2601281e-6, 7.4195412e-7
-0.388, 1.2921533e-6, 7.5140343e-7
-0.389, 1.2462759e-6, 7.2547988e-7
-0.390, 1.3075557e-6, 8.1162784e-7
-0.391, 1.2696104e-6, 7.9357039e-7
-0.392, 1.2639375e-6, 7.9132769e-7
-0.393, 1.3169555e-6, 8.8171373e-7
-0.394, 1.2701216e-6, 8.2777240e-7
-0.395, 1.3166422e-6, 8.2655203e-7
-0.396, 1.2797357e-6, 7.9032168e-7
-0.397, 1.3178626e-6, 8.2125848e-7
-0.398, 1.3263223e-6, 8.1866938e-7
-0.399, 1.3140696e-6, 7.2298974e-7
-0.400, 1.3403394e-6, 7.9484016e-7
-0.401, 1.3071765e-6, 8.1426640e-7
-0.402, 1.3516192e-6, 8.2566146e-7
-0.403, 1.3042907e-6, 8.0773594e-7
-0.404, 1.3510420e-6, 8.4663776e-7
-0.405, 1.3584463e-6, 9.0656545e-7
-0.406, 1.3002009e-6, 8.5654881e-7
-0.407, 1.3723482e-6, 7.9911132e-7
-0.408, 1.3078691e-6, 8.2740951e-7
-0.409, 1.3631792e-6, 8.5480076e-7
-0.410, 1.3606232e-6, 8.0600449e-7
-0.411, 1.3368929e-6, 7.5892319e-7
-0.412, 1.4068304e-6, 8.2602429e-7
-0.413, 1.3302471e-6, 8.4421362e-7
-0.414, 1.3944458e-6, 8.5466888e-7
-0.415, 1.3407682e-6, 8.2419382e-7
-0.416, 1.3828858e-6, 8.6985688e-7
-0.417, 1.3880309e-6, 9.3555622e-7
-0.418, 1.3540764e-6, 8.5828026e-7
-0.419, 1.4102769e-6, 8.5244255e-7
-0.420, 1.3478098e-6, 8.4540102e-7
-0.421, 1.4138225e-6, 8.2765689e-7
-0.422, 1.3848316e-6, 7.9991935e-7
-0.423, 1.3798019e-6, 7.7226423e-7
-0.424, 1.4179121e-6, 8.9617618e-7
-0.425, 1.3462102e-6, 8.6563523e-7
-0.426, 1.4026252e-6, 8.5260746e-7
-0.427, 1.3684562e-6, 8.7736021e-7
-0.428, 1.4036477e-6, 8.9962271e-7
-0.429, 1.3903890e-6, 9.1830680e-7
-0.430, 1.3857057e-6, 8.4188844e-7
-0.431, 1.4162136e-6, 8.6166091e-7
-0.432, 1.3660156e-6, 8.5958311e-7
-0.433, 1.4138554e-6, 7.9543383e-7
-0.434, 1.3908343e-6, 8.1759748e-7
-0.435, 1.4025923e-6, 8.4967212e-7
-0.436, 1.4131298e-6, 8.8783179e-7
-0.437, 1.3680934e-6, 8.7079684e-7
-0.438, 1.4060718e-6, 8.8402248e-7
-0.439, 1.3666092e-6, 9.0961618e-7
-0.440, 1.3914773e-6, 9.2195131e-7
-0.441, 1.4005144e-6, 8.8644663e-7
-0.442, 1.3837268e-6, 8.3159824e-7
-0.443, 1.4162301e-6, 8.6340890e-7
-0.444, 1.3596666e-6, 8.4497225e-7
-0.445, 1.4119754e-6, 8.0386064e-7
-0.446, 1.3776087e-6, 7.9836923e-7
-0.447, 1.3822425e-6, 8.6591558e-7
-0.448, 1.4044392e-6, 8.9535166e-7
-0.449, 1.3575393e-6, 8.3116942e-7
-0.450, 1.3997558e-6, 9.0722506e-7
-0.451, 1.3461113e-6, 8.8682589e-7
-0.452, 1.3865301e-6, 8.8603429e-7
-0.453, 1.3829022e-6, 8.5786803e-7
-0.454, 1.3744259e-6, 8.1411793e-7
-0.455, 1.3991128e-6, 8.6459630e-7
-0.456, 1.3492445e-6, 7.9464229e-7
-0.457, 1.3880804e-6, 7.9457635e-7
-0.458, 1.3496073e-6, 8.4746239e-7
-0.459, 1.3567148e-6, 8.4370242e-7
-0.460, 1.3676812e-6, 8.6227112e-7
-0.461, 1.3201052e-6, 8.2317138e-7
-0.462, 1.3632452e-6, 8.8313192e-7
-0.463, 1.3118597e-6, 8.2994904e-7
-0.464, 1.3489476e-6, 8.2330331e-7
-0.465, 1.3390365e-6, 8.3032842e-7
-0.466, 1.3103427e-6, 8.0781848e-7
-0.467, 1.3415433e-6, 7.9178943e-7
-0.468, 1.2836606e-6, 7.4688489e-7
-0.469, 1.3408506e-6, 7.8077358e-7
-0.470, 1.2802141e-6, 8.0729080e-7
-0.471, 1.3302306e-6, 7.9685202e-7
-0.472, 1.3137069e-6, 8.3702366e-7
-0.473, 1.2653228e-6, 7.9573067e-7
-0.474, 1.3115465e-6, 8.3459952e-7
-0.475, 1.2468531e-6, 8.0689495e-7
-0.476, 1.2893829e-6, 8.0372877e-7
-0.477, 1.2664607e-6, 7.8489626e-7
-0.478, 1.2547191e-6, 7.2510056e-7
-0.479, 1.2710616e-6, 7.3494562e-7
-0.480, 1.2257943e-6, 7.0755442e-7
-0.481, 1.2731889e-6, 7.6683881e-7
-0.482, 1.2142343e-6, 7.6304593e-7
-0.483, 1.2323742e-6, 7.4831962e-7
-0.484, 1.2206657e-6, 8.0356381e-7
-0.485, 1.1972983e-6, 7.8489620e-7
-0.486, 1.2050818e-6, 7.6881770e-7
-0.487, 1.1692969e-6, 7.2035124e-7
-0.488, 1.2030534e-6, 7.2760719e-7
-0.489, 1.1774763e-6, 7.2986643e-7
-0.490, 1.1800654e-6, 6.4239919e-7
-0.491, 1.1752830e-6, 7.0681227e-7
-0.492, 1.1303125e-6, 7.2292380e-7
-0.493, 1.1734196e-6, 7.1565131e-7
-0.494, 1.1238976e-6, 7.0484987e-7
-0.495, 1.1425817e-6, 7.2305568e-7
-0.496, 1.1381952e-6, 7.6710262e-7
-0.497, 1.1136239e-6, 7.3105377e-7
-0.498, 1.1336438e-6, 6.8139997e-7
-0.499, 1.0731719e-6, 6.6766313e-7
-0.500, 1.1303950e-6, 6.8995865e-7
