Dec. 9, 2005   03:23:07
Square Wave Voltammetry
File: d:\ida_biofilms\11_28_18_blankidapyo\100um_transfer\100um_pyo_transfer_swv_42.txt
Data Source:  Experiment
Instrument Model:  CHI760B
Header: 
Note: 

Init E (V) = 0.1
Final E (V) = -0.5
Incr E (V) = 0.001
Amplitude (V) = 0.025
Frequency (Hz) = 300
Quiet Time (sec) = 2
Sensitivity (A/V) = 1e-6
Sens 2 (A/V) = 1e-6

Potential/V, i1/A, i2/A

0.099, 6.3331277e-7, 3.6705225e-7
0.098, 5.4551572e-7, 3.4942363e-7
0.097, 5.9513661e-7, 3.6990519e-7
0.096, 5.6423283e-7, 3.0667945e-7
0.095, 5.9075001e-7, 3.6309450e-7
0.094, 5.7940434e-7, 3.8758333e-7
0.093, 5.3840819e-7, 3.5435437e-7
0.092, 5.8072362e-7, 4.0573971e-7
0.091, 5.1937786e-7, 3.3433452e-7
0.090, 5.7302236e-7, 3.5760303e-7
0.089, 5.3924924e-7, 2.8796239e-7
0.088, 5.2798600e-7, 2.8255340e-7
0.087, 5.6012658e-7, 3.6027456e-7
0.086, 4.9497146e-7, 3.4826925e-7
0.085, 5.4403154e-7, 3.8273504e-7
0.084, 5.0610271e-7, 3.0768538e-7
0.083, 5.4805531e-7, 3.2191696e-7
0.082, 5.4244845e-7, 3.2122435e-7
0.081, 4.9843447e-7, 2.6421566e-7
0.080, 5.3517601e-7, 3.1842092e-7
0.079, 4.5394233e-7, 3.2049874e-7
0.078, 5.1631054e-7, 3.6492497e-7
0.077, 4.8977682e-7, 3.4393219e-7
0.076, 4.9439427e-7, 2.8611544e-7
0.075, 5.2721094e-7, 3.3867161e-7
0.074, 4.6555184e-7, 2.5089108e-7
0.073, 5.0590484e-7, 3.2503371e-7
0.072, 4.5966465e-7, 3.0504685e-7
0.071, 4.9693381e-7, 3.2580877e-7
0.070, 4.8850706e-7, 3.4566369e-7
0.069, 4.5860921e-7, 2.8095377e-7
0.068, 4.8933157e-7, 3.0404092e-7
0.067, 4.3565402e-7, 2.4178814e-7
0.066, 4.8796289e-7, 3.0727313e-7
0.065, 4.4526814e-7, 3.0503037e-7
0.064, 4.6184141e-7, 2.8758311e-7
0.063, 4.5625103e-7, 3.5798234e-7
0.062, 4.1957549e-7, 3.0786680e-7
0.061, 4.8379070e-7, 2.7927175e-7
0.060, 4.2861245e-7, 2.5136930e-7
0.059, 4.5621806e-7, 2.6400124e-7
0.058, 4.5971410e-7, 3.1245122e-7
0.057, 4.2594095e-7, 2.6020837e-7
0.056, 4.5418969e-7, 3.4051857e-7
0.055, 4.0798244e-7, 2.9068337e-7
0.054, 4.6603009e-7, 2.8494458e-7
0.053, 4.3006366e-7, 2.7094387e-7
0.052, 4.3270217e-7, 2.2467070e-7
0.051, 4.5026485e-7, 3.0948289e-7
0.050, 3.9426209e-7, 2.6695312e-7
0.049, 4.5291989e-7, 2.8552176e-7
0.048, 3.9272845e-7, 2.8717085e-7
0.047, 4.2580905e-7, 2.7486868e-7
0.046, 4.2566060e-7, 2.8377372e-7
0.045, 4.1977336e-7, 1.9577880e-7
0.044, 4.5362901e-7, 2.8934761e-7
0.043, 3.8326274e-7, 2.6688713e-7
0.042, 4.3906761e-7, 2.9480606e-7
0.041, 3.9805502e-7, 2.9233246e-7
0.040, 4.2038354e-7, 2.4432774e-7
0.039, 4.2191715e-7, 2.7946965e-7
0.038, 3.9267900e-7, 1.8848988e-7
0.037, 4.3496141e-7, 2.1324257e-7
0.036, 3.7749095e-7, 2.5562395e-7
0.035, 4.0898840e-7, 2.6174203e-7
0.034, 3.9615855e-7, 3.0638262e-7
0.033, 3.9051866e-7, 2.3908365e-7
0.032, 4.2912367e-7, 2.6161010e-7
0.031, 3.6817366e-7, 2.1947609e-7
0.030, 4.1504052e-7, 1.9803804e-7
0.029, 3.7678186e-7, 2.4190356e-7
0.028, 4.1416649e-7, 2.5509621e-7
0.027, 4.1965794e-7, 2.8139905e-7
0.026, 3.6294608e-7, 2.6673871e-7
0.025, 4.1350688e-7, 2.1474324e-7
0.024, 3.5392560e-7, 2.4436071e-7
0.023, 4.1240199e-7, 2.0783358e-7
0.022, 3.8309781e-7, 2.3265224e-7
0.021, 3.8060773e-7, 2.3253681e-7
0.020, 4.1456229e-7, 2.9206859e-7
0.019, 3.5521191e-7, 2.7209825e-7
0.018, 4.0554181e-7, 2.3040948e-7
0.017, 3.6014262e-7, 2.2495104e-7
0.016, 4.0417308e-7, 1.9513567e-7
0.015, 3.9774164e-7, 2.2927162e-7
0.014, 3.6568355e-7, 2.4564699e-7
0.013, 3.9310777e-7, 2.5923543e-7
0.012, 3.4912676e-7, 2.9515240e-7
0.011, 3.9762620e-7, 2.6322618e-7
0.010, 3.6774492e-7, 2.4818658e-7
0.009, 3.8728649e-7, 2.1817331e-7
0.008, 3.9056818e-7, 2.2656714e-7
0.007, 3.5148497e-7, 2.5127036e-7
0.006, 3.8397184e-7, 2.3473008e-7
0.005, 3.4853312e-7, 2.7800195e-7
0.004, 3.9007347e-7, 2.5293593e-7
0.003, 3.7660044e-7, 2.5582182e-7
0.002, 3.7928845e-7, 2.2514891e-7
0.001, 3.8910048e-7, 1.8990808e-7
-0.000, 3.5014921e-7, 2.2930462e-7
-0.001, 3.9427860e-7, 2.3865491e-7
-0.002, 3.5895528e-7, 2.7386278e-7
-0.003, 3.7524819e-7, 2.8802836e-7
-0.004, 3.9375090e-7, 2.4569647e-7
-0.005, 3.5272177e-7, 2.3827560e-7
-0.006, 3.9886302e-7, 2.1449588e-7
-0.007, 3.4188730e-7, 1.8910004e-7
-0.008, 3.8296591e-7, 2.5356258e-7
-0.009, 3.7353317e-7, 2.5377696e-7
-0.010, 3.6683790e-7, 2.3825910e-7
-0.011, 3.9554840e-7, 2.6025785e-7
-0.012, 3.5212810e-7, 2.2430788e-7
-0.013, 3.9742832e-7, 2.5641549e-7
-0.014, 3.6306150e-7, 1.7640211e-7
-0.015, 3.8139927e-7, 2.4945638e-7
-0.016, 3.9394880e-7, 2.6842079e-7
-0.017, 3.5399157e-7, 2.3497745e-7
-0.018, 4.0600355e-7, 2.6698609e-7
-0.019, 3.3824284e-7, 2.1515551e-7
-0.020, 3.8951276e-7, 2.5308435e-7
-0.021, 3.8471393e-7, 1.8919897e-7
-0.022, 3.6823963e-7, 1.9920890e-7
-0.023, 3.8707213e-7, 2.8224008e-7
-0.024, 3.4566369e-7, 2.6805799e-7
-0.025, 4.0437095e-7, 2.9276123e-7
-0.026, 3.4475670e-7, 2.5864176e-7
-0.027, 4.0918630e-7, 2.4162324e-7
-0.028, 3.9899498e-7, 2.6626049e-7
-0.029, 3.5941704e-7, 1.8027745e-7
-0.030, 4.1164341e-7, 2.4729610e-7
-0.031, 3.4640578e-7, 2.4535015e-7
-0.032, 4.0702599e-7, 2.9709830e-7
-0.033, 3.7465455e-7, 2.6716748e-7
-0.034, 3.7168621e-7, 2.3004669e-7
-0.035, 4.1672257e-7, 2.5026441e-7
-0.036, 3.5202916e-7, 1.9563041e-7
-0.037, 4.1429843e-7, 2.4431125e-7
-0.038, 3.5420595e-7, 2.4155730e-7
-0.039, 3.9571330e-7, 2.6929482e-7
-0.040, 4.0499762e-7, 3.1761286e-7
-0.041, 3.6975678e-7, 2.4065028e-7
-0.042, 4.2506693e-7, 2.3824263e-7
-0.043, 3.4927518e-7, 2.2272476e-7
-0.044, 4.1192374e-7, 2.1461130e-7
-0.045, 3.7162025e-7, 2.6405075e-7
-0.046, 3.9399825e-7, 2.3515884e-7
-0.047, 4.0852666e-7, 2.9394855e-7
-0.048, 3.6172577e-7, 2.6863518e-7
-0.049, 4.1893236e-7, 2.5344715e-7
-0.050, 3.8039335e-7, 2.4071625e-7
-0.051, 4.1179183e-7, 2.0859217e-7
-0.052, 4.0389273e-7, 2.6474333e-7
-0.053, 4.0298573e-7, 2.6959165e-7
-0.054, 4.1382020e-7, 2.8164641e-7
-0.055, 3.7645202e-7, 3.0593736e-7
-0.056, 4.3016257e-7, 2.7394520e-7
-0.057, 3.9304177e-7, 2.4985212e-7
-0.058, 4.0913682e-7, 2.1896489e-7
-0.059, 4.1960845e-7, 2.4787326e-7
-0.060, 3.8082209e-7, 2.7516552e-7
-0.061, 4.3576944e-7, 2.6347354e-7
-0.062, 3.8047580e-7, 2.8430145e-7
-0.063, 4.2744159e-7, 2.9074934e-7
-0.064, 4.2208211e-7, 2.8285024e-7
-0.065, 4.1786043e-7, 2.4924199e-7
-0.066, 4.4822002e-7, 2.2594048e-7
-0.067, 3.9404773e-7, 2.7331856e-7
-0.068, 4.5028133e-7, 2.9348681e-7
-0.069, 4.0864211e-7, 2.9182127e-7
-0.070, 4.2035057e-7, 3.2110890e-7
-0.071, 4.4323980e-7, 3.2538003e-7
-0.072, 4.0638287e-7, 2.5450257e-7
-0.073, 4.5339812e-7, 2.3792930e-7
-0.074, 3.9838483e-7, 2.1286327e-7
-0.075, 4.4967118e-7, 2.9579553e-7
-0.076, 4.3393896e-7, 2.9287665e-7
-0.077, 4.3428531e-7, 2.8971041e-7
-0.078, 4.6288034e-7, 3.3318017e-7
-0.079, 4.1297918e-7, 2.7894194e-7
-0.080, 4.7564424e-7, 2.9048550e-7
-0.081, 4.3207552e-7, 2.2912320e-7
-0.082, 4.6408417e-7, 2.9901122e-7
-0.083, 4.7409407e-7, 3.0522827e-7
-0.084, 4.3911706e-7, 2.8593402e-7
-0.085, 4.8045956e-7, 3.2790314e-7
-0.086, 4.2938751e-7, 3.0418934e-7
-0.087, 4.8890286e-7, 2.9680146e-7
-0.088, 4.6889949e-7, 3.0079224e-7
-0.089, 4.6002745e-7, 2.3426836e-7
-0.090, 5.0666341e-7, 3.1769531e-7
-0.091, 4.3478002e-7, 2.9378364e-7
-0.092, 5.0285405e-7, 3.2480284e-7
-0.093, 4.4782422e-7, 3.1721709e-7
-0.094, 4.9043649e-7, 3.0028102e-7
-0.095, 4.9886330e-7, 3.1583187e-7
-0.096, 4.6190740e-7, 2.4408035e-7
-0.097, 5.2059818e-7, 2.5590430e-7
-0.098, 4.5156764e-7, 3.0986217e-7
-0.099, 5.1565092e-7, 3.4640578e-7
-0.100, 4.7895890e-7, 3.6640915e-7
-0.101, 4.9274519e-7, 2.7900788e-7
-0.102, 5.2485279e-7, 3.2493477e-7
-0.103, 4.7635331e-7, 2.8984235e-7
-0.104, 5.2795303e-7, 2.7369785e-7
-0.105, 4.8915018e-7, 3.2636947e-7
-0.106, 5.2650182e-7, 3.2468739e-7
-0.107, 5.2051570e-7, 3.7335178e-7
-0.108, 5.0849394e-7, 3.5217758e-7
-0.109, 5.3387328e-7, 3.2117487e-7
-0.110, 5.0291999e-7, 3.3271843e-7
-0.111, 5.5437130e-7, 2.7925526e-7
-0.112, 5.1838839e-7, 3.1733254e-7
-0.113, 5.3616549e-7, 3.2932132e-7
-0.114, 5.3964504e-7, 3.5715780e-7
-0.115, 5.0724060e-7, 3.8919944e-7
-0.116, 5.5816417e-7, 3.6124754e-7
-0.117, 5.2040025e-7, 3.3639589e-7
-0.118, 5.6974073e-7, 3.3895196e-7
-0.119, 5.5898875e-7, 3.2350005e-7
-0.120, 5.5966484e-7, 3.4535037e-7
-0.121, 5.8166358e-7, 3.5458524e-7
-0.122, 5.2757377e-7, 3.6875082e-7
-0.123, 5.9234964e-7, 4.0517904e-7
-0.124, 5.5163383e-7, 3.4220065e-7
-0.125, 5.6535418e-7, 3.5359579e-7
-0.126, 5.9520255e-7, 3.5573959e-7
-0.127, 5.5184819e-7, 3.0160029e-7
-0.128, 6.0010029e-7, 3.7803517e-7
-0.129, 5.3530789e-7, 3.4780751e-7
-0.130, 5.9670322e-7, 4.0054510e-7
-0.131, 5.8702312e-7, 3.9666978e-7
-0.132, 5.8478037e-7, 3.3156405e-7
-0.133, 6.1965841e-7, 4.0387624e-7
-0.134, 5.6006064e-7, 3.2105942e-7
-0.135, 6.2727713e-7, 3.8934786e-7
-0.136, 5.8781467e-7, 3.7430823e-7
-0.137, 6.1424942e-7, 3.9241513e-7
-0.138, 6.1599746e-7, 4.4688426e-7
-0.139, 5.8906801e-7, 3.4873102e-7
-0.140, 6.4309182e-7, 3.7890916e-7
-0.141, 5.8689119e-7, 3.0484898e-7
-0.142, 6.2129095e-7, 3.6086823e-7
-0.143, 6.1894929e-7, 3.9769219e-7
-0.144, 6.0501452e-7, 3.7455561e-7
-0.145, 6.5532799e-7, 4.4038688e-7
-0.146, 5.9487274e-7, 4.1030768e-7
-0.147, 6.6979044e-7, 3.8967767e-7
-0.148, 6.0672960e-7, 3.8755036e-7
-0.149, 6.5654831e-7, 3.3875406e-7
-0.150, 6.6307871e-7, 4.2359920e-7
-0.151, 6.1006074e-7, 3.8959521e-7
-0.152, 6.7521592e-7, 4.0189735e-7
-0.153, 6.0163393e-7, 4.2279120e-7
-0.154, 6.6390317e-7, 4.0250751e-7
-0.155, 6.2937147e-7, 4.0638287e-7
-0.156, 6.3352718e-7, 3.3022832e-7
-0.157, 6.8062491e-7, 3.7566048e-7
-0.158, 6.1279820e-7, 4.0161700e-7
-0.159, 6.7007079e-7, 4.0643232e-7
-0.160, 6.2806868e-7, 4.4977014e-7
-0.161, 6.7406154e-7, 4.0237558e-7
-0.162, 6.7117566e-7, 4.2627076e-7
-0.163, 6.6279830e-7, 3.8021193e-7
-0.164, 6.8306554e-7, 3.6233592e-7
-0.165, 6.2755748e-7, 4.1119819e-7
-0.166, 6.8143294e-7, 4.2387961e-7
-0.167, 6.5137021e-7, 4.3936447e-7
-0.168, 6.7282474e-7, 4.1144551e-7
-0.169, 6.8783140e-7, 4.1616187e-7
-0.170, 6.5473432e-7, 3.9881357e-7
-0.171, 6.9681886e-7, 3.7039993e-7
-0.172, 6.5605360e-7, 4.0257345e-7
-0.173, 7.0041381e-7, 4.3433477e-7
-0.174, 6.8812824e-7, 4.7346742e-7
-0.175, 6.9020609e-7, 4.6174247e-7
-0.176, 7.0834596e-7, 4.5544300e-7
-0.177, 6.7449037e-7, 4.3377406e-7
-0.178, 7.2787111e-7, 4.1302863e-7
-0.179, 6.9586235e-7, 3.7655099e-7
-0.180, 6.9803923e-7, 4.3275162e-7
-0.181, 7.2249503e-7, 4.6429852e-7
-0.182, 6.8511036e-7, 4.4845086e-7
-0.183, 7.3878795e-7, 4.7686456e-7
-0.184, 6.8781492e-7, 4.2363223e-7
-0.185, 7.4294366e-7, 4.5062768e-7
-0.186, 7.3321405e-7, 4.1370475e-7
-0.187, 7.2703006e-7, 4.1637628e-7
-0.188, 7.4713228e-7, 4.6507361e-7
-0.189, 7.0179908e-7, 4.6101690e-7
-0.190, 7.6154527e-7, 5.0174918e-7
-0.191, 7.2102733e-7, 4.4188755e-7
-0.192, 7.4850107e-7, 4.5981307e-7
-0.193, 7.6499180e-7, 4.3374106e-7
-0.194, 7.3636380e-7, 3.9211830e-7
-0.195, 7.7887705e-7, 4.8430189e-7
-0.196, 7.2632088e-7, 4.4699965e-7
-0.197, 7.9070099e-7, 5.3598410e-7
-0.198, 7.7869572e-7, 4.6739882e-7
-0.199, 7.7175309e-7, 4.4319029e-7
-0.200, 8.0979737e-7, 4.7242852e-7
-0.201, 7.4858349e-7, 4.1241850e-7
-0.202, 8.2066475e-7, 4.9744506e-7
-0.203, 7.7518314e-7, 4.6734934e-7
-0.204, 8.1772941e-7, 5.1172606e-7
-0.205, 8.3295038e-7, 5.4716486e-7
-0.206, 7.8037772e-7, 4.6629393e-7
-0.207, 8.4878161e-7, 4.7869503e-7
-0.208, 7.8328014e-7, 4.2025164e-7
-0.209, 8.4611008e-7, 5.0160071e-7
-0.210, 8.2785482e-7, 5.0687783e-7
-0.211, 8.2421030e-7, 5.1429868e-7
-0.212, 8.8047688e-7, 5.7923944e-7
-0.213, 8.1789426e-7, 5.2059812e-7
-0.214, 8.9512082e-7, 5.0737253e-7
-0.215, 8.2810215e-7, 4.7542983e-7
-0.216, 8.7287469e-7, 4.6255050e-7
-0.217, 9.0001856e-7, 5.5682841e-7
-0.218, 8.4650594e-7, 5.1725056e-7
-0.219, 9.0800006e-7, 5.4676906e-7
-0.220, 8.4980400e-7, 5.5481655e-7
-0.221, 9.1899943e-7, 5.2005396e-7
-0.222, 8.9705020e-7, 5.4264632e-7
-0.223, 8.9904557e-7, 4.5217780e-7
-0.224, 9.3217557e-7, 5.6583241e-7
-0.225, 8.7632122e-7, 5.5087526e-7
-0.226, 9.3761759e-7, 5.8352703e-7
-0.227, 9.1052317e-7, 5.9785754e-7
-0.228, 9.5646658e-7, 5.4981984e-7
-0.229, 9.6654242e-7, 5.8276851e-7
-0.230, 9.4386758e-7, 4.9670297e-7
-0.231, 9.7198438e-7, 5.0056184e-7
-0.232, 9.3060896e-7, 5.6941093e-7
-0.233, 9.9604449e-7, 5.7058173e-7
-0.234, 9.7833345e-7, 6.0547632e-7
-0.235, 9.7632142e-7, 6.0958251e-7
-0.236, 1.0003321e-6, 6.1680549e-7
-0.237, 9.6410179e-7, 5.6415035e-7
-0.238, 1.0283005e-6, 5.3971098e-7
-0.239, 9.7549696e-7, 6.0692753e-7
-0.240, 1.0348969e-6, 5.9881404e-7
-0.241, 1.0247714e-6, 6.7104372e-7
-0.242, 1.0225947e-6, 6.2829963e-7
-0.243, 1.0671528e-6, 6.1001128e-7
-0.244, 1.0021296e-6, 6.1180879e-7
-0.245, 1.0869418e-6, 5.7523221e-7
-0.246, 1.0479246e-6, 5.8690762e-7
-0.247, 1.0516019e-6, 6.2843151e-7
-0.248, 1.0850454e-6, 6.6147902e-7
-0.249, 1.0552629e-6, 6.4581286e-7
-0.250, 1.1057579e-6, 6.6700352e-7
-0.251, 1.0577365e-6, 6.2303900e-7
-0.252, 1.1040757e-6, 6.4843482e-7
-0.253, 1.1128983e-6, 5.8835883e-7
-0.254, 1.0918230e-6, 6.1490903e-7
-0.255, 1.1176807e-6, 6.7864596e-7
-0.256, 1.0762888e-6, 6.7186829e-7
-0.257, 1.1432248e-6, 7.1504121e-7
-0.258, 1.1119913e-6, 6.4996846e-7
-0.259, 1.1472652e-6, 6.5946722e-7
-0.260, 1.1592870e-6, 6.3021253e-7
-0.261, 1.1133766e-6, 6.1603038e-7
-0.262, 1.1577204e-6, 6.6718491e-7
-0.263, 1.1052961e-6, 6.8631425e-7
-0.264, 1.1582315e-6, 7.5061189e-7
-0.265, 1.1500686e-6, 7.1537102e-7
-0.266, 1.1372058e-6, 6.5092496e-7
-0.267, 1.2022784e-6, 7.0199701e-7
-0.268, 1.1129313e-6, 6.0201324e-7
-0.269, 1.1941486e-6, 6.8656158e-7
-0.270, 1.1258105e-6, 6.7635381e-7
-0.271, 1.1750686e-6, 7.1103392e-7
-0.272, 1.1855072e-6, 7.3779847e-7
-0.273, 1.1363483e-6, 6.7223107e-7
-0.274, 1.2109526e-6, 6.7829967e-7
-0.275, 1.1424169e-6, 6.1197369e-7
-0.276, 1.2014374e-6, 6.9629118e-7
-0.277, 1.1665099e-6, 7.0542706e-7
-0.278, 1.1731887e-6, 6.8863937e-7
-0.279, 1.2007117e-6, 7.7501829e-7
-0.280, 1.1353918e-6, 7.0925290e-7
-0.281, 1.2060714e-6, 6.8690787e-7
-0.282, 1.1575554e-6, 6.3042688e-7
-0.283, 1.1929282e-6, 6.5527854e-7
-0.284, 1.1961768e-6, 7.3832621e-7
-0.285, 1.1510745e-6, 6.8100417e-7
-0.286, 1.1797520e-6, 7.6105056e-7
-0.287, 1.1328192e-6, 7.3220809e-7
-0.288, 1.1967211e-6, 6.8943098e-7
-0.289, 1.1827203e-6, 6.9063481e-7
-0.290, 1.1726115e-6, 6.0016629e-7
-0.291, 1.1992936e-6, 7.2599107e-7
-0.292, 1.1234358e-6, 6.9985316e-7
-0.293, 1.2008768e-6, 7.1662430e-7
-0.294, 1.1456821e-6, 7.3659464e-7
-0.295, 1.1811867e-6, 6.8014668e-7
-0.296, 1.1924994e-6, 7.2406169e-7
-0.297, 1.1612658e-6, 6.0588854e-7
-0.298, 1.1970014e-6, 6.3639652e-7
-0.299, 1.1381127e-6, 7.0958276e-7
-0.300, 1.1737989e-6, 7.1334262e-7
-0.301, 1.1542737e-6, 7.3765011e-7
-0.302, 1.1452203e-6, 7.1833938e-7
-0.303, 1.1765034e-6, 7.3168042e-7
-0.304, 1.1238152e-6, 6.5127125e-7
-0.305, 1.1914440e-6, 6.2909112e-7
-0.306, 1.1364966e-6, 6.7168685e-7
-0.307, 1.1532019e-6, 6.9714866e-7
-0.308, 1.1610019e-6, 7.4190473e-7
-0.309, 1.1357051e-6, 6.8116907e-7
-0.310, 1.1715397e-6, 7.0546002e-7
-0.311, 1.1235843e-6, 6.8550617e-7
-0.312, 1.1746233e-6, 6.1972435e-7
-0.313, 1.1381293e-6, 6.7008727e-7
-0.314, 1.1557083e-6, 6.8278518e-7
-0.315, 1.1591550e-6, 7.3568771e-7
-0.316, 1.1222980e-6, 7.1944424e-7
-0.317, 1.1599629e-6, 7.0724104e-7
-0.318, 1.1236833e-6, 6.6848770e-7
-0.319, 1.1531853e-6, 7.0189805e-7
-0.320, 1.1602434e-6, 6.3354366e-7
-0.321, 1.1136899e-6, 6.8070733e-7
-0.322, 1.1482050e-6, 6.8768293e-7
-0.323, 1.0884424e-6, 7.4724778e-7
-0.324, 1.1447255e-6, 7.1454645e-7
-0.325, 1.1043230e-6, 6.6246855e-7
-0.326, 1.1442803e-6, 6.7204968e-7
-0.327, 1.1597981e-6, 6.4147571e-7
-0.328, 1.1014207e-6, 6.3966172e-7
-0.329, 1.1694123e-6, 6.7488611e-7
-0.330, 1.0944451e-6, 7.0735649e-7
-0.331, 1.1493595e-6, 7.5701030e-7
-0.332, 1.1205170e-6, 6.8400550e-7
-0.333, 1.1256127e-6, 6.4700015e-7
-0.334, 1.1809063e-6, 6.5615257e-7
-0.335, 1.1016681e-6, 6.0511348e-7
-0.336, 1.1502500e-6, 7.0117244e-7
-0.337, 1.1108040e-6, 6.8044346e-7
-0.338, 1.1443133e-6, 7.1937831e-7
-0.339, 1.1468528e-6, 7.5211244e-7
-0.340, 1.1186866e-6, 6.7193423e-7
-0.341, 1.1523938e-6, 7.0066119e-7
-0.342, 1.1175487e-6, 6.1662411e-7
-0.343, 1.1606392e-6, 6.7922315e-7
-0.344, 1.1220177e-6, 7.0745546e-7
-0.345, 1.1240791e-6, 6.7973440e-7
-0.346, 1.1500521e-6, 7.7346806e-7
-0.347, 1.1109194e-6, 7.2015337e-7
-0.348, 1.1694452e-6, 6.9894617e-7
-0.349, 1.1316154e-6, 6.7851408e-7
-0.350, 1.1628490e-6, 6.4586231e-7
-0.351, 1.1710449e-6, 7.4670356e-7
-0.352, 1.1364472e-6, 6.8722125e-7
-0.353, 1.1735515e-6, 7.2902537e-7
-0.354, 1.1260414e-6, 7.4896275e-7
-0.355, 1.1884756e-6, 7.0991257e-7
-0.356, 1.1630303e-6, 7.1642643e-7
-0.357, 1.1499367e-6, 6.5600409e-7
-0.358, 1.1927302e-6, 7.1233671e-7
-0.359, 1.1324398e-6, 7.1828993e-7
-0.360, 1.1880799e-6, 7.3618241e-7
-0.361, 1.1364307e-6, 7.6263359e-7
-0.362, 1.1936538e-6, 7.4945751e-7
-0.363, 1.2027566e-6, 7.3806234e-7
-0.364, 1.1770146e-6, 6.9742902e-7
-0.365, 1.2232383e-6, 7.0361307e-7
-0.366, 1.1607051e-6, 7.3120219e-7
-0.367, 1.2031360e-6, 7.5499838e-7
-0.368, 1.1881623e-6, 7.4820423e-7
-0.369, 1.2061042e-6, 7.6014351e-7
-0.370, 1.2237824e-6, 7.7366599e-7
-0.371, 1.1982382e-6, 7.1164408e-7
-0.372, 1.2338584e-6, 6.8248835e-7
-0.373, 1.1894981e-6, 6.7589201e-7
-0.374, 1.2287957e-6, 7.8135065e-7
-0.375, 1.2307416e-6, 7.8153209e-7
-0.376, 1.2207151e-6, 7.9498858e-7
-0.377, 1.2605569e-6, 8.0074392e-7
-0.378, 1.2096003e-6, 7.5318439e-7
-0.379, 1.2735848e-6, 7.6871879e-7
-0.380, 1.2224796e-6, 6.9220141e-7
-0.381, 1.2730075e-6, 7.7402876e-7
-0.382, 1.2782680e-6, 8.0125511e-7
-0.383, 1.2299005e-6, 7.9086595e-7
-0.384, 1.2959132e-6, 7.8943117e-7
-0.385, 1.2253327e-6, 7.6822403e-7
-0.386, 1.2941487e-6, 8.0572414e-7
-0.387, 1.2804284e-6, 7.2549636e-7
-0.388, 1.2676644e-6, 7.1728391e-7
-0.389, 1.3311211e-6, 8.1220503e-7
-0.390, 1.2546532e-6, 7.7059872e-7
-0.391, 1.3269985e-6, 8.2609029e-7
-0.392, 1.2769324e-6, 8.0923661e-7
-0.393, 1.3221666e-6, 7.8438501e-7
-0.394, 1.3368434e-6, 8.1141343e-7
-0.395, 1.2977437e-6, 7.2721144e-7
-0.396, 1.3566819e-6, 8.1769639e-7
-0.397, 1.2895478e-6, 8.0859348e-7
-0.398, 1.3363488e-6, 8.3573735e-7
-0.399, 1.3228921e-6, 8.8159828e-7
-0.400, 1.3271303e-6, 7.9291078e-7
-0.401, 1.3562201e-6, 8.3873874e-7
-0.402, 1.3149106e-6, 7.6187507e-7
-0.403, 1.3593203e-6, 7.9982044e-7
-0.404, 1.3237991e-6, 8.4642346e-7
-0.405, 1.3508770e-6, 8.3331327e-7
-0.406, 1.3723482e-6, 9.1835636e-7
-0.407, 1.3502174e-6, 8.2793724e-7
-0.408, 1.3702372e-6, 8.3077373e-7
-0.409, 1.3473809e-6, 8.4104738e-7
-0.410, 1.4049833e-6, 7.9223469e-7
-0.411, 1.3693303e-6, 8.3496235e-7
-0.412, 1.3726119e-6, 8.4642340e-7
-0.413, 1.4022459e-6, 8.9429625e-7
-0.414, 1.3456330e-6, 9.0198091e-7
-0.415, 1.4051318e-6, 8.5019974e-7
-0.416, 1.3633771e-6, 8.5699401e-7
-0.417, 1.4030045e-6, 8.3705663e-7
-0.418, 1.4052803e-6, 8.1908166e-7
-0.419, 1.3879319e-6, 8.4589567e-7
-0.420, 1.4155210e-6, 8.7425985e-7
-0.421, 1.3716225e-6, 8.9390039e-7
-0.422, 1.4221669e-6, 9.0036480e-7
-0.423, 1.3938356e-6, 8.5110679e-7
-0.424, 1.4073416e-6, 8.5585611e-7
-0.425, 1.4278726e-6, 8.4284488e-7
-0.426, 1.3943798e-6, 8.0428947e-7
-0.427, 1.4265864e-6, 8.8459961e-7
-0.428, 1.3922690e-6, 8.6088585e-7
-0.429, 1.4257123e-6, 9.3031213e-7
-0.430, 1.4245909e-6, 9.0981405e-7
-0.431, 1.4062532e-6, 8.3964568e-7
-0.432, 1.4469855e-6, 8.9591231e-7
-0.433, 1.3866951e-6, 8.1103417e-7
-0.434, 1.4459301e-6, 8.8723812e-7
-0.435, 1.4054616e-6, 8.7147293e-7
-0.436, 1.4323912e-6, 8.8789784e-7
-0.437, 1.4444458e-6, 9.2866298e-7
-0.438, 1.3858046e-6, 8.5061214e-7
-0.439, 1.4525264e-6, 8.6035817e-7
-0.440, 1.3780705e-6, 8.1161136e-7
-0.441, 1.4291094e-6, 8.6601449e-7
-0.442, 1.4110026e-6, 8.8859042e-7
-0.443, 1.3961278e-6, 8.7147293e-7
-0.444, 1.4450561e-6, 9.2881146e-7
-0.445, 1.3674339e-6, 8.8793081e-7
-0.446, 1.4278562e-6, 8.6370585e-7
-0.447, 1.3892676e-6, 8.5095837e-7
-0.448, 1.4171701e-6, 8.0240955e-7
-0.449, 1.4312861e-6, 9.0090896e-7
-0.450, 1.3648448e-6, 8.7185219e-7
-0.451, 1.4290599e-6, 8.7625529e-7
-0.452, 1.3605572e-6, 8.7701386e-7
-0.453, 1.4182090e-6, 8.5249201e-7
-0.454, 1.3849635e-6, 8.5959954e-7
-0.455, 1.3902077e-6, 7.6520621e-7
-0.456, 1.4019161e-6, 8.4396629e-7
-0.457, 1.3422853e-6, 8.5767010e-7
-0.458, 1.4011575e-6, 8.5382783e-7
-0.459, 1.3578856e-6, 8.8717218e-7
-0.460, 1.3855079e-6, 8.6085288e-7
-0.461, 1.3783507e-6, 8.6350792e-7
-0.462, 1.3543072e-6, 8.2823408e-7
-0.463, 1.3644325e-6, 7.9076699e-7
-0.464, 1.3308407e-6, 8.4281191e-7
-0.465, 1.3706660e-6, 8.2328688e-7
-0.466, 1.3439510e-6, 8.6271632e-7
-0.467, 1.3480901e-6, 8.3418729e-7
-0.468, 1.3492115e-6, 8.2933900e-7
-0.469, 1.2906032e-6, 8.2168719e-7
-0.470, 1.3482550e-6, 7.7364950e-7
-0.471, 1.2919720e-6, 7.6405189e-7
-0.472, 1.3204185e-6, 8.0799987e-7
-0.473, 1.3151746e-6, 8.3296698e-7
-0.474, 1.2997391e-6, 8.0971489e-7
-0.475, 1.3151250e-6, 8.3529210e-7
-0.476, 1.2674336e-6, 7.8539097e-7
-0.477, 1.3157021e-6, 7.6906508e-7
-0.478, 1.2775261e-6, 7.2707951e-7
-0.479, 1.2701051e-6, 7.9253147e-7
-0.480, 1.2818961e-6, 8.3898607e-7
-0.481, 1.2393663e-6, 7.7167056e-7
-0.482, 1.2772126e-6, 8.1548660e-7
-0.483, 1.2139704e-6, 7.4124512e-7
-0.484, 1.2505305e-6, 7.7236325e-7
-0.485, 1.2406197e-6, 7.1754778e-7
-0.486, 1.2226446e-6, 7.0117244e-7
-0.487, 1.2416585e-6, 7.8877156e-7
-0.488, 1.1779546e-6, 7.4596142e-7
-0.489, 1.2216716e-6, 8.0470170e-7
-0.490, 1.1853589e-6, 7.6982366e-7
-0.491, 1.2010746e-6, 7.3108674e-7
-0.492, 1.2116122e-6, 7.4672005e-7
-0.493, 1.1607217e-6, 6.4549948e-7
-0.494, 1.1992277e-6, 7.1612959e-7
-0.495, 1.1261899e-6, 7.0809858e-7
-0.496, 1.1631788e-6, 7.5301955e-7
-0.497, 1.1487493e-6, 7.6192453e-7
-0.498, 1.1206655e-6, 6.7115917e-7
-0.499, 1.1550158e-6, 6.9597780e-7
-0.500, 1.0740295e-6, 6.4787417e-7
