Dec. 9, 2005   03:19:05
Square Wave Voltammetry
File: d:\ida_biofilms\11_28_18_blankidapyo\100um_transfer\100um_pyo_transfer_swv_14.txt
Data Source:  Experiment
Instrument Model:  CHI760B
Header: 
Note: 

Init E (V) = 0.1
Final E (V) = -0.5
Incr E (V) = 0.001
Amplitude (V) = 0.025
Frequency (Hz) = 300
Quiet Time (sec) = 2
Sensitivity (A/V) = 1e-6
Sens 2 (A/V) = 1e-6

Potential/V, i1/A, i2/A

0.099, 6.0801585e-7, 2.1060404e-7
0.098, 5.2709549e-7, 3.4429499e-7
0.097, 5.5745511e-7, 3.3542290e-7
0.096, 5.6019257e-7, 3.8741842e-7
0.095, 5.4752763e-7, 3.4551530e-7
0.094, 5.6680534e-7, 3.2112538e-7
0.093, 5.1964167e-7, 3.3553837e-7
0.092, 5.7188458e-7, 2.7236212e-7
0.091, 5.2612256e-7, 3.2981606e-7
0.090, 5.3169646e-7, 3.2305482e-7
0.089, 5.5057842e-7, 3.5895528e-7
0.088, 4.8825967e-7, 3.3128373e-7
0.087, 5.4523537e-7, 3.0399144e-7
0.086, 4.9314093e-7, 3.1238528e-7
0.085, 5.2462190e-7, 2.8027767e-7
0.084, 5.1692069e-7, 3.4340448e-7
0.083, 5.0440417e-7, 2.8852310e-7
0.082, 5.2732639e-7, 3.4995131e-7
0.081, 4.7038367e-7, 3.4640578e-7
0.080, 5.3159749e-7, 2.9167285e-7
0.079, 4.8562117e-7, 2.8542280e-7
0.078, 4.9439427e-7, 2.4485544e-7
0.077, 5.0385995e-7, 3.0935098e-7
0.076, 4.7538035e-7, 2.6624400e-7
0.075, 5.0306841e-7, 2.8768204e-7
0.074, 4.5808150e-7, 3.2435759e-7
0.073, 4.8812774e-7, 3.1502378e-7
0.072, 4.8327945e-7, 2.7729283e-7
0.071, 4.6306172e-7, 2.2077887e-7
0.070, 4.8273523e-7, 2.6703555e-7
0.069, 4.3499438e-7, 3.0501388e-7
0.068, 4.8224058e-7, 2.7821631e-7
0.067, 4.3524176e-7, 2.8202572e-7
0.066, 4.7584211e-7, 2.9995121e-7
0.065, 4.8261984e-7, 2.7198280e-7
0.064, 4.3730310e-7, 2.6057114e-7
0.063, 4.6952613e-7, 2.1195629e-7
0.062, 4.1787695e-7, 2.7862859e-7
0.061, 4.6495819e-7, 2.8936410e-7
0.060, 4.3210849e-7, 3.2928835e-7
0.059, 4.2833210e-7, 2.6787660e-7
0.058, 4.7387968e-7, 2.4757642e-7
0.057, 4.0593761e-7, 2.5305138e-7
0.056, 4.5481633e-7, 2.1045562e-7
0.055, 4.0954907e-7, 2.5916944e-7
0.054, 4.3464809e-7, 2.6253358e-7
0.053, 4.4442714e-7, 3.0517879e-7
0.052, 4.1165990e-7, 2.9947299e-7
0.051, 4.3408738e-7, 2.4620766e-7
0.050, 3.9028782e-7, 2.5201246e-7
0.049, 4.4165665e-7, 2.0390877e-7
0.048, 3.9175552e-7, 2.1175839e-7
0.047, 4.0651480e-7, 2.4683433e-7
0.046, 4.2048248e-7, 2.9472361e-7
0.045, 3.8717104e-7, 2.8108573e-7
0.044, 4.3050886e-7, 2.5958173e-7
0.043, 3.8600021e-7, 2.3049196e-7
0.042, 4.2053196e-7, 2.1990485e-7
0.041, 4.0087491e-7, 2.1998730e-7
0.040, 4.0801544e-7, 2.4262920e-7
0.039, 4.0135313e-7, 2.4353616e-7
0.038, 3.7015258e-7, 2.7242805e-7
0.037, 4.2412694e-7, 2.5163314e-7
0.036, 3.8759981e-7, 2.3517534e-7
0.035, 3.9831883e-7, 2.0409018e-7
0.034, 4.0908733e-7, 2.0860865e-7
0.033, 3.6319344e-7, 2.4864835e-7
0.032, 4.2066387e-7, 2.3933103e-7
0.031, 3.5374418e-7, 2.5033037e-7
0.030, 4.1012623e-7, 2.6259954e-7
0.029, 3.8725352e-7, 2.5305135e-7
0.028, 3.9538349e-7, 2.1083491e-7
0.027, 4.1622786e-7, 1.9688369e-7
0.026, 3.6309450e-7, 2.1611197e-7
0.025, 4.0306819e-7, 2.5413976e-7
0.024, 3.6507339e-7, 2.4685082e-7
0.023, 3.8482938e-7, 2.8243798e-7
0.022, 4.0306821e-7, 2.8621437e-7
0.021, 3.7025148e-7, 1.9803805e-7
0.020, 4.0847721e-7, 2.0122079e-7
0.019, 3.4981940e-7, 1.7763892e-7
0.018, 3.9662029e-7, 2.7411011e-7
0.017, 3.7681485e-7, 2.4891216e-7
0.016, 3.7646853e-7, 2.3045897e-7
0.015, 3.9347054e-7, 2.8078890e-7
0.014, 3.5433789e-7, 2.2854604e-7
0.013, 3.9706555e-7, 2.4162324e-7
0.012, 3.5413998e-7, 1.6711780e-7
0.011, 3.9276142e-7, 2.5254013e-7
0.010, 3.8583531e-7, 2.5481589e-7
0.009, 3.6222048e-7, 2.2828219e-7
0.008, 3.9515260e-7, 2.4272813e-7
0.007, 3.4096382e-7, 2.0583819e-7
0.006, 4.0783402e-7, 2.3570306e-7
0.005, 3.7112551e-7, 1.9239820e-7
0.004, 3.6517235e-7, 2.0966405e-7
0.003, 3.9655433e-7, 2.3034352e-7
0.002, 3.3679166e-7, 2.5255665e-7
0.001, 4.0202929e-7, 2.8169589e-7
-0.000, 3.4915976e-7, 2.0131972e-7
-0.001, 3.8227330e-7, 2.2824921e-7
-0.002, 3.9111237e-7, 2.3105264e-7
-0.003, 3.5036359e-7, 1.7617124e-7
-0.004, 4.0163349e-7, 2.3212453e-7
-0.005, 3.3425209e-7, 2.2025115e-7
-0.006, 3.9876409e-7, 2.8393865e-7
-0.007, 3.4764258e-7, 2.5409028e-7
-0.008, 3.7472051e-7, 2.0402422e-7
-0.009, 4.0204577e-7, 2.5356258e-7
-0.010, 3.4541637e-7, 1.8845688e-7
-0.011, 3.9977004e-7, 2.4676837e-7
-0.012, 3.4528443e-7, 2.3405397e-7
-0.013, 4.0155106e-7, 2.5090756e-7
-0.014, 3.7963477e-7, 2.5996101e-7
-0.015, 3.7409387e-7, 2.2641873e-7
-0.016, 3.8578582e-7, 2.3853946e-7
-0.017, 3.5217755e-7, 1.7346674e-7
-0.018, 4.1413352e-7, 2.3896823e-7
-0.019, 3.6593090e-7, 2.3802826e-7
-0.020, 3.8151472e-7, 2.5524463e-7
-0.021, 3.9218426e-7, 2.9673549e-7
-0.022, 3.5476666e-7, 2.4859884e-7
-0.023, 4.0570671e-7, 2.4492141e-7
-0.024, 3.4937415e-7, 1.7180119e-7
-0.025, 3.9396528e-7, 2.2950249e-7
-0.026, 3.8421922e-7, 2.6632648e-7
-0.027, 3.7348369e-7, 2.1647476e-7
-0.028, 4.0658074e-7, 2.8049206e-7
-0.029, 3.4925870e-7, 2.5160017e-7
-0.030, 4.1601345e-7, 2.3631318e-7
-0.031, 3.7481945e-7, 2.0286984e-7
-0.032, 3.8372448e-7, 2.2361527e-7
-0.033, 4.0826279e-7, 2.8718733e-7
-0.034, 3.6146190e-7, 2.3580198e-7
-0.035, 4.1472720e-7, 2.7313718e-7
-0.036, 3.5601994e-7, 2.4457509e-7
-0.037, 4.1081887e-7, 2.6311073e-7
-0.038, 3.9927528e-7, 2.5189701e-7
-0.039, 3.8809455e-7, 1.8273458e-7
-0.040, 4.2137299e-7, 2.8670911e-7
-0.041, 3.6098368e-7, 2.4803816e-7
-0.042, 4.1969093e-7, 3.0788328e-7
-0.043, 3.7473700e-7, 2.6269848e-7
-0.044, 4.1711834e-7, 2.4347023e-7
-0.045, 4.1777798e-7, 2.6992146e-7
-0.046, 3.9107937e-7, 1.8057429e-7
-0.047, 4.2729317e-7, 2.5168262e-7
-0.048, 3.7636960e-7, 2.4884622e-7
-0.049, 4.2016916e-7, 2.9144195e-7
-0.050, 4.0679512e-7, 3.0127046e-7
-0.051, 4.0158400e-7, 2.4284356e-7
-0.052, 4.3872132e-7, 2.6263251e-7
-0.053, 3.8496131e-7, 2.2104271e-7
-0.054, 4.3847393e-7, 2.4096360e-7
-0.055, 3.8268556e-7, 2.5258962e-7
-0.056, 4.2920612e-7, 2.9135950e-7
-0.057, 4.4325628e-7, 3.1713461e-7
-0.058, 4.0476675e-7, 2.6345705e-7
-0.059, 4.5793308e-7, 2.5235875e-7
-0.060, 3.9696658e-7, 2.1357238e-7
-0.061, 4.4444363e-7, 2.3110212e-7
-0.062, 4.1523842e-7, 2.7724337e-7
-0.063, 4.2485254e-7, 2.5491482e-7
-0.064, 4.5912043e-7, 3.2594073e-7
-0.065, 4.0348047e-7, 2.4780729e-7
-0.066, 4.6614554e-7, 2.7457187e-7
-0.067, 4.1197325e-7, 2.3647812e-7
-0.068, 4.6098387e-7, 2.2734221e-7
-0.069, 4.3707223e-7, 3.0725664e-7
-0.070, 4.3326287e-7, 2.6929479e-7
-0.071, 4.6068703e-7, 3.0197958e-7
-0.072, 4.1553523e-7, 2.9378364e-7
-0.073, 4.8196023e-7, 2.7913981e-7
-0.074, 4.4569691e-7, 2.8527438e-7
-0.075, 4.6626096e-7, 2.2168587e-7
-0.076, 4.6264944e-7, 3.0110556e-7
-0.077, 4.3473051e-7, 2.8631331e-7
-0.078, 4.9823666e-7, 3.0831205e-7
-0.079, 4.3367510e-7, 3.0479950e-7
-0.080, 4.8512641e-7, 2.8407055e-7
-0.081, 4.8324648e-7, 3.0752048e-7
-0.082, 4.6698653e-7, 2.2641871e-7
-0.083, 5.0539364e-7, 3.0453566e-7
-0.084, 4.5697664e-7, 2.9010619e-7
-0.085, 5.1461200e-7, 3.3999089e-7
-0.086, 4.7523196e-7, 3.3515909e-7
-0.087, 4.9282761e-7, 2.9912667e-7
-0.088, 5.2094447e-7, 3.3479625e-7
-0.089, 4.7757362e-7, 2.4276110e-7
-0.090, 5.3111927e-7, 2.8588454e-7
-0.091, 4.6690408e-7, 2.8883639e-7
-0.092, 5.2092798e-7, 3.2946974e-7
-0.093, 5.1591473e-7, 3.7486893e-7
-0.094, 5.1828943e-7, 2.8914974e-7
-0.095, 5.4991881e-7, 3.5588801e-7
-0.096, 5.0080916e-7, 2.6190693e-7
-0.097, 5.5377762e-7, 2.8204218e-7
-0.098, 5.1415026e-7, 3.1380347e-7
-0.099, 5.3967801e-7, 3.3914984e-7
-0.100, 5.5532780e-7, 4.1368827e-7
-0.101, 5.2475383e-7, 3.3359242e-7
-0.102, 5.6926251e-7, 3.3515909e-7
-0.103, 5.2498467e-7, 2.9373416e-7
-0.104, 5.5608638e-7, 3.3550538e-7
-0.105, 5.6344123e-7, 3.4337148e-7
-0.106, 5.4409753e-7, 3.3334510e-7
-0.107, 5.9780808e-7, 4.0153455e-7
-0.108, 5.4103026e-7, 3.3989193e-7
-0.109, 5.9441095e-7, 3.4180488e-7
-0.110, 5.5151838e-7, 3.4262939e-7
-0.111, 6.0923617e-7, 2.9850003e-7
-0.112, 6.1213859e-7, 3.7081219e-7
-0.113, 5.6586543e-7, 3.4929167e-7
-0.114, 6.3260370e-7, 3.6914662e-7
-0.115, 5.6095109e-7, 3.7142235e-7
-0.116, 6.2135695e-7, 3.7427526e-7
-0.117, 5.8911746e-7, 3.6878382e-7
-0.118, 5.9962207e-7, 2.9912667e-7
-0.119, 6.4930884e-7, 3.9383332e-7
-0.120, 5.8006401e-7, 3.6370466e-7
-0.121, 6.4426263e-7, 3.9790658e-7
-0.122, 5.8883711e-7, 3.9485579e-7
-0.123, 6.4061817e-7, 3.6858592e-7
-0.124, 6.5056219e-7, 3.9638942e-7
-0.125, 6.2584246e-7, 3.1574939e-7
-0.126, 6.5165057e-7, 3.7547909e-7
-0.127, 6.0493210e-7, 3.8383990e-7
-0.128, 6.6396922e-7, 4.1261637e-7
-0.129, 6.3418679e-7, 4.3690733e-7
-0.130, 6.5545987e-7, 3.5786690e-7
-0.131, 6.6550285e-7, 4.1551874e-7
-0.132, 6.3294999e-7, 3.3949615e-7
-0.133, 6.9078322e-7, 3.7160373e-7
-0.134, 6.3008054e-7, 4.0357941e-7
-0.135, 6.7040060e-7, 4.3012960e-7
-0.136, 6.7237954e-7, 4.6982296e-7
-0.137, 6.6006089e-7, 3.8971064e-7
-0.138, 6.9533468e-7, 3.9114536e-7
-0.139, 6.4568087e-7, 3.6177522e-7
-0.140, 7.1462892e-7, 3.7036693e-7
-0.141, 6.6481016e-7, 4.2190069e-7
-0.142, 6.7665064e-7, 4.3707223e-7
-0.143, 7.1027534e-7, 5.1316078e-7
-0.144, 6.5517958e-7, 3.9444353e-7
-0.145, 7.2521601e-7, 4.1894884e-7
-0.146, 6.5145269e-7, 3.7897513e-7
-0.147, 7.1523908e-7, 3.7422578e-7
-0.148, 7.0770278e-7, 4.5414023e-7
-0.149, 6.9711569e-7, 4.1736570e-7
-0.150, 7.3713886e-7, 5.0038045e-7
-0.151, 6.8850750e-7, 4.3697327e-7
-0.152, 7.4376817e-7, 4.3453264e-7
-0.153, 6.9657153e-7, 3.7025151e-7
-0.154, 7.2620549e-7, 3.7321985e-7
-0.155, 7.3347792e-7, 4.6342453e-7
-0.156, 7.0087560e-7, 4.0979643e-7
-0.157, 7.4432887e-7, 4.8666004e-7
-0.158, 6.8857349e-7, 4.1913023e-7
-0.159, 7.4422991e-7, 4.5542652e-7
-0.160, 7.4808872e-7, 4.2114212e-7
-0.161, 7.3100432e-7, 3.7203250e-7
-0.162, 7.6111644e-7, 4.7900835e-7
-0.163, 7.0227736e-7, 4.4274509e-7
-0.164, 7.6990614e-7, 4.9513636e-7
-0.165, 7.2229716e-7, 4.5925236e-7
-0.166, 7.7546349e-7, 4.4413031e-7
-0.167, 7.8248854e-7, 4.6024181e-7
-0.168, 7.2750822e-7, 3.7892568e-7
-0.169, 7.9165750e-7, 4.4256370e-7
-0.170, 7.1220478e-7, 4.4041985e-7
-0.171, 7.8395624e-7, 4.9828611e-7
-0.172, 7.6316138e-7, 4.7790343e-7
-0.173, 7.5532819e-7, 4.3563750e-7
-0.174, 8.1857047e-7, 4.5288692e-7
-0.175, 7.4045352e-7, 3.8458199e-7
-0.176, 8.0381119e-7, 4.9124452e-7
-0.177, 7.4198715e-7, 4.4662039e-7
-0.178, 8.0247548e-7, 4.8852354e-7
-0.179, 7.9762708e-7, 5.2066412e-7
-0.180, 7.8031178e-7, 4.4914350e-7
-0.181, 8.2322083e-7, 4.7199975e-7
-0.182, 7.6098456e-7, 4.1292969e-7
-0.183, 8.2867928e-7, 4.8837512e-7
-0.184, 7.9391668e-7, 4.8966137e-7
-0.185, 8.1555260e-7, 4.6939419e-7
-0.186, 8.2000514e-7, 5.1865220e-7
-0.187, 7.9266340e-7, 4.6301224e-7
-0.188, 8.4861665e-7, 4.8708881e-7
-0.189, 7.9566473e-7, 4.2895874e-7
-0.190, 8.4770977e-7, 4.9894572e-7
-0.191, 8.3372549e-7, 5.3222419e-7
-0.192, 8.2132442e-7, 5.0674589e-7
-0.193, 8.6085288e-7, 5.3768258e-7
-0.194, 8.1383757e-7, 4.8573662e-7
-0.195, 8.8230740e-7, 5.0384352e-7
-0.196, 8.5671365e-7, 4.3895216e-7
-0.197, 8.5842873e-7, 5.0333227e-7
-0.198, 8.9670391e-7, 5.4414699e-7
-0.199, 8.3905206e-7, 5.3139962e-7
-0.200, 9.0905553e-7, 5.4610939e-7
-0.201, 8.5270642e-7, 5.0145229e-7
-0.202, 9.1103436e-7, 5.1698669e-7
-0.203, 9.1367292e-7, 4.9042001e-7
-0.204, 9.0402580e-7, 4.9446021e-7
-0.205, 9.2849814e-7, 5.4625787e-7
-0.206, 8.8925003e-7, 5.4840166e-7
-0.207, 9.5331677e-7, 6.0780150e-7
-0.208, 9.2924017e-7, 5.3252097e-7
-0.209, 9.3511096e-7, 5.4117868e-7
-0.210, 9.6426675e-7, 5.3037718e-7
-0.211, 9.3440178e-7, 4.9000772e-7
-0.212, 9.8265400e-7, 5.5242538e-7
-0.213, 9.2905884e-7, 5.5003420e-7
-0.214, 9.6942836e-7, 6.3323029e-7
-0.215, 9.8003181e-7, 5.8862270e-7
-0.216, 9.7994939e-7, 5.4820373e-7
-0.217, 1.0091381e-6, 5.4060149e-7
-0.218, 9.7017039e-7, 5.0353015e-7
-0.219, 1.0261731e-6, 5.9980346e-7
-0.220, 9.9733074e-7, 5.9995187e-7
-0.221, 1.0437689e-6, 6.4190453e-7
-0.222, 1.0663613e-6, 6.3936488e-7
-0.223, 1.0160478e-6, 5.7150527e-7
-0.224, 1.0761238e-6, 5.6706926e-7
-0.225, 1.0210940e-6, 5.6170973e-7
-0.226, 1.0860678e-6, 6.3130091e-7
-0.227, 1.0630465e-6, 6.1538731e-7
-0.228, 1.0542240e-6, 6.5831284e-7
-0.229, 1.1213251e-6, 6.5247514e-7
-0.230, 1.0554774e-6, 6.1062144e-7
-0.231, 1.1377335e-6, 6.2148888e-7
-0.232, 1.0781687e-6, 5.5179873e-7
-0.233, 1.1298343e-6, 6.3097110e-7
-0.234, 1.1523277e-6, 6.6972450e-7
-0.235, 1.1007116e-6, 6.6734981e-7
-0.236, 1.1689835e-6, 6.7302267e-7
-0.237, 1.0990130e-6, 6.4328970e-7
-0.238, 1.1853259e-6, 6.6246849e-7
-0.239, 1.1568793e-6, 6.1378762e-7
-0.240, 1.1639373e-6, 6.3565449e-7
-0.241, 1.1912625e-6, 6.9454313e-7
-0.242, 1.1509096e-6, 7.1218830e-7
-0.243, 1.2170048e-6, 7.0013351e-7
-0.244, 1.1816155e-6, 6.6121521e-7
-0.245, 1.2330503e-6, 6.9149235e-7
-0.246, 1.2292738e-6, 6.5207928e-7
-0.247, 1.2142177e-6, 6.7912424e-7
-0.248, 1.2433570e-6, 6.9333930e-7
-0.249, 1.2042408e-6, 7.2590865e-7
-0.250, 1.2549006e-6, 7.4025564e-7
-0.251, 1.2427304e-6, 7.0132086e-7
-0.252, 1.2576215e-6, 6.8743554e-7
-0.253, 1.2944950e-6, 6.8090526e-7
-0.254, 1.2317970e-6, 7.1967509e-7
-0.255, 1.3122885e-6, 7.2612301e-7
-0.256, 1.2470839e-6, 7.4993574e-7
-0.257, 1.2976282e-6, 7.6175968e-7
-0.258, 1.3045544e-6, 7.5869235e-7
-0.259, 1.3046699e-6, 6.8971133e-7
-0.260, 1.3397457e-6, 6.7297321e-7
-0.261, 1.2766191e-6, 7.2356693e-7
-0.262, 1.3456661e-6, 7.5372861e-7
-0.263, 1.3035649e-6, 7.7851428e-7
-0.264, 1.2911144e-6, 7.8887052e-7
-0.265, 1.3506626e-6, 7.8384085e-7
-0.266, 1.3124370e-6, 7.1896602e-7
-0.267, 1.3586442e-6, 6.9624167e-7
-0.268, 1.3153394e-6, 7.2406164e-7
-0.269, 1.3399767e-6, 7.7371544e-7
-0.270, 1.3589411e-6, 7.9546680e-7
-0.271, 1.3220017e-6, 7.6560195e-7
-0.272, 1.3629813e-6, 7.9279533e-7
-0.273, 1.3251185e-6, 7.7018643e-7
-0.274, 1.3763388e-6, 7.0714214e-7
-0.275, 1.3503329e-6, 7.1279845e-7
-0.276, 1.3538619e-6, 7.7327024e-7
-0.277, 1.3702042e-6, 8.3217537e-7
-0.278, 1.3220841e-6, 8.2176967e-7
-0.279, 1.3826548e-6, 7.4114615e-7
-0.280, 1.3258441e-6, 7.6736649e-7
-0.281, 1.3692148e-6, 7.1885057e-7
-0.282, 1.3718864e-6, 7.6616266e-7
-0.283, 1.3304614e-6, 7.4559864e-7
-0.284, 1.3910487e-6, 7.9848462e-7
-0.285, 1.3284496e-6, 7.9645628e-7
-0.286, 1.3781694e-6, 7.5328336e-7
-0.287, 1.3271467e-6, 7.4020613e-7
-0.288, 1.3552801e-6, 6.8258731e-7
-0.289, 1.3819292e-6, 7.7289093e-7
-0.290, 1.2986836e-6, 7.5948390e-7
-0.291, 1.3630803e-6, 7.8583616e-7
-0.292, 1.2971500e-6, 8.2609029e-7
-0.293, 1.3407516e-6, 7.6606375e-7
-0.294, 1.3172523e-6, 7.6636059e-7
-0.295, 1.3268170e-6, 6.6362287e-7
-0.296, 1.3669392e-6, 7.8088897e-7
-0.297, 1.2839245e-6, 7.6032495e-7
-0.298, 1.3445940e-6, 7.7486982e-7
-0.299, 1.3036145e-6, 7.7910795e-7
-0.300, 1.3225294e-6, 7.4998525e-7
-0.301, 1.3336936e-6, 7.8062510e-7
-0.302, 1.2928789e-6, 6.7590850e-7
-0.303, 1.3326712e-6, 7.3410456e-7
-0.304, 1.2738320e-6, 7.4162438e-7
-0.305, 1.3250855e-6, 7.7605716e-7
-0.306, 1.2826216e-6, 8.0059550e-7
-0.307, 1.2905703e-6, 7.2427599e-7
-0.308, 1.3071269e-6, 7.7696416e-7
-0.309, 1.2390035e-6, 6.7861299e-7
-0.310, 1.3169225e-6, 7.5420689e-7
-0.311, 1.2528888e-6, 7.2576023e-7
-0.312, 1.2716387e-6, 7.7750838e-7
-0.313, 1.2886737e-6, 8.1504140e-7
-0.314, 1.2530702e-6, 7.1347461e-7
-0.315, 1.2902403e-6, 7.4284469e-7
-0.316, 1.2240133e-6, 6.6238601e-7
-0.317, 1.2924006e-6, 7.3613296e-7
-0.318, 1.2564838e-6, 7.2755773e-7
-0.319, 1.2245575e-6, 7.6518972e-7
-0.320, 1.2753821e-6, 8.1674000e-7
-0.321, 1.2190167e-6, 6.8743560e-7
-0.322, 1.2825722e-6, 7.2927276e-7
-0.323, 1.2193300e-6, 6.3860631e-7
-0.324, 1.2575721e-6, 7.3135061e-7
-0.325, 1.2641684e-6, 7.5018312e-7
-0.326, 1.2333471e-6, 7.1578324e-7
-0.327, 1.2416090e-6, 8.0432238e-7
-0.328, 1.2002336e-6, 7.2079649e-7
-0.329, 1.2477271e-6, 7.3425292e-7
-0.330, 1.2272619e-6, 6.4485636e-7
-0.331, 1.2430602e-6, 7.2002143e-7
-0.332, 1.2269156e-6, 7.5300306e-7
-0.333, 1.1985351e-6, 7.2289083e-7
-0.334, 1.2409989e-6, 7.6454660e-7
-0.335, 1.1957316e-6, 7.0823046e-7
-0.336, 1.2435385e-6, 7.4165735e-7
-0.337, 1.2330008e-6, 6.6301271e-7
-0.338, 1.2092211e-6, 7.1637692e-7
-0.339, 1.2564672e-6, 7.4385059e-7
-0.340, 1.1922685e-6, 7.7519962e-7
-0.341, 1.2338913e-6, 7.5842848e-7
-0.342, 1.1996565e-6, 7.1131427e-7
-0.343, 1.2479085e-6, 7.2112630e-7
-0.344, 1.2659659e-6, 6.9497185e-7
-0.345, 1.2083306e-6, 7.1222127e-7
-0.346, 1.2497225e-6, 7.1837235e-7
-0.347, 1.1959954e-6, 7.5513037e-7
-0.348, 1.2485023e-6, 7.7797006e-7
-0.349, 1.2256294e-6, 7.3313163e-7
-0.350, 1.2247389e-6, 7.0541057e-7
-0.351, 1.2658834e-6, 7.0572389e-7
-0.352, 1.2137232e-6, 7.3647925e-7
-0.353, 1.2542574e-6, 7.2729387e-7
-0.354, 1.2131624e-6, 7.8829333e-7
-0.355, 1.2393663e-6, 7.7254464e-7
-0.356, 1.2576381e-6, 7.5795026e-7
-0.357, 1.2273774e-6, 7.4700040e-7
-0.358, 1.2497060e-6, 6.9089867e-7
-0.359, 1.2291915e-6, 7.5847800e-7
-0.360, 1.2546698e-6, 7.4932552e-7
-0.361, 1.2529217e-6, 7.8591870e-7
-0.362, 1.2520971e-6, 7.6985663e-7
-0.363, 1.2826711e-6, 7.7257755e-7
-0.364, 1.2265200e-6, 7.7501824e-7
-0.365, 1.2813189e-6, 7.0442110e-7
-0.366, 1.2356888e-6, 7.7735996e-7
-0.367, 1.2702701e-6, 7.8356049e-7
-0.368, 1.2847490e-6, 8.5013386e-7
-0.369, 1.2646137e-6, 7.7622207e-7
-0.370, 1.2997887e-6, 7.7900893e-7
-0.371, 1.2519323e-6, 7.8527552e-7
-0.372, 1.3190333e-6, 7.1276548e-7
-0.373, 1.3058901e-6, 8.0179927e-7
-0.374, 1.2781857e-6, 7.9782501e-7
-0.375, 1.3384100e-6, 8.7191825e-7
-0.376, 1.2701381e-6, 8.0842858e-7
-0.377, 1.3505143e-6, 7.9759411e-7
-0.378, 1.2965399e-6, 7.9861661e-7
-0.379, 1.3302965e-6, 7.4718184e-7
-0.380, 1.3714906e-6, 8.3039436e-7
-0.381, 1.3276415e-6, 7.9462581e-7
-0.382, 1.3666588e-6, 9.0903904e-7
-0.383, 1.3089740e-6, 8.3426971e-7
-0.384, 1.3747722e-6, 8.1279865e-7
-0.385, 1.3548020e-6, 8.2346827e-7
-0.386, 1.3791093e-6, 7.6726758e-7
-0.387, 1.4065005e-6, 8.6995584e-7
-0.388, 1.3588422e-6, 8.0724129e-7
-0.389, 1.4139379e-6, 8.7157196e-7
-0.390, 1.3659826e-6, 8.6329351e-7
-0.391, 1.4088423e-6, 8.6276577e-7
-0.392, 1.4228924e-6, 8.6535488e-7
-0.393, 1.3987665e-6, 7.7112645e-7
-0.394, 1.4519328e-6, 8.8220844e-7
-0.395, 1.3761904e-6, 8.6347490e-7
-0.396, 1.4471998e-6, 9.2068149e-7
-0.397, 1.4050494e-6, 8.8967880e-7
-0.398, 1.4489808e-6, 8.5565830e-7
-0.399, 1.4812205e-6, 8.9751200e-7
-0.400, 1.4267182e-6, 8.0743916e-7
-0.401, 1.5022956e-6, 8.7247889e-7
-0.402, 1.4139544e-6, 8.9413129e-7
-0.403, 1.4842053e-6, 9.4297712e-7
-0.404, 1.4605245e-6, 9.2798689e-7
-0.405, 1.4593536e-6, 8.7038450e-7
-0.406, 1.5160159e-6, 9.2684911e-7
-0.407, 1.4594525e-6, 8.3580335e-7
-0.408, 1.5164446e-6, 9.1863666e-7
-0.409, 1.4697098e-6, 9.1561878e-7
-0.410, 1.5123385e-6, 9.6434906e-7
-0.411, 1.5072264e-6, 9.8093892e-7
-0.412, 1.5102771e-6, 9.0506467e-7
-0.413, 1.5411479e-6, 9.2051664e-7
-0.414, 1.4975133e-6, 8.6504156e-7
-0.415, 1.5552311e-6, 9.3880487e-7
-0.416, 1.5233709e-6, 9.3885444e-7
-0.417, 1.5472660e-6, 9.1677316e-7
-0.418, 1.5591394e-6, 1.0018491e-6
-0.419, 1.5200233e-6, 9.2724486e-7
-0.420, 1.5684237e-6, 9.5285503e-7
-0.421, 1.5271472e-6, 8.9216894e-7
-0.422, 1.5662633e-6, 9.5522978e-7
-0.423, 1.5668077e-6, 9.9551676e-7
-0.424, 1.5456664e-6, 9.6578378e-7
-0.425, 1.5786150e-6, 9.7963618e-7
-0.426, 1.5318142e-6, 9.4700079e-7
-0.427, 1.6101455e-6, 9.6260112e-7
-0.428, 1.5770154e-6, 9.0077708e-7
-0.429, 1.5615306e-6, 9.4739664e-7
-0.430, 1.5963922e-6, 1.0130794e-6
-0.431, 1.5526916e-6, 9.7587622e-7
-0.432, 1.6104917e-6, 1.0180432e-6
-0.433, 1.5451717e-6, 9.5079372e-7
-0.434, 1.5932424e-6, 9.7625548e-7
-0.435, 1.5932094e-6, 9.3638073e-7
-0.436, 1.5797199e-6, 9.0127185e-7
-0.437, 1.6181930e-6, 1.0108532e-6
-0.438, 1.5598321e-6, 9.8270345e-7
-0.439, 1.6117285e-6, 1.0399924e-6
-0.440, 1.5931599e-6, 9.8214275e-7
-0.441, 1.6068144e-6, 9.6885117e-7
-0.442, 1.6021804e-6, 9.5465259e-7
-0.443, 1.5750860e-6, 8.9136086e-7
-0.444, 1.6137074e-6, 9.7218231e-7
-0.445, 1.5609039e-6, 9.6119948e-7
-0.446, 1.5994758e-6, 1.0332149e-6
-0.447, 1.6072926e-6, 9.6827398e-7
-0.448, 1.5790934e-6, 9.3445135e-7
-0.449, 1.6160823e-6, 9.4510438e-7
-0.450, 1.5564349e-6, 8.9485695e-7
-0.451, 1.6183415e-6, 9.7193492e-7
-0.452, 1.5527246e-6, 9.4924354e-7
-0.453, 1.5938361e-6, 9.9934255e-7
-0.454, 1.6080511e-6, 1.0021956e-6
-0.455, 1.5374540e-6, 9.4927651e-7
-0.456, 1.5954357e-6, 9.1965904e-7
-0.457, 1.5273285e-6, 8.8633112e-7
-0.458, 1.5715899e-6, 9.7435907e-7
-0.459, 1.5456665e-6, 9.4799032e-7
-0.460, 1.5336776e-6, 9.6245276e-7
-0.461, 1.5800993e-6, 9.8697456e-7
-0.462, 1.5119099e-6, 9.3072441e-7
-0.463, 1.5734370e-6, 9.1611361e-7
-0.464, 1.5103432e-6, 8.6326054e-7
-0.465, 1.5496407e-6, 9.2825081e-7
-0.466, 1.5284170e-6, 9.4576399e-7
-0.467, 1.5089413e-6, 9.3248889e-7
-0.468, 1.5395648e-6, 9.5394353e-7
-0.469, 1.4731564e-6, 9.1093546e-7
-0.470, 1.5283016e-6, 9.2490313e-7
-0.471, 1.4913787e-6, 8.5308574e-7
-0.472, 1.4854090e-6, 8.6987336e-7
-0.473, 1.4893008e-6, 9.1674019e-7
-0.474, 1.4524110e-6, 9.1553636e-7
-0.475, 1.4767348e-6, 9.3173037e-7
-0.476, 1.4351122e-6, 8.9658846e-7
-0.477, 1.4648781e-6, 8.8046045e-7
-0.478, 1.4658344e-6, 8.4741293e-7
-0.479, 1.4300495e-6, 8.3464897e-7
-0.480, 1.4484860e-6, 8.8527577e-7
-0.481, 1.3985521e-6, 8.9154224e-7
-0.482, 1.4413951e-6, 9.1965910e-7
-0.483, 1.4078528e-6, 8.7815170e-7
-0.484, 1.3923350e-6, 8.3265365e-7
-0.485, 1.4228265e-6, 8.2942142e-7
-0.486, 1.3639212e-6, 8.1525582e-7
-0.487, 1.4068303e-6, 8.2475447e-7
-0.488, 1.3306428e-6, 8.2091219e-7
-0.489, 1.3652406e-6, 8.8699079e-7
-0.490, 1.3735189e-6, 8.6547027e-7
-0.491, 1.3347820e-6, 7.9073396e-7
-0.492, 1.3726780e-6, 7.9254789e-7
-0.493, 1.2990795e-6, 7.4921013e-7
-0.494, 1.3432089e-6, 8.2147284e-7
-0.495, 1.2847819e-6, 7.8461585e-7
-0.496, 1.2921532e-6, 8.1433234e-7
-0.497, 1.3022951e-6, 8.3765030e-7
-0.498, 1.2693795e-6, 7.4940800e-7
-0.499, 1.3105736e-6, 7.6748199e-7
-0.500, 1.2356558e-6, 6.8669351e-7
