Dec. 9, 2005   03:17:22
Square Wave Voltammetry
File: d:\ida_biofilms\11_28_18_blankidapyo\100um_transfer\100um_pyo_transfer_swv_2.txt
Data Source:  Experiment
Instrument Model:  CHI760B
Header: 
Note: 

Init E (V) = 0.1
Final E (V) = -0.5
Incr E (V) = 0.001
Amplitude (V) = 0.025
Frequency (Hz) = 300
Quiet Time (sec) = 2
Sensitivity (A/V) = 1e-6
Sens 2 (A/V) = 1e-6

Potential/V, i1/A, i2/A

0.099, 5.9732986e-7, 2.6756328e-7
0.098, 5.5077635e-7, 2.6535349e-7
0.097, 5.4591152e-7, 3.0092417e-7
0.096, 5.6133047e-7, 3.5120462e-7
0.095, 5.1731649e-7, 3.3768217e-7
0.094, 5.6050590e-7, 3.4007331e-7
0.093, 5.1566741e-7, 2.8474670e-7
0.092, 5.4782447e-7, 3.0684436e-7
0.091, 5.3423605e-7, 2.7617148e-7
0.090, 5.1319381e-7, 2.7143861e-7
0.089, 5.3633039e-7, 2.9840106e-7
0.088, 4.8713832e-7, 3.0349673e-7
0.087, 5.2242865e-7, 3.6037352e-7
0.086, 5.0102358e-7, 2.8443336e-7
0.085, 4.9190413e-7, 2.8065696e-7
0.084, 5.3428550e-7, 2.4513577e-7
0.083, 4.7122469e-7, 2.4165624e-7
0.082, 5.1299588e-7, 2.9381664e-7
0.081, 4.6223718e-7, 2.9734565e-7
0.080, 4.9894572e-7, 3.2201589e-7
0.079, 5.0143581e-7, 3.0646510e-7
0.078, 4.6345752e-7, 2.5506324e-7
0.077, 5.1042332e-7, 2.5582182e-7
0.076, 4.3928196e-7, 2.1868453e-7
0.075, 4.9286064e-7, 3.0288658e-7
0.074, 4.4086511e-7, 2.7094387e-7
0.073, 4.6731637e-7, 2.7656725e-7
0.072, 4.9193716e-7, 2.8906726e-7
0.071, 4.3654452e-7, 2.4132640e-7
0.070, 4.9248126e-7, 2.4332181e-7
0.069, 4.3591785e-7, 2.1416605e-7
0.068, 4.8045956e-7, 2.7317014e-7
0.067, 4.5285393e-7, 2.7693005e-7
0.066, 4.4826947e-7, 2.7757318e-7
0.065, 4.5125432e-7, 2.9304158e-7
0.064, 4.1415001e-7, 2.4873077e-7
0.063, 4.7054857e-7, 2.5671233e-7
0.062, 4.2666653e-7, 2.0756971e-7
0.061, 4.3791329e-7, 2.2270829e-7
0.060, 4.3219094e-7, 2.7561077e-7
0.059, 3.9924231e-7, 2.7023478e-7
0.058, 4.5427214e-7, 3.0597033e-7
0.057, 3.9863215e-7, 2.4187062e-7
0.056, 4.4182158e-7, 2.4307442e-7
0.055, 4.3093769e-7, 2.1464429e-7
0.054, 4.2176879e-7, 1.9422868e-7
0.053, 4.3278465e-7, 2.5026441e-7
0.052, 3.9012292e-7, 2.5671233e-7
0.051, 4.3995811e-7, 2.9884632e-7
0.050, 3.9833532e-7, 2.4907706e-7
0.049, 4.1520542e-7, 2.3942997e-7
0.048, 4.3581895e-7, 2.6353950e-7
0.047, 3.8255365e-7, 1.9168908e-7
0.046, 4.3621469e-7, 2.5250716e-7
0.045, 3.6649158e-7, 2.3039300e-7
0.044, 4.1690396e-7, 2.9920912e-7
0.043, 4.1454581e-7, 2.5626707e-7
0.042, 4.0460185e-7, 2.1055456e-7
0.041, 4.2693040e-7, 2.6236867e-7
0.040, 3.7910706e-7, 1.8250370e-7
0.039, 4.3021203e-7, 2.5557446e-7
0.038, 3.8489532e-7, 2.2618784e-7
0.037, 4.1972390e-7, 2.4930796e-7
0.036, 4.1530438e-7, 2.8266885e-7
0.035, 3.8522515e-7, 2.0364493e-7
0.034, 4.1650821e-7, 2.3001371e-7
0.033, 3.6708525e-7, 1.7656703e-7
0.032, 4.1591451e-7, 2.4648801e-7
0.031, 3.9211830e-7, 2.2656712e-7
0.030, 3.8700614e-7, 2.4205201e-7
0.029, 4.2059793e-7, 2.6350654e-7
0.028, 3.6274815e-7, 2.2460473e-7
0.027, 4.1955900e-7, 2.2800185e-7
0.026, 3.6606284e-7, 1.6396805e-7
0.025, 4.1246795e-7, 1.9516864e-7
0.024, 4.0557478e-7, 2.4508631e-7
0.023, 3.6373763e-7, 2.4005661e-7
0.022, 4.2325294e-7, 2.5285348e-7
0.021, 3.5155094e-7, 2.1774456e-7
0.020, 4.1266583e-7, 2.3642863e-7
0.019, 3.7780427e-7, 2.0654730e-7
0.018, 3.7902461e-7, 1.7378008e-7
0.017, 4.1164341e-7, 2.5552498e-7
0.016, 3.5506349e-7, 2.2063045e-7
0.015, 4.1175883e-7, 2.5023144e-7
0.014, 3.6123103e-7, 2.3786333e-7
0.013, 4.0496462e-7, 2.1220364e-7
0.012, 3.9236568e-7, 2.4594382e-7
0.011, 3.8281749e-7, 1.7412637e-7
0.010, 4.0766912e-7, 2.3623073e-7
0.009, 3.4596053e-7, 2.2970039e-7
0.008, 4.1024168e-7, 2.6240164e-7
0.007, 3.6416640e-7, 2.4881322e-7
0.006, 3.9352003e-7, 1.9914293e-7
0.005, 3.9633994e-7, 2.4172218e-7
0.004, 3.7026800e-7, 1.8637905e-7
0.003, 4.1804185e-7, 2.3573602e-7
0.002, 3.5478314e-7, 2.3591741e-7
0.001, 3.9343757e-7, 2.4777432e-7
-0.000, 3.8923241e-7, 3.0255677e-7
-0.001, 3.8712159e-7, 2.1718387e-7
-0.002, 4.0602004e-7, 2.2833166e-7
-0.003, 3.5908721e-7, 1.9032035e-7
-0.004, 4.1541983e-7, 2.3407046e-7
-0.005, 3.7399491e-7, 2.3136596e-7
-0.006, 3.9065060e-7, 2.3067335e-7
-0.007, 4.1174235e-7, 3.0318341e-7
-0.008, 3.7028448e-7, 2.3933103e-7
-0.009, 4.1607944e-7, 2.2996424e-7
-0.010, 3.7472051e-7, 2.2269180e-7
-0.011, 4.0638284e-7, 1.9068315e-7
-0.012, 4.1297918e-7, 2.5710810e-7
-0.013, 3.8924890e-7, 2.0296881e-7
-0.014, 4.2448977e-7, 2.7053164e-7
-0.015, 3.6815717e-7, 2.5890560e-7
-0.016, 4.3271868e-7, 2.4281059e-7
-0.017, 3.8336168e-7, 2.2171884e-7
-0.018, 4.0644881e-7, 1.8553801e-7
-0.019, 4.1753063e-7, 2.5567340e-7
-0.020, 3.8021193e-7, 2.1896489e-7
-0.021, 4.2096070e-7, 2.6220374e-7
-0.022, 3.8456551e-7, 2.5578885e-7
-0.023, 4.2999767e-7, 2.6052169e-7
-0.024, 4.1367178e-7, 2.3301504e-7
-0.025, 4.0974697e-7, 1.8443313e-7
-0.026, 4.3260320e-7, 2.2422543e-7
-0.027, 3.8519215e-7, 2.4388248e-7
-0.028, 4.3710520e-7, 2.4581192e-7
-0.029, 3.9050218e-7, 2.4848342e-7
-0.030, 4.4577939e-7, 2.7002039e-7
-0.031, 4.4269558e-7, 2.5837790e-7
-0.032, 4.0534394e-7, 2.1489163e-7
-0.033, 4.5300237e-7, 1.9361852e-7
-0.034, 3.9447650e-7, 2.5011599e-7
-0.035, 4.4356960e-7, 2.5923541e-7
-0.036, 4.1602996e-7, 2.7379679e-7
-0.037, 4.2176876e-7, 2.6830537e-7
-0.038, 4.6541993e-7, 2.4759291e-7
-0.039, 4.0801541e-7, 2.3984222e-7
-0.040, 4.6010987e-7, 2.0801498e-7
-0.041, 4.1477665e-7, 2.1814033e-7
-0.042, 4.5211186e-7, 2.5484886e-7
-0.043, 4.5664683e-7, 2.8726978e-7
-0.044, 4.3369158e-7, 2.9200262e-7
-0.045, 4.7308816e-7, 2.7971697e-7
-0.046, 4.2036703e-7, 2.4800519e-7
-0.047, 4.6744827e-7, 2.1060403e-7
-0.048, 4.4271206e-7, 2.2219707e-7
-0.049, 4.6276492e-7, 2.5237526e-7
-0.050, 4.7503408e-7, 2.8331198e-7
-0.051, 4.3322984e-7, 2.8440039e-7
-0.052, 4.8976034e-7, 2.9604288e-7
-0.053, 4.4086511e-7, 2.5460150e-7
-0.054, 4.9587845e-7, 2.7008636e-7
-0.055, 4.7636979e-7, 2.4744449e-7
-0.056, 4.8121808e-7, 2.7097687e-7
-0.057, 4.8928212e-7, 2.8751714e-7
-0.058, 4.6025832e-7, 3.0181468e-7
-0.059, 5.1537052e-7, 2.9713129e-7
-0.060, 4.7417655e-7, 2.7551184e-7
-0.061, 5.0193057e-7, 2.8260288e-7
-0.062, 5.1649192e-7, 2.5623410e-7
-0.063, 4.7501754e-7, 2.5052827e-7
-0.064, 5.3758367e-7, 2.9159037e-7
-0.065, 4.8880383e-7, 3.0359567e-7
-0.066, 5.3388976e-7, 3.3816042e-7
-0.067, 5.2732639e-7, 2.9221701e-7
-0.068, 5.3321361e-7, 2.6245112e-7
-0.069, 5.6881726e-7, 2.8921568e-7
-0.070, 5.0702619e-7, 2.5460150e-7
-0.071, 5.6533770e-7, 3.2646841e-7
-0.072, 5.2826636e-7, 3.0783383e-7
-0.073, 5.5011668e-7, 3.2966764e-7
-0.074, 5.7181859e-7, 3.6073629e-7
-0.075, 5.4566419e-7, 2.7575919e-7
-0.076, 5.8919989e-7, 3.2016894e-7
-0.077, 5.3641281e-7, 2.5649794e-7
-0.078, 5.9789056e-7, 3.3817690e-7
-0.079, 5.9264642e-7, 3.3265249e-7
-0.080, 5.8148220e-7, 3.2539651e-7
-0.081, 6.1622831e-7, 3.7493490e-7
-0.082, 5.6974073e-7, 3.2838136e-7
-0.083, 6.3641301e-7, 3.5296915e-7
-0.084, 5.8760031e-7, 2.8052503e-7
-0.085, 6.4589528e-7, 3.0547562e-7
-0.086, 6.3776531e-7, 3.7455558e-7
-0.087, 6.1261682e-7, 3.4782403e-7
-0.088, 6.6934524e-7, 3.8918296e-7
-0.089, 6.1551918e-7, 3.6711828e-7
-0.090, 6.7054901e-7, 3.6137942e-7
-0.091, 6.5768620e-7, 3.4688404e-7
-0.092, 6.5104041e-7, 3.0486547e-7
-0.093, 7.0305236e-7, 3.8288346e-7
-0.094, 6.3388995e-7, 3.6537023e-7
-0.095, 7.1108343e-7, 4.2373119e-7
-0.096, 6.6288078e-7, 3.8392238e-7
-0.097, 7.1452996e-7, 3.6683790e-7
-0.098, 7.3004782e-7, 4.0494814e-7
-0.099, 6.8911766e-7, 3.2371446e-7
-0.100, 7.6273261e-7, 3.8545602e-7
-0.101, 6.9060184e-7, 3.8659391e-7
-0.102, 7.5559205e-7, 4.3877077e-7
-0.103, 7.2696406e-7, 4.3801219e-7
-0.104, 7.4071738e-7, 3.7031748e-7
-0.105, 7.8059213e-7, 4.2326946e-7
-0.106, 7.2970153e-7, 3.5981282e-7
-0.107, 7.9665415e-7, 4.0611900e-7
-0.108, 7.4203666e-7, 4.1497455e-7
-0.109, 7.9015683e-7, 4.3606630e-7
-0.110, 7.9134412e-7, 5.0470101e-7
-0.111, 7.8740288e-7, 4.4251419e-7
-0.112, 8.2511735e-7, 4.3637959e-7
-0.113, 7.7637048e-7, 3.9840131e-7
-0.114, 8.3598468e-7, 3.8669282e-7
-0.115, 8.1268320e-7, 4.5890604e-7
-0.116, 8.2724461e-7, 4.2966786e-7
-0.117, 8.4432907e-7, 4.9553211e-7
-0.118, 7.9977093e-7, 4.7496809e-7
-0.119, 8.7816824e-7, 4.5460195e-7
-0.120, 8.2872879e-7, 4.3347723e-7
-0.121, 8.7797031e-7, 4.1647525e-7
-0.122, 8.7462269e-7, 4.9846750e-7
-0.123, 8.5264048e-7, 4.6611254e-7
-0.124, 9.0564191e-7, 4.8372470e-7
-0.125, 8.6034169e-7, 5.0075971e-7
-0.126, 9.1212280e-7, 4.7612241e-7
-0.127, 8.9536809e-7, 4.7747471e-7
-0.128, 9.0361357e-7, 4.3242181e-7
-0.129, 9.3303311e-7, 5.2826636e-7
-0.130, 8.7717876e-7, 4.8951296e-7
-0.131, 9.4383461e-7, 5.3182839e-7
-0.132, 8.8270320e-7, 5.1843784e-7
-0.133, 9.2971845e-7, 5.0321682e-7
-0.134, 9.4431289e-7, 5.2379733e-7
-0.135, 9.2407856e-7, 4.2905771e-7
-0.136, 9.6340909e-7, 5.1121486e-7
-0.137, 9.0577385e-7, 5.2275846e-7
-0.138, 9.6947770e-7, 5.4586206e-7
-0.139, 9.4655559e-7, 5.5649861e-7
-0.140, 9.6652593e-7, 5.3690758e-7
-0.141, 9.9388421e-7, 5.4332247e-7
-0.142, 9.5481755e-7, 4.7750768e-7
-0.143, 9.9368617e-7, 5.0146878e-7
-0.144, 9.5018356e-7, 5.1551899e-7
-0.145, 9.7099496e-7, 5.5230998e-7
-0.146, 9.8552334e-7, 5.9182196e-7
-0.147, 9.5991311e-7, 5.5324995e-7
-0.148, 1.0178948e-6, 5.4617539e-7
-0.149, 9.6454710e-7, 5.4065094e-7
-0.150, 1.0143327e-6, 4.8662707e-7
-0.151, 9.8031228e-7, 5.2699659e-7
-0.152, 1.0133268e-6, 5.3989237e-7
-0.153, 1.0303453e-6, 5.9483978e-7
-0.154, 9.7013742e-7, 5.7396238e-7
-0.155, 1.0423012e-6, 5.2101041e-7
-0.156, 9.8062549e-7, 5.4426243e-7
-0.157, 1.0352761e-6, 5.2411070e-7
-0.158, 1.0127826e-6, 5.7275855e-7
-0.159, 1.0080662e-6, 5.5204612e-7
-0.160, 1.0658830e-6, 5.9858314e-7
-0.161, 9.9665465e-7, 5.9051911e-7
-0.162, 1.0631786e-6, 5.6480997e-7
-0.163, 1.0234687e-6, 5.4785744e-7
-0.164, 1.0517504e-6, 5.1256711e-7
-0.165, 1.0521296e-6, 5.5206260e-7
-0.166, 1.0304773e-6, 5.6199008e-7
-0.167, 1.0691482e-6, 5.9312470e-7
-0.168, 1.0196593e-6, 6.3717164e-7
-0.169, 1.0832149e-6, 5.8636346e-7
-0.170, 1.0656686e-6, 5.8323019e-7
-0.171, 1.0749364e-6, 5.1668979e-7
-0.172, 1.0884919e-6, 5.2386332e-7
-0.173, 1.0402728e-6, 5.9391624e-7
-0.174, 1.0945440e-6, 5.9375134e-7
-0.175, 1.0604575e-6, 6.3092159e-7
-0.176, 1.1057742e-6, 6.2363267e-7
-0.177, 1.1046529e-6, 6.3059179e-7
-0.178, 1.0903389e-6, 5.9579622e-7
-0.179, 1.1344189e-6, 5.3850715e-7
-0.180, 1.0926641e-6, 6.0625138e-7
-0.181, 1.1456984e-6, 6.2953637e-7
-0.182, 1.1208799e-6, 6.4561493e-7
-0.183, 1.1309062e-6, 6.4505423e-7
-0.184, 1.1681919e-6, 6.4300934e-7
-0.185, 1.1267010e-6, 6.2013663e-7
-0.186, 1.1912462e-6, 5.7394590e-7
-0.187, 1.1393331e-6, 6.4033782e-7
-0.188, 1.1932085e-6, 6.5913736e-7
-0.189, 1.2073081e-6, 7.1462887e-7
-0.190, 1.1911471e-6, 6.6985638e-7
-0.191, 1.2449236e-6, 6.7335247e-7
-0.192, 1.1896960e-6, 6.6730036e-7
-0.193, 1.2694125e-6, 6.2289058e-7
-0.194, 1.2332647e-6, 6.3863934e-7
-0.195, 1.2483208e-6, 6.9009059e-7
-0.196, 1.2841388e-6, 7.4737966e-7
-0.197, 1.2489969e-6, 7.2470482e-7
-0.198, 1.3254153e-6, 7.4234998e-7
-0.199, 1.2655867e-6, 6.9297653e-7
-0.200, 1.3341389e-6, 6.7651865e-7
-0.201, 1.3457154e-6, 6.7872850e-7
-0.202, 1.3305439e-6, 7.1736639e-7
-0.203, 1.3901088e-6, 7.8931578e-7
-0.204, 1.3521303e-6, 8.1474457e-7
-0.205, 1.4152242e-6, 8.1045698e-7
-0.206, 1.4103758e-6, 7.5468506e-7
-0.207, 1.4628002e-6, 7.8413768e-7
-0.208, 1.4880311e-6, 7.5818116e-7
-0.209, 1.4300330e-6, 7.8873859e-7
-0.210, 1.5084631e-6, 7.9828675e-7
-0.211, 1.4717876e-6, 8.7173680e-7
-0.212, 1.5553960e-6, 8.9080015e-7
-0.213, 1.5611183e-6, 8.6118268e-7
-0.214, 1.5580346e-6, 8.3361010e-7
-0.215, 1.6462602e-6, 8.1893324e-7
-0.216, 1.5741459e-6, 8.8135090e-7
-0.217, 1.6731074e-6, 8.9639053e-7
-0.218, 1.6555941e-6, 9.2346846e-7
-0.219, 1.7144993e-6, 9.6095209e-7
-0.220, 1.7474149e-6, 9.7026930e-7
-0.221, 1.7189353e-6, 9.5179962e-7
-0.222, 1.8117785e-6, 9.0851131e-7
-0.223, 1.7636253e-6, 9.8296721e-7
-0.224, 1.8526428e-6, 1.0276904e-6
-0.225, 1.8507462e-6, 1.0704016e-6
-0.226, 1.8757298e-6, 1.0394152e-6
-0.227, 1.9341073e-6, 1.1033171e-6
-0.228, 1.9046711e-6, 1.0735843e-6
-0.229, 2.0106907e-6, 1.0385907e-6
-0.230, 2.0091074e-6, 1.0839240e-6
-0.231, 2.0549355e-6, 1.1583799e-6
-0.232, 2.1072112e-6, 1.2374533e-6
-0.233, 2.1012579e-6, 1.2473973e-6
-0.234, 2.1689693e-6, 1.2120245e-6
-0.235, 2.1542101e-6, 1.2462430e-6
-0.236, 2.2560737e-6, 1.2110515e-6
-0.237, 2.2784188e-6, 1.2091222e-6
-0.238, 2.2961299e-6, 1.2927469e-6
-0.239, 2.3665457e-6, 1.4030541e-6
-0.240, 2.3432276e-6, 1.4300658e-6
-0.241, 2.4483070e-6, 1.4270151e-6
-0.242, 2.4234553e-6, 1.4072426e-6
-0.243, 2.5121428e-6, 1.4044722e-6
-0.244, 2.5766385e-6, 1.4452704e-6
-0.245, 2.5688712e-6, 1.4523285e-6
-0.246, 2.6450753e-6, 1.5256302e-6
-0.247, 2.6211965e-6, 1.5959964e-6
-0.248, 2.7292112e-6, 1.6174179e-6
-0.249, 2.7363189e-6, 1.6127017e-6
-0.250, 2.7572455e-6, 1.6010260e-6
-0.251, 2.8593568e-6, 1.6223157e-6
-0.252, 2.8243962e-6, 1.6430447e-6
-0.253, 2.9035355e-6, 1.7381305e-6
-0.254, 2.8829222e-6, 1.7786321e-6
-0.255, 2.9600164e-6, 1.8307760e-6
-0.256, 3.0289316e-6, 1.8154230e-6
-0.257, 3.0231599e-6, 1.7738167e-6
-0.258, 3.1021341e-6, 1.8103271e-6
-0.259, 3.0718738e-6, 1.8609046e-6
-0.260, 3.1575764e-6, 1.9149120e-6
-0.261, 3.1425368e-6, 1.9442821e-6
-0.262, 3.1767552e-6, 1.9747240e-6
-0.263, 3.2433452e-6, 1.9900936e-6
-0.264, 3.2080220e-6, 1.9388071e-6
-0.265, 3.3080055e-6, 1.8858882e-6
-0.266, 3.2596049e-6, 1.9914623e-6
-0.267, 3.3029924e-6, 2.0440350e-6
-0.268, 3.3511783e-6, 2.0934415e-6
-0.269, 3.2974513e-6, 2.0969046e-6
-0.270, 3.3940873e-6, 2.0756645e-6
-0.271, 3.3373753e-6, 2.0753014e-6
-0.272, 3.4179002e-6, 2.0024452e-6
-0.273, 3.3910367e-6, 2.0299849e-6
-0.274, 3.4049383e-6, 2.0962284e-6
-0.275, 3.4336817e-6, 2.1823598e-6
-0.276, 3.3598196e-6, 2.1509943e-6
-0.277, 3.4328573e-6, 2.1040614e-6
-0.278, 3.3624251e-6, 2.1294409e-6
-0.279, 3.4290642e-6, 2.0654566e-6
-0.280, 3.4168118e-6, 2.0574089e-6
-0.281, 3.3753540e-6, 2.0923530e-6
-0.282, 3.4276297e-6, 2.1867297e-6
-0.283, 3.3394535e-6, 2.1877029e-6
-0.284, 3.3942028e-6, 2.1514065e-6
-0.285, 3.3425868e-6, 2.0998564e-6
-0.286, 3.3544766e-6, 2.0163964e-6
-0.287, 3.3495789e-6, 2.0910504e-6
-0.288, 3.2857924e-6, 2.0681446e-6
-0.289, 3.2806474e-6, 2.0635105e-6
-0.290, 3.2200930e-6, 2.1344706e-6
-0.291, 3.2620128e-6, 2.0556281e-6
-0.292, 3.2341763e-6, 2.0257467e-6
-0.293, 3.1863033e-6, 1.8912311e-6
-0.294, 3.1713462e-6, 1.9198262e-6
-0.295, 3.0860392e-6, 1.9624056e-6
-0.296, 3.1051522e-6, 1.9375043e-6
-0.297, 3.0425035e-6, 1.9809904e-6
-0.298, 3.0181468e-6, 1.9288302e-6
-0.299, 3.0494461e-6, 1.8889884e-6
-0.300, 2.9661510e-6, 1.7722170e-6
-0.301, 2.9542778e-6, 1.7587771e-6
-0.302, 2.8699933e-6, 1.8058747e-6
-0.303, 2.8598349e-6, 1.7608714e-6
-0.304, 2.8161014e-6, 1.8157527e-6
-0.305, 2.7486044e-6, 1.7380150e-6
-0.306, 2.7880835e-6, 1.7368444e-6
-0.307, 2.6847356e-6, 1.6065504e-6
-0.308, 2.6824432e-6, 1.5471505e-6
-0.309, 2.6256985e-6, 1.5945617e-6
-0.310, 2.5818495e-6, 1.5805774e-6
-0.311, 2.5858071e-6, 1.6340076e-6
-0.312, 2.4986698e-6, 1.5344197e-6
-0.313, 2.5257150e-6, 1.5242119e-6
-0.314, 2.4251044e-6, 1.4809896e-6
-0.315, 2.4344217e-6, 1.3713586e-6
-0.316, 2.4004341e-6, 1.4298845e-6
-0.317, 2.3224657e-6, 1.3915269e-6
-0.318, 2.3501043e-6, 1.5013227e-6
-0.319, 2.2556944e-6, 1.3455835e-6
-0.320, 2.2559748e-6, 1.3147293e-6
-0.321, 2.2189363e-6, 1.2914772e-6
-0.322, 2.1899621e-6, 1.2311539e-6
-0.323, 2.1812220e-6, 1.2910649e-6
-0.324, 2.1133128e-6, 1.2171037e-6
-0.325, 2.1278411e-6, 1.2902899e-6
-0.326, 2.0457665e-6, 1.2639871e-6
-0.327, 2.0752354e-6, 1.1900918e-6
-0.328, 2.0405389e-6, 1.1806095e-6
-0.329, 2.0205191e-6, 1.0947255e-6
-0.330, 2.0298528e-6, 1.1882448e-6
-0.331, 1.9143183e-6, 1.1250356e-6
-0.332, 1.9710797e-6, 1.1800653e-6
-0.333, 1.8851790e-6, 1.1481391e-6
-0.334, 1.9095526e-6, 1.1076213e-6
-0.335, 1.8832826e-6, 1.1098475e-6
-0.336, 1.8411981e-6, 9.6293093e-7
-0.337, 1.9065183e-6, 1.0640690e-6
-0.338, 1.7992620e-6, 1.0486501e-6
-0.339, 1.8212443e-6, 1.0838414e-6
-0.340, 1.7845850e-6, 1.0731060e-6
-0.341, 1.7913300e-6, 1.0145637e-6
-0.342, 1.7935397e-6, 1.0571429e-6
-0.343, 1.7420718e-6, 9.3187879e-7
-0.344, 1.7694631e-6, 9.9634121e-7
-0.345, 1.7061715e-6, 1.0090392e-6
-0.346, 1.7267355e-6, 1.0473309e-6
-0.347, 1.7100303e-6, 1.0309390e-6
-0.348, 1.6962604e-6, 9.2470526e-7
-0.349, 1.7114321e-6, 9.9434601e-7
-0.350, 1.6582492e-6, 9.0031534e-7
-0.351, 1.7083481e-6, 9.5562541e-7
-0.352, 1.6565834e-6, 9.7919087e-7
-0.353, 1.6787308e-6, 1.0087424e-6
-0.354, 1.6879820e-6, 1.0615460e-6
-0.355, 1.6571443e-6, 9.3062550e-7
-0.356, 1.6747399e-6, 9.6293093e-7
-0.357, 1.6246079e-6, 8.9691827e-7
-0.358, 1.6792255e-6, 9.6006158e-7
-0.359, 1.6495421e-6, 9.6840586e-7
-0.360, 1.6206172e-6, 9.9284523e-7
-0.361, 1.6674840e-6, 1.0342702e-6
-0.362, 1.6115471e-6, 9.4531879e-7
-0.363, 1.6741958e-6, 9.4681945e-7
-0.364, 1.6077872e-6, 8.7521641e-7
-0.365, 1.6609372e-6, 9.3733718e-7
-0.366, 1.6688693e-6, 9.8491319e-7
-0.367, 1.6361845e-6, 9.5067821e-7
-0.368, 1.6680117e-6, 1.0572913e-6
-0.369, 1.6214087e-6, 9.4954044e-7
-0.370, 1.6743936e-6, 9.6837289e-7
-0.371, 1.6497893e-6, 8.9517022e-7
-0.372, 1.6563692e-6, 9.6279905e-7
-0.373, 1.6727611e-6, 1.0211270e-6
-0.374, 1.6285492e-6, 9.8151600e-7
-0.375, 1.6842057e-6, 1.0239304e-6
-0.376, 1.6374543e-6, 9.6263409e-7
-0.377, 1.6845190e-6, 9.9911176e-7
-0.378, 1.6954854e-6, 9.3273627e-7
-0.379, 1.6706008e-6, 9.4929305e-7
-0.380, 1.7075897e-6, 1.0241118e-6
-0.381, 1.6631139e-6, 1.0263051e-6
-0.382, 1.7240968e-6, 1.0666911e-6
-0.383, 1.6897961e-6, 9.8164799e-7
-0.384, 1.7253501e-6, 1.0046197e-6
-0.385, 1.7528239e-6, 9.7595864e-7
-0.386, 1.6957492e-6, 1.0006949e-6
-0.387, 1.7639388e-6, 1.0042899e-6
-0.388, 1.6964252e-6, 1.0526409e-6
-0.389, 1.7558583e-6, 1.1071265e-6
-0.390, 1.7688035e-6, 1.0422517e-6
-0.391, 1.7502678e-6, 1.0090226e-6
-0.392, 1.8163134e-6, 9.9081683e-7
-0.393, 1.7533187e-6, 1.0017009e-6
-0.394, 1.8091234e-6, 1.0628981e-6
-0.395, 1.7739321e-6, 1.0776739e-6
-0.396, 1.8095852e-6, 1.1332645e-6
-0.397, 1.8350140e-6, 1.0986997e-6
-0.398, 1.8012079e-6, 1.0661963e-6
-0.399, 1.8548194e-6, 1.0199396e-6
-0.400, 1.7911816e-6, 1.0625519e-6
-0.401, 1.8595358e-6, 1.0999200e-6
-0.402, 1.8391203e-6, 1.1455171e-6
-0.403, 1.8547865e-6, 1.1212262e-6
-0.404, 1.8827715e-6, 1.1417408e-6
-0.405, 1.8415608e-6, 1.1009589e-6
-0.406, 1.9057102e-6, 1.0706159e-6
-0.407, 1.8728605e-6, 1.0634424e-6
-0.408, 1.9115644e-6, 1.1354907e-6
-0.409, 1.9216568e-6, 1.1951875e-6
-0.410, 1.9191996e-6, 1.1825225e-6
-0.411, 1.9242623e-6, 1.1433403e-6
-0.412, 1.9020656e-6, 1.1531029e-6
-0.413, 1.9773461e-6, 1.0988975e-6
-0.414, 1.9358554e-6, 1.0977762e-6
-0.415, 1.9390213e-6, 1.1616286e-6
-0.416, 1.9717559e-6, 1.2281690e-6
-0.417, 1.9317492e-6, 1.2393828e-6
-0.418, 1.9904398e-6, 1.2092705e-6
-0.419, 1.9529562e-6, 1.1798345e-6
-0.420, 2.0015216e-6, 1.1469518e-6
-0.421, 2.0060238e-6, 1.1555600e-6
-0.422, 1.9937711e-6, 1.1686207e-6
-0.423, 2.0350476e-6, 1.2259427e-6
-0.424, 1.9827385e-6, 1.2525095e-6
-0.425, 2.0396815e-6, 1.2117771e-6
-0.426, 2.0347341e-6, 1.2019816e-6
-0.427, 2.0111192e-6, 1.1815825e-6
-0.428, 2.0610535e-6, 1.1933899e-6
-0.429, 2.0129005e-6, 1.1981888e-6
-0.430, 2.0574748e-6, 1.2341717e-6
-0.431, 2.0186062e-6, 1.2780042e-6
-0.432, 2.0440680e-6, 1.2733703e-6
-0.433, 2.0696123e-6, 1.2415760e-6
-0.434, 2.0408688e-6, 1.1563186e-6
-0.435, 2.0873563e-6, 1.2015199e-6
-0.436, 2.0339589e-6, 1.2485021e-6
-0.437, 2.0642692e-6, 1.2539276e-6
-0.438, 2.0606742e-6, 1.2695609e-6
-0.439, 2.0700904e-6, 1.2454349e-6
-0.440, 2.0939196e-6, 1.2766520e-6
-0.441, 2.0484381e-6, 1.1940001e-6
-0.442, 2.0956677e-6, 1.1513714e-6
-0.443, 2.0407697e-6, 1.2494256e-6
-0.444, 2.0651762e-6, 1.2671862e-6
-0.445, 2.0738999e-6, 1.3039277e-6
-0.446, 2.0462282e-6, 1.2430767e-6
-0.447, 2.0934581e-6, 1.2523445e-6
-0.448, 2.0271154e-6, 1.2371565e-6
-0.449, 2.0895825e-6, 1.1788616e-6
-0.450, 2.0462942e-6, 1.2374368e-6
-0.451, 2.0576399e-6, 1.2358372e-6
-0.452, 2.0858722e-6, 1.3034000e-6
-0.453, 2.0208818e-6, 1.2534329e-6
-0.454, 2.0793748e-6, 1.2255634e-6
-0.455, 2.0219702e-6, 1.2022290e-6
-0.456, 2.0580851e-6, 1.1776576e-6
-0.457, 2.0363502e-6, 1.2491619e-6
-0.458, 2.0230586e-6, 1.1955337e-6
-0.459, 2.0471023e-6, 1.2775425e-6
-0.460, 1.9897473e-6, 1.2478920e-6
-0.461, 2.0405223e-6, 1.2098807e-6
-0.462, 2.0033026e-6, 1.2045872e-6
-0.463, 2.0180289e-6, 1.1369088e-6
-0.464, 2.0246912e-6, 1.2499698e-6
-0.465, 1.9782037e-6, 1.1948081e-6
-0.466, 1.9923198e-6, 1.2192475e-6
-0.467, 1.9675176e-6, 1.2286308e-6
-0.468, 1.9909839e-6, 1.1894981e-6
-0.469, 1.9689853e-6, 1.1794882e-6
-0.470, 1.9548693e-6, 1.0980566e-6
-0.471, 1.9812874e-6, 1.2263056e-6
-0.472, 1.9008949e-6, 1.1809888e-6
-0.473, 1.9642525e-6, 1.1940660e-6
-0.474, 1.8948426e-6, 1.1987494e-6
-0.475, 1.9245920e-6, 1.1473805e-6
-0.476, 1.9368613e-6, 1.1892013e-6
-0.477, 1.9015049e-6, 1.0469680e-6
-0.478, 1.9231079e-6, 1.1429280e-6
-0.479, 1.8486024e-6, 1.1344189e-6
-0.480, 1.8953540e-6, 1.1578687e-6
-0.481, 1.8622238e-6, 1.1384096e-6
-0.482, 1.8305946e-6, 1.1129972e-6
-0.483, 1.8850142e-6, 1.1435546e-6
-0.484, 1.8144005e-6, 1.0123869e-6
-0.485, 1.8580351e-6, 1.0951871e-6
-0.486, 1.7776755e-6, 1.0872056e-6
-0.487, 1.8094863e-6, 1.1240626e-6
-0.488, 1.8106572e-6, 1.1324069e-6
-0.489, 1.7695126e-6, 1.0335610e-6
-0.490, 1.8002349e-6, 1.0917901e-6
-0.491, 1.7339089e-6, 9.9154249e-7
-0.492, 1.7692487e-6, 1.0280861e-6
-0.493, 1.7217717e-6, 1.0248044e-6
-0.494, 1.7302150e-6, 1.0491779e-6
-0.495, 1.7308087e-6, 1.0784655e-6
-0.496, 1.6718541e-6, 9.8052669e-7
-0.497, 1.7213924e-6, 9.9947454e-7
-0.498, 1.6369759e-6, 9.3177982e-7
-0.499, 1.6722003e-6, 9.9520344e-7
-0.500, 1.6532028e-6, 9.8817827e-7
