Dec. 9, 2005   01:21:04
Square Wave Voltammetry
File: d:\ida_biofilms\11_28_18_blankidapyo\10um_transfer\10um_pyo_transfer_swv2_6.txt
Data Source:  Experiment
Instrument Model:  CHI760B
Header: 
Note: 

Init E (V) = 0.1
Final E (V) = -0.5
Incr E (V) = 0.001
Amplitude (V) = 0.025
Frequency (Hz) = 300
Quiet Time (sec) = 2
Sensitivity (A/V) = 1e-6
Sens 2 (A/V) = 1e-6

Potential/V, i1/A, i2/A

0.099, 1.3469192e-6, 8.5734035e-7
0.098, 1.6947598e-6, 1.4094194e-6
0.097, 1.5146967e-6, 1.0288446e-6
0.096, 1.6237339e-6, 1.1329512e-6
0.095, 1.5596671e-6, 1.2043563e-6
0.094, 1.5311050e-6, 1.1894157e-6
0.093, 1.6756139e-6, 1.3861014e-6
0.092, 1.3840400e-6, 1.2658174e-6
0.091, 1.6400927e-6, 1.3846172e-6
0.090, 1.4011575e-6, 1.0819451e-6
0.089, 1.5356566e-6, 1.1773278e-6
0.088, 1.5181104e-6, 1.1625522e-6
0.087, 1.4662467e-6, 1.1475290e-6
0.086, 1.6677808e-6, 1.3523943e-6
0.085, 1.4543239e-6, 1.1036964e-6
0.084, 1.5803466e-6, 1.3791093e-6
0.083, 1.4983543e-6, 1.1216549e-6
0.082, 1.5147132e-6, 1.1702864e-6
0.081, 1.5936546e-6, 1.1637560e-6
0.080, 1.4150921e-6, 1.1343693e-6
0.079, 1.6087438e-6, 1.3778561e-6
0.078, 1.3794390e-6, 1.0191645e-6
0.077, 1.5120747e-6, 1.2690332e-6
0.076, 1.4700396e-6, 1.1068132e-6
0.075, 1.4118435e-6, 1.0908996e-6
0.074, 1.6629656e-6, 1.2030371e-6
0.073, 1.3581000e-6, 9.1608058e-7
0.072, 1.5361677e-6, 1.2427799e-6
0.071, 1.3693302e-6, 1.0988481e-6
0.070, 1.4436379e-6, 1.1202533e-6
0.069, 1.5375695e-6, 1.2404877e-6
0.068, 1.4473153e-6, 1.0490789e-6
0.067, 1.6138395e-6, 1.2811870e-6
0.066, 1.2804448e-6, 9.6789472e-7
0.065, 1.5191987e-6, 1.0195934e-6
0.064, 1.3976451e-6, 1.1189999e-6
0.063, 1.3581989e-6, 1.0813515e-6
0.062, 1.5403069e-6, 1.3152239e-6
0.061, 1.2665760e-6, 1.0184885e-6
0.060, 1.5771639e-6, 1.1660316e-6
0.059, 1.3396634e-6, 9.5123892e-7
0.058, 1.4323416e-6, 9.7259453e-7
0.057, 1.4786972e-6, 1.1231721e-6
0.056, 1.3729089e-6, 9.9785848e-7
0.055, 1.5946111e-6, 1.2446599e-6
0.054, 1.2176808e-6, 1.0953190e-6
0.053, 1.4461116e-6, 1.0668559e-6
0.052, 1.3486014e-6, 1.0759425e-6
0.051, 1.3507946e-6, 9.9587953e-7
0.050, 1.4722823e-6, 1.1141516e-6
0.049, 1.2639046e-6, 9.0636752e-7
0.048, 1.4790435e-6, 1.1489967e-6
0.047, 1.2788453e-6, 9.6710301e-7
0.046, 1.3445610e-6, 1.1031358e-6
0.045, 1.4071272e-6, 1.0798342e-6
0.044, 1.3308077e-6, 9.8999237e-7
0.043, 1.4913458e-6, 1.1440989e-6
0.042, 1.2702041e-6, 9.2722837e-7
0.041, 1.3270808e-6, 1.0960448e-6
0.040, 1.3219521e-6, 1.0553290e-6
0.039, 1.3001513e-6, 1.0856224e-6
0.038, 1.4626517e-6, 1.1723806e-6
0.037, 1.2744092e-6, 9.1817492e-7
0.036, 1.4065336e-6, 1.1379643e-6
0.035, 1.1705501e-6, 8.8146635e-7
0.034, 1.3297524e-6, 9.9683598e-7
0.033, 1.3710948e-6, 1.0362326e-6
0.032, 1.2328360e-6, 9.8006490e-7
0.031, 1.4600462e-6, 1.2782350e-6
0.030, 1.2596829e-6, 8.8018010e-7
0.029, 1.3769655e-6, 1.0304608e-6
0.028, 1.2993269e-6, 9.3070787e-7
0.027, 1.3000689e-6, 8.8491288e-7
0.026, 1.4002505e-6, 1.1071760e-6
0.025, 1.1444453e-6, 1.0107212e-6
0.024, 1.3973317e-6, 1.1922356e-6
0.023, 1.1455336e-6, 9.2127516e-7
0.022, 1.2881626e-6, 1.0341877e-6
0.021, 1.2985682e-6, 9.3791436e-7
0.020, 1.2273445e-6, 8.4827036e-7
0.019, 1.4337269e-6, 1.0660974e-6
0.018, 1.2175160e-6, 8.0879141e-7
0.017, 1.3266850e-6, 1.1306918e-6
0.016, 1.2581822e-6, 9.9055296e-7
0.015, 1.2742938e-6, 9.9533531e-7
0.014, 1.3584793e-6, 1.0177959e-6
0.013, 1.1780370e-6, 9.2035174e-7
0.012, 1.3771139e-6, 1.0713416e-6
0.011, 1.1596003e-6, 7.3360985e-7
0.010, 1.2605734e-6, 9.7162160e-7
0.009, 1.2284494e-6, 9.4431283e-7
0.008, 1.1826378e-6, 9.8245607e-7
0.007, 1.3971998e-6, 1.0242602e-6
0.006, 1.1293891e-6, 7.9584612e-7
0.005, 1.3059727e-6, 9.9136105e-7
0.004, 1.1448410e-6, 7.9038767e-7
0.003, 1.2518498e-6, 8.6677306e-7
0.002, 1.3135088e-6, 9.8387420e-7
0.001, 1.2297357e-6, 9.1405218e-7
-0.000, 1.3767510e-6, 1.1376180e-6
-0.001, 1.0696924e-6, 8.6368925e-7
-0.002, 1.2947589e-6, 8.3619909e-7
-0.003, 1.1951049e-6, 9.1537152e-7
-0.004, 1.1376675e-6, 7.9314162e-7
-0.005, 1.3137234e-6, 1.0302299e-6
-0.006, 1.0388217e-6, 7.9949058e-7
-0.007, 1.3494258e-6, 9.5989662e-7
-0.008, 1.1110513e-6, 8.1378812e-7
-0.009, 1.1914606e-6, 8.3169709e-7
-0.010, 1.2640365e-6, 9.1116635e-7
-0.011, 1.1621232e-6, 6.8962891e-7
-0.012, 1.3489312e-6, 9.1814195e-7
-0.013, 9.7231418e-7, 8.2839898e-7
-0.014, 1.1911636e-6, 8.8875532e-7
-0.015, 1.1097156e-6, 9.1802656e-7
-0.016, 1.0882115e-6, 8.7693138e-7
-0.017, 1.1913615e-6, 9.4019015e-7
-0.018, 1.0384259e-6, 6.8014663e-7
-0.019, 1.2404051e-6, 8.3542409e-7
-0.020, 1.0596990e-6, 6.4492235e-7
-0.021, 1.1177301e-6, 8.1416738e-7
-0.022, 1.1906855e-6, 8.6016024e-7
-0.023, 1.0689832e-6, 8.3201041e-7
-0.024, 1.2412462e-6, 1.0231719e-6
-0.025, 1.0450055e-6, 7.4286118e-7
-0.026, 1.0667570e-6, 8.5813190e-7
-0.027, 1.0813019e-6, 7.4891329e-7
-0.028, 1.0650750e-6, 7.6342519e-7
-0.029, 1.2078688e-6, 8.9060222e-7
-0.030, 9.9383465e-7, 7.3745218e-7
-0.031, 1.1491616e-6, 9.6580038e-7
-0.032, 8.9228433e-7, 7.6499180e-7
-0.033, 1.0681092e-6, 7.7038430e-7
-0.034, 1.1119912e-6, 8.1749852e-7
-0.035, 9.8046064e-7, 6.4792368e-7
-0.036, 1.1791253e-6, 9.4929305e-7
-0.037, 9.8113674e-7, 6.7490259e-7
-0.038, 1.0833797e-6, 8.2544710e-7
-0.039, 1.0433730e-6, 8.0326697e-7
-0.040, 1.0188512e-6, 7.7379798e-7
-0.041, 1.1404214e-6, 8.4042074e-7
-0.042, 8.8921706e-7, 7.8649589e-7
-0.043, 1.1133436e-6, 8.3192799e-7
-0.044, 9.0204685e-7, 6.3367554e-7
-0.045, 9.9922727e-7, 7.6805918e-7
-0.046, 1.0167900e-6, 7.4164086e-7
-0.047, 9.6304643e-7, 7.5920354e-7
-0.048, 1.1371562e-6, 8.1111665e-7
-0.049, 9.5062876e-7, 5.7937132e-7
-0.050, 1.0540756e-6, 8.4190492e-7
-0.051, 9.6355757e-7, 6.1246840e-7
-0.052, 9.8776604e-7, 7.2681564e-7
-0.053, 1.0595176e-6, 7.6664094e-7
-0.054, 9.0062866e-7, 7.3413753e-7
-0.055, 1.0691977e-6, 9.3953048e-7
-0.056, 8.7830017e-7, 5.4937459e-7
-0.057, 9.9978797e-7, 7.1682217e-7
-0.058, 9.6093561e-7, 6.2201661e-7
-0.059, 8.9713262e-7, 6.1067090e-7
-0.060, 1.0992110e-6, 7.5661455e-7
-0.061, 8.2407837e-7, 5.8421966e-7
-0.062, 9.9683598e-7, 8.3555597e-7
-0.063, 8.4667079e-7, 6.8098768e-7
-0.064, 9.1175997e-7, 6.1875141e-7
-0.065, 1.0016349e-6, 7.1190794e-7
-0.066, 9.4037159e-7, 5.1725050e-7
-0.067, 1.0518659e-6, 6.9523571e-7
-0.068, 7.7374847e-7, 6.1195720e-7
-0.069, 9.4165779e-7, 5.9145913e-7
-0.070, 8.5682910e-7, 6.9296004e-7
-0.071, 8.4640692e-7, 6.3713867e-7
-0.072, 9.6162807e-7, 7.4027207e-7
-0.073, 7.5277217e-7, 5.5608632e-7
-0.074, 1.0324231e-6, 5.9477372e-7
-0.075, 8.1660801e-7, 5.1357307e-7
-0.076, 8.9169066e-7, 6.1354035e-7
-0.077, 9.2965251e-7, 6.6937815e-7
-0.078, 8.5668069e-7, 5.9991891e-7
-0.079, 1.0111667e-6, 7.5625167e-7
-0.080, 6.9495536e-7, 5.3786403e-7
-0.081, 8.7971836e-7, 6.3619865e-7
-0.082, 8.0511393e-7, 5.5463516e-7
-0.083, 8.0298668e-7, 5.5066084e-7
-0.084, 8.8926652e-7, 6.8481359e-7
-0.085, 7.3273577e-7, 4.5018243e-7
-0.086, 8.9427971e-7, 7.3692451e-7
-0.087, 7.4014019e-7, 5.1566741e-7
-0.088, 7.9982044e-7, 5.3915028e-7
-0.089, 8.5184888e-7, 5.9800595e-7
-0.090, 7.5374510e-7, 4.5755380e-7
-0.091, 8.8237334e-7, 7.1885057e-7
-0.092, 7.4660460e-7, 5.5338182e-7
-0.093, 7.3913424e-7, 6.1576657e-7
-0.094, 7.7496878e-7, 6.3929895e-7
-0.095, 7.5344826e-7, 5.6627766e-7
-0.096, 8.7661806e-7, 6.1929558e-7
-0.097, 7.1517314e-7, 4.8858954e-7
-0.098, 8.0305261e-7, 5.6759694e-7
-0.099, 6.0585558e-7, 5.1043980e-7
-0.100, 7.4576360e-7, 5.3552230e-7
-0.101, 7.7366599e-7, 5.7079615e-7
-0.102, 6.8860641e-7, 5.5132051e-7
-0.103, 8.3906855e-7, 6.3735297e-7
-0.104, 7.0084263e-7, 4.3294952e-7
-0.105, 7.9109680e-7, 5.2503412e-7
-0.106, 7.2097788e-7, 4.1258340e-7
-0.107, 7.3410456e-7, 5.1777823e-7
-0.108, 7.9348791e-7, 5.9500462e-7
-0.109, 5.8548949e-7, 5.6269914e-7
-0.110, 7.8138373e-7, 7.1772922e-7
-0.111, 5.9048614e-7, 4.1649173e-7
-0.112, 7.1009396e-7, 5.4559825e-7
-0.113, 7.0188150e-7, 4.7915677e-7
-0.114, 6.5443754e-7, 3.9178846e-7
-0.115, 8.2111001e-7, 5.7953628e-7
-0.116, 6.5003445e-7, 3.7028451e-7
-0.117, 7.2585919e-7, 6.6611301e-7
-0.118, 6.5508061e-7, 5.2445699e-7
-0.119, 6.7778848e-7, 5.0506378e-7
-0.120, 7.4794036e-7, 5.3225716e-7
-0.121, 6.2740912e-7, 4.3200959e-7
-0.122, 7.5730713e-7, 5.5498151e-7
-0.123, 6.1819071e-7, 3.4065050e-7
-0.124, 6.8580300e-7, 4.7219766e-7
-0.125, 6.5425610e-7, 4.8278474e-7
-0.126, 6.1241894e-7, 4.5921939e-7
-0.127, 7.7043376e-7, 4.9013966e-7
-0.128, 5.7135685e-7, 3.7717763e-7
-0.129, 6.9487294e-7, 4.6548587e-7
-0.130, 5.6205602e-7, 3.6390253e-7
-0.131, 6.5811491e-7, 4.2963489e-7
-0.132, 6.8240587e-7, 4.8629727e-7
-0.133, 6.6555231e-7, 4.1411704e-7
-0.134, 7.5577350e-7, 5.7521567e-7
-0.135, 4.9353673e-7, 3.8509324e-7
-0.136, 6.9007410e-7, 3.6545268e-7
-0.137, 5.6469457e-7, 4.1109922e-7
-0.138, 5.7811803e-7, 3.3703901e-7
-0.139, 6.6769610e-7, 5.3441744e-7
-0.140, 4.8674258e-7, 3.6039000e-7
-0.141, 7.2218177e-7, 4.8151497e-7
-0.142, 5.5857646e-7, 3.6319341e-7
-0.143, 6.1921315e-7, 3.9398176e-7
-0.144, 6.4619212e-7, 4.3060783e-7
-0.145, 5.8321370e-7, 3.2364849e-7
-0.146, 7.1660781e-7, 4.2749105e-7
-0.147, 4.6174245e-7, 3.7277459e-7
-0.148, 6.2491893e-7, 4.4629058e-7
-0.149, 5.3514304e-7, 4.4704916e-7
-0.150, 5.5902171e-7, 4.1950949e-7
-0.151, 5.9262993e-7, 4.6141267e-7
-0.152, 5.1266608e-7, 2.7150458e-7
-0.153, 6.1330945e-7, 4.4586182e-7
-0.154, 5.0331579e-7, 2.3675845e-7
-0.155, 5.3690758e-7, 3.9533404e-7
-0.156, 5.7467150e-7, 3.9576278e-7
-0.157, 5.2549592e-7, 3.8055825e-7
-0.158, 6.2881077e-7, 5.5631722e-7
-0.159, 5.2450645e-7, 3.4257994e-7
-0.160, 5.3489566e-7, 3.8893558e-7
-0.161, 5.3530795e-7, 3.8050877e-7
-0.162, 5.3504408e-7, 2.9460821e-7
-0.163, 6.1692094e-7, 4.4973717e-7
-0.164, 4.9030450e-7, 3.3966106e-7
-0.165, 5.6957583e-7, 4.7617192e-7
-0.166, 3.9472383e-7, 4.0953259e-7
-0.167, 5.2882706e-7, 3.7628715e-7
-0.168, 5.4249790e-7, 3.6673896e-7
-0.169, 4.8143249e-7, 2.8822626e-7
-0.170, 5.9591162e-7, 4.2305507e-7
-0.171, 4.9312450e-7, 2.9845054e-7
-0.172, 5.6959232e-7, 3.9070011e-7
-0.173, 4.9632365e-7, 3.4541637e-7
-0.174, 5.2392926e-7, 4.1777798e-7
-0.175, 5.6360614e-7, 4.3194359e-7
-0.176, 4.1335846e-7, 3.8715456e-7
-0.177, 5.7948682e-7, 4.8497799e-7
-0.178, 4.0107281e-7, 2.1413308e-7
-0.179, 5.1807501e-7, 4.1370475e-7
-0.180, 4.7345094e-7, 3.5324950e-7
-0.181, 4.7721085e-7, 3.6248431e-7
-0.182, 5.8875457e-7, 4.8224052e-7
-0.183, 4.6245157e-7, 2.6723345e-7
-0.184, 5.6599731e-7, 4.8247142e-7
-0.185, 4.8275177e-7, 3.2927184e-7
-0.186, 5.1020891e-7, 3.0725661e-7
-0.187, 5.3816086e-7, 3.5338141e-7
-0.188, 4.6520557e-7, 3.2981606e-7
-0.189, 5.4856650e-7, 4.7440739e-7
-0.190, 4.4248122e-7, 2.8515896e-7
-0.191, 5.2140615e-7, 3.7219741e-7
-0.192, 4.5981304e-7, 3.1029094e-7
-0.193, 4.5326621e-7, 3.1405085e-7
-0.194, 5.8562136e-7, 3.3825933e-7
-0.195, 4.1114870e-7, 2.2064694e-7
-0.196, 5.2302227e-7, 4.0209525e-7
-0.197, 4.2340133e-7, 3.1609568e-7
-0.198, 4.9345431e-7, 3.3961157e-7
-0.199, 5.1246820e-7, 3.8527463e-7
-0.200, 5.2806843e-7, 2.8740169e-7
-0.201, 6.0874152e-7, 4.0034723e-7
-0.202, 3.9083201e-7, 2.4617469e-7
-0.203, 5.5397550e-7, 2.4493789e-7
-0.204, 4.3448318e-7, 3.4881344e-7
-0.205, 4.5392582e-7, 3.3327910e-7
-0.206, 5.2815096e-7, 4.4845089e-7
-0.207, 3.7942036e-7, 3.1071971e-7
-0.208, 6.0130412e-7, 3.6132997e-7
-0.209, 4.1543629e-7, 2.4099660e-7
-0.210, 5.0484942e-7, 2.6451249e-7
-0.211, 5.2534745e-7, 2.9015570e-7
-0.212, 4.7534738e-7, 2.9127705e-7
-0.213, 5.8443402e-7, 4.1599699e-7
-0.214, 3.6622777e-7, 3.1804163e-7
-0.215, 5.1484284e-7, 4.0590461e-7
-0.216, 4.3062434e-7, 3.1640900e-7
-0.217, 4.7076293e-7, 3.2856278e-7
-0.218, 5.1352362e-7, 3.4945657e-7
-0.219, 4.3062431e-7, 2.1381975e-7
-0.220, 5.5565761e-7, 3.9013941e-7
-0.221, 4.1370475e-7, 2.5687723e-7
-0.222, 4.8069040e-7, 3.7755694e-7
-0.223, 5.0428878e-7, 3.5272177e-7
-0.224, 4.5598716e-7, 2.9526780e-7
-0.225, 5.4955603e-7, 4.3560453e-7
-0.226, 4.4485589e-7, 2.5603617e-7
-0.227, 4.7508354e-7, 3.0874079e-7
-0.228, 4.6700302e-7, 3.4060105e-7
-0.229, 4.7302217e-7, 3.3253704e-7
-0.230, 5.5262325e-7, 3.8400481e-7
-0.231, 4.4492185e-7, 3.1431472e-7
-0.232, 5.2383035e-7, 4.0206226e-7
-0.233, 3.6838804e-7, 2.9972034e-7
-0.234, 5.0359614e-7, 3.0240835e-7
-0.235, 4.8962841e-7, 2.7660025e-7
-0.236, 4.5504723e-7, 3.1753041e-7
-0.237, 5.7044986e-7, 4.6307821e-7
-0.238, 4.8731971e-7, 2.8517545e-7
-0.239, 5.4978688e-7, 4.1611241e-7
-0.240, 4.8014624e-7, 2.9007322e-7
-0.241, 5.3355990e-7, 3.3875406e-7
-0.242, 5.4718134e-7, 3.2234570e-7
-0.243, 4.1868498e-7, 3.2130680e-7
-0.244, 5.8060817e-7, 4.6695357e-7
-0.245, 4.0700951e-7, 2.5024792e-7
-0.246, 5.3138314e-7, 4.1118167e-7
-0.247, 4.9736263e-7, 3.4198627e-7
-0.248, 4.9403150e-7, 3.0877379e-7
-0.249, 6.2351728e-7, 4.0816386e-7
-0.250, 4.9055194e-7, 2.0720692e-7
-0.251, 5.8948024e-7, 4.5103991e-7
-0.252, 4.9291009e-7, 3.3918280e-7
-0.253, 5.3605004e-7, 3.7389597e-7
-0.254, 5.5888978e-7, 4.4693371e-7
-0.255, 4.9894572e-7, 3.8895206e-7
-0.256, 6.1302910e-7, 4.7569367e-7
-0.257, 4.9663697e-7, 2.3144841e-7
-0.258, 5.8819393e-7, 3.2346708e-7
-0.259, 5.4173938e-7, 2.8651118e-7
-0.260, 5.2485279e-7, 3.5422244e-7
-0.261, 6.5892300e-7, 3.9793957e-7
-0.262, 4.9119501e-7, 3.0110556e-7
-0.263, 6.1164383e-7, 4.6185789e-7
-0.264, 4.9256380e-7, 3.3631343e-7
-0.265, 5.8807848e-7, 3.5498101e-7
-0.266, 5.9541685e-7, 3.3962809e-7
-0.267, 6.1589850e-7, 2.8860552e-7
-0.268, 6.9371856e-7, 4.6677218e-7
-0.269, 4.7968445e-7, 3.4831874e-7
-0.270, 6.5235969e-7, 3.5305163e-7
-0.271, 5.3647881e-7, 4.0697651e-7
-0.272, 5.6375455e-7, 3.6795927e-7
-0.273, 6.3598429e-7, 4.6880055e-7
-0.274, 4.9056837e-7, 2.7689708e-7
-0.275, 7.1481031e-7, 3.6471059e-7
-0.276, 5.2866216e-7, 2.8717085e-7
-0.277, 6.2190117e-7, 3.7795269e-7
-0.278, 6.3606672e-7, 4.3913357e-7
-0.279, 6.0120522e-7, 3.7133989e-7
-0.280, 7.2338554e-7, 4.6500764e-7
-0.281, 4.9709877e-7, 3.4851661e-7
-0.282, 6.7308861e-7, 3.6822314e-7
-0.283, 5.7737600e-7, 3.6685438e-7
-0.284, 6.0255746e-7, 3.9462492e-7
-0.285, 6.4947380e-7, 4.5544300e-7
-0.286, 5.4782447e-7, 3.5752061e-7
-0.287, 6.9068426e-7, 4.9353673e-7
-0.288, 5.6738259e-7, 3.0611875e-7
-0.289, 6.2310494e-7, 3.9399825e-7
-0.290, 6.6052257e-7, 3.2035035e-7
-0.291, 6.1238597e-7, 3.2508319e-7
-0.292, 7.1248513e-7, 5.2429209e-7
-0.293, 5.9502111e-7, 3.7991509e-7
-0.294, 6.0999480e-7, 4.8478012e-7
-0.295, 6.2294009e-7, 4.1913023e-7
-0.296, 6.3072372e-7, 3.9276142e-7
-0.297, 7.3090530e-7, 4.4559798e-7
-0.298, 6.0008381e-7, 3.0009963e-7
-0.299, 6.8844156e-7, 4.5575632e-7
-0.300, 5.2467135e-7, 3.8601672e-7
-0.301, 6.4775872e-7, 4.4784070e-7
-0.302, 6.5621850e-7, 4.6962509e-7
-0.303, 5.9944068e-7, 4.1391914e-7
-0.304, 7.4731372e-7, 5.3824328e-7
-0.305, 6.1119863e-7, 3.4322306e-7
-0.306, 7.2716193e-7, 4.0570671e-7
-0.307, 6.3679232e-7, 3.2397830e-7
-0.308, 6.8309851e-7, 4.4323980e-7
-0.309, 7.1546992e-7, 4.9492201e-7
-0.310, 5.6678886e-7, 5.1698663e-7
-0.311, 7.4401555e-7, 5.6855339e-7
-0.312, 5.6583247e-7, 3.2359901e-7
-0.313, 6.9173973e-7, 4.8697342e-7
-0.314, 6.4431219e-7, 3.2725995e-7
-0.315, 6.5438803e-7, 3.7541312e-7
-0.316, 7.7402876e-7, 4.9581251e-7
-0.317, 6.2348425e-7, 3.2043278e-7
-0.318, 7.3652870e-7, 6.1383713e-7
-0.319, 6.3703970e-7, 4.2707879e-7
-0.320, 7.0549305e-7, 4.2620476e-7
-0.321, 7.1297984e-7, 4.7602350e-7
-0.322, 6.4516968e-7, 3.6423236e-7
-0.323, 7.6047331e-7, 5.6596434e-7
-0.324, 6.0854359e-7, 3.0174871e-7
-0.325, 6.9907810e-7, 4.5757031e-7
-0.326, 6.6588211e-7, 4.7801888e-7
-0.327, 6.3135036e-7, 4.4446011e-7
-0.328, 7.9390020e-7, 4.7937112e-7
-0.329, 6.1680544e-7, 3.4718084e-7
-0.330, 7.4164086e-7, 4.5814747e-7
-0.331, 6.0643276e-7, 4.0798244e-7
-0.332, 6.6911429e-7, 4.2501745e-7
-0.333, 7.2816783e-7, 4.7948657e-7
-0.334, 7.1514017e-7, 4.7191730e-7
-0.335, 8.1255132e-7, 5.3555527e-7
-0.336, 5.5860943e-7, 3.9017237e-7
-0.337, 7.6162769e-7, 3.8944680e-7
-0.338, 6.2793674e-7, 3.7061429e-7
-0.339, 6.5607009e-7, 4.1294618e-7
-0.340, 7.5646608e-7, 5.4685148e-7
-0.341, 5.4637326e-7, 4.0699302e-7
-0.342, 8.3197750e-7, 5.4404808e-7
-0.343, 6.1649217e-7, 3.4775803e-7
-0.344, 7.1817442e-7, 4.2188421e-7
-0.345, 7.2871205e-7, 4.6670621e-7
-0.346, 6.8356030e-7, 3.0070976e-7
-0.347, 8.2358366e-7, 5.0920301e-7
-0.348, 5.5209557e-7, 4.0867508e-7
-0.349, 7.3979390e-7, 4.8250439e-7
-0.350, 6.3111952e-7, 5.0639960e-7
-0.351, 6.7984979e-7, 4.5237567e-7
-0.352, 7.3859007e-7, 4.9930856e-7
-0.353, 6.3669341e-7, 3.1098355e-7
-0.354, 7.7424318e-7, 4.5973059e-7
-0.355, 6.2727719e-7, 3.6226993e-7
-0.356, 6.8948043e-7, 4.4531762e-7
-0.357, 7.1799309e-7, 4.6558483e-7
-0.358, 6.5748827e-7, 4.9564755e-7
-0.359, 7.8855714e-7, 5.6342475e-7
-0.360, 6.4998494e-7, 4.0933469e-7
-0.361, 7.0194750e-7, 4.5766927e-7
-0.362, 6.7890983e-7, 3.8436764e-7
-0.363, 7.0679584e-7, 4.7435793e-7
-0.364, 7.8001494e-7, 4.9520236e-7
-0.365, 6.6063802e-7, 4.1591454e-7
-0.366, 7.5692782e-7, 5.9614251e-7
-0.367, 5.6875132e-7, 4.4320680e-7
-0.368, 7.3961252e-7, 4.9035401e-7
-0.369, 7.2602410e-7, 4.6817388e-7
-0.370, 6.7531482e-7, 3.6504042e-7
-0.371, 8.0813180e-7, 6.2099411e-7
-0.372, 6.6612949e-7, 3.8971066e-7
-0.373, 7.9708292e-7, 5.5145244e-7
-0.374, 6.9660450e-7, 4.7923925e-7
-0.375, 7.4777540e-7, 4.6589815e-7
-0.376, 7.9770962e-7, 5.3344445e-7
-0.377, 6.1330945e-7, 4.4714810e-7
-0.378, 8.3001510e-7, 5.5044649e-7
-0.379, 6.2350074e-7, 3.9033733e-7
-0.380, 7.4178928e-7, 5.4963846e-7
-0.381, 7.2256103e-7, 4.8883686e-7
-0.382, 7.3055912e-7, 4.8934805e-7
-0.383, 8.8920058e-7, 5.7247820e-7
-0.384, 7.3120219e-7, 3.5324950e-7
-0.385, 8.4790764e-7, 5.7628756e-7
-0.386, 7.3121862e-7, 3.9505366e-7
-0.387, 8.0821422e-7, 5.2239568e-7
-0.388, 8.0743916e-7, 5.7350064e-7
-0.389, 7.2876156e-7, 5.6418332e-7
-0.390, 8.8187869e-7, 6.9324034e-7
-0.391, 7.0054580e-7, 3.7331878e-7
-0.392, 8.3986004e-7, 5.3760016e-7
-0.393, 7.6020950e-7, 4.2333539e-7
-0.394, 7.5448719e-7, 4.9604336e-7
-0.395, 9.3669411e-7, 5.8788061e-7
-0.396, 7.1697059e-7, 4.4597726e-7
-0.397, 8.6289776e-7, 6.7430892e-7
-0.398, 7.3929914e-7, 4.8835864e-7
-0.399, 8.3243918e-7, 5.1091803e-7
-0.400, 8.9150927e-7, 5.5908771e-7
-0.401, 8.6692154e-7, 4.1391911e-7
-0.402, 9.7482075e-7, 6.4139329e-7
-0.403, 7.0671331e-7, 4.8050902e-7
-0.404, 9.1893355e-7, 5.0798269e-7
-0.405, 7.8814492e-7, 5.6957583e-7
-0.406, 7.8835927e-7, 5.2928880e-7
-0.407, 9.5374560e-7, 6.4220131e-7
-0.408, 7.2655178e-7, 4.0864211e-7
-0.409, 1.0219680e-6, 5.2567731e-7
-0.410, 7.7266009e-7, 4.2599041e-7
-0.411, 8.8336287e-7, 5.5311801e-7
-0.412, 9.1700406e-7, 6.0475071e-7
-0.413, 8.6279880e-7, 5.3187784e-7
-0.414, 1.0466382e-6, 6.4411427e-7
-0.415, 7.1495867e-7, 5.3032772e-7
-0.416, 9.6896656e-7, 5.0636658e-7
-0.417, 8.1622875e-7, 5.4973736e-7
-0.418, 8.4357049e-7, 5.7270910e-7
-0.419, 9.3656212e-7, 6.5059510e-7
-0.420, 8.0681252e-7, 5.0234280e-7
-0.421, 1.0079839e-6, 6.5905493e-7
-0.422, 8.2470501e-7, 4.5907098e-7
-0.423, 9.1899938e-7, 5.6542018e-7
-0.424, 9.5023302e-7, 4.8060792e-7
-0.425, 8.9256463e-7, 5.3928221e-7
-0.426, 1.0173012e-6, 7.2257751e-7
-0.427, 8.4442803e-7, 5.8539047e-7
-0.428, 9.2572765e-7, 6.8052600e-7
-0.429, 8.7764050e-7, 5.6997158e-7
-0.430, 9.0631806e-7, 6.0306866e-7
-0.431, 1.0273440e-6, 5.5776843e-7
-0.432, 8.6276583e-7, 4.4581233e-7
-0.433, 9.9310910e-7, 7.0146928e-7
-0.434, 7.4205315e-7, 5.7135685e-7
-0.435, 9.4398303e-7, 6.9571399e-7
-0.436, 9.4205359e-7, 6.3849092e-7
-0.437, 8.6766357e-7, 5.5752105e-7
-0.438, 1.0660809e-6, 7.6068773e-7
-0.439, 8.8643009e-7, 4.0705896e-7
-0.440, 1.0290590e-6, 6.3494537e-7
-0.441, 9.2068149e-7, 5.5414046e-7
-0.442, 9.6707015e-7, 6.3262019e-7
-0.443, 1.0228915e-6, 7.4553270e-7
-0.444, 8.1959291e-7, 6.2592488e-7
-0.445, 1.0650585e-6, 7.7679920e-7
-0.446, 8.1157839e-7, 4.4073317e-7
-0.447, 9.7045074e-7, 6.0672966e-7
-0.448, 9.4878180e-7, 6.1743214e-7
-0.449, 9.1260097e-7, 6.0169992e-7
-0.450, 1.1198738e-6, 7.5674643e-7
-0.451, 9.0089253e-7, 5.2097744e-7
-0.452, 1.0705829e-6, 7.8801304e-7
-0.453, 9.3651261e-7, 5.8024540e-7
-0.454, 9.8839269e-7, 5.7331926e-7
-0.455, 1.0371231e-6, 6.9978722e-7
-0.456, 9.0910498e-7, 6.0928568e-7
-0.457, 1.0737656e-6, 8.5422357e-7
-0.458, 8.9213597e-7, 5.5003420e-7
-0.459, 1.0227760e-6, 6.6881745e-7
-0.460, 9.7292445e-7, 6.0260692e-7
-0.461, 9.3829368e-7, 5.6372164e-7
-0.462, 1.1614802e-6, 6.6319410e-7
-0.463, 8.8799675e-7, 5.3088843e-7
-0.464, 1.0507609e-6, 7.7333618e-7
-0.465, 9.0616959e-7, 6.7726080e-7
-0.466, 1.0106718e-6, 6.6354045e-7
-0.467, 1.0819285e-6, 6.9597786e-7
-0.468, 1.0427959e-6, 6.0757066e-7
-0.469, 1.1508437e-6, 7.0313484e-7
-0.470, 8.6421699e-7, 5.9482329e-7
-0.471, 1.0925816e-6, 6.1454625e-7
-0.472, 9.5907217e-7, 6.9467507e-7
-0.473, 9.4807268e-7, 7.3111977e-7
-0.474, 1.1201872e-6, 7.4630771e-7
-0.475, 8.7452372e-7, 5.8351054e-7
-0.476, 1.1807909e-6, 6.5158463e-7
-0.477, 9.3519338e-7, 4.7930519e-7
-0.478, 1.0427630e-6, 6.5306875e-7
-0.479, 1.0791912e-6, 7.1068769e-7
-0.480, 1.0056586e-6, 6.1970786e-7
-0.481, 1.2052798e-6, 8.1548666e-7
-0.482, 8.3229082e-7, 6.3176259e-7
-0.483, 1.0849958e-6, 6.9197057e-7
-0.484, 9.7081352e-7, 6.2707926e-7
-0.485, 9.8222517e-7, 6.6469477e-7
-0.486, 1.0767175e-6, 7.7788764e-7
-0.487, 9.2402911e-7, 5.6965825e-7
-0.488, 1.1358865e-6, 8.3494581e-7
-0.489, 9.7084649e-7, 6.0648222e-7
-0.490, 1.0367272e-6, 6.6258394e-7
-0.491, 1.1001014e-6, 6.4457601e-7
-0.492, 9.9246597e-7, 5.7907454e-7
-0.493, 1.1699069e-6, 8.5156859e-7
-0.494, 9.6438214e-7, 6.3778180e-7
-0.495, 1.0228091e-6, 7.8156512e-7
-0.496, 1.0407346e-6, 7.4759407e-7
-0.497, 1.0202365e-6, 6.6492566e-7
-0.498, 1.1810713e-6, 8.1532181e-7
-0.499, 9.8619944e-7, 5.5315098e-7
-0.500, 1.1052136e-6, 8.0018322e-7
