Dec. 9, 2005   01:20:38
Square Wave Voltammetry
File: d:\ida_biofilms\11_28_18_blankidapyo\10um_transfer\10um_pyo_transfer_swv2_3.txt
Data Source:  Experiment
Instrument Model:  CHI760B
Header: 
Note: 

Init E (V) = 0.1
Final E (V) = -0.5
Incr E (V) = 0.001
Amplitude (V) = 0.025
Frequency (Hz) = 300
Quiet Time (sec) = 2
Sensitivity (A/V) = 1e-6
Sens 2 (A/V) = 1e-6

Potential/V, i1/A, i2/A

0.099, 1.3935223e-6, 9.4244933e-7
0.098, 1.5090733e-6, 1.2318465e-6
0.097, 1.6670881e-6, 1.3253988e-6
0.096, 1.4279881e-6, 1.1887065e-6
0.095, 1.6446112e-6, 1.2833966e-6
0.094, 1.3831166e-6, 1.0830499e-6
0.093, 1.5417581e-6, 1.2441815e-6
0.092, 1.5419396e-6, 1.2236011e-6
0.091, 1.4530540e-6, 1.1645971e-6
0.090, 1.6612339e-6, 1.3424337e-6
0.089, 1.4577045e-6, 1.0245901e-6
0.088, 1.5812536e-6, 1.2351941e-6
0.087, 1.4895977e-6, 1.1263053e-6
0.086, 1.4941986e-6, 1.1753324e-6
0.085, 1.6010920e-6, 1.2957319e-6
0.084, 1.3854088e-6, 1.1811372e-6
0.083, 1.5744758e-6, 1.3565829e-6
0.082, 1.3848812e-6, 9.8065857e-7
0.081, 1.4847164e-6, 1.1006952e-6
0.080, 1.4706333e-6, 1.1040922e-6
0.079, 1.4096008e-6, 1.0617439e-6
0.078, 1.6333645e-6, 1.2734693e-6
0.077, 1.3550327e-6, 1.0373374e-6
0.076, 1.4961774e-6, 1.2584461e-6
0.075, 1.4041589e-6, 1.1069781e-6
0.074, 1.4338918e-6, 1.0327200e-6
0.073, 1.5392186e-6, 1.1956492e-6
0.072, 1.4306431e-6, 1.0503157e-6
0.071, 1.5872893e-6, 1.3076382e-6
0.070, 1.2925987e-6, 1.0514536e-6
0.069, 1.4798682e-6, 1.0283665e-6
0.068, 1.4237335e-6, 1.1124696e-6
0.067, 1.3369918e-6, 9.9657223e-7
0.066, 1.5566328e-6, 1.1904710e-6
0.065, 1.2646797e-6, 9.8958003e-7
0.064, 1.5416756e-6, 1.1639868e-6
0.063, 1.3004977e-6, 1.0565492e-6
0.062, 1.4206496e-6, 1.0328025e-6
0.061, 1.4673845e-6, 1.1563516e-6
0.060, 1.3874042e-6, 8.9622563e-7
0.059, 1.5903071e-6, 1.1735020e-6
0.058, 1.2009261e-6, 9.9274632e-7
0.057, 1.4509268e-6, 1.0807908e-6
0.056, 1.3288784e-6, 1.1574070e-6
0.055, 1.3094193e-6, 1.0193954e-6
0.054, 1.4775264e-6, 1.1896630e-6
0.053, 1.2118267e-6, 8.5898944e-7
0.052, 1.5236842e-6, 1.1006621e-6
0.051, 1.2867279e-6, 9.3027916e-7
0.050, 1.3489971e-6, 1.0575882e-6
0.049, 1.4186213e-6, 1.1532843e-6
0.048, 1.3080339e-6, 9.6692179e-7
0.047, 1.4945449e-6, 1.1962263e-6
0.046, 1.2143828e-6, 8.9131140e-7
0.045, 1.3300327e-6, 1.0767504e-6
0.044, 1.3252009e-6, 1.0473143e-6
0.043, 1.2808406e-6, 1.0693296e-6
0.042, 1.4591722e-6, 1.2089407e-6
0.041, 1.2280041e-6, 8.3626509e-7
0.040, 1.3794556e-6, 1.1192802e-6
0.039, 1.2174005e-6, 8.6286474e-7
0.038, 1.3116619e-6, 9.4292761e-7
0.037, 1.3696272e-6, 1.0391020e-6
0.036, 1.2127666e-6, 9.5516384e-7
0.035, 1.4292248e-6, 1.2549501e-6
0.034, 1.2190330e-6, 9.0244265e-7
0.033, 1.3222161e-6, 1.0032179e-6
0.032, 1.2774930e-6, 9.0245919e-7
0.031, 1.2731559e-6, 9.4909512e-7
0.030, 1.4315666e-6, 1.0842867e-6
0.029, 1.1659656e-6, 9.8450084e-7
0.028, 1.3690499e-6, 1.2067310e-6
0.027, 1.0976113e-6, 9.2048361e-7
0.026, 1.2867773e-6, 9.9571469e-7
0.025, 1.2931428e-6, 9.1969207e-7
0.024, 1.1973477e-6, 8.6538785e-7
0.023, 1.4049175e-6, 1.1326213e-6
0.022, 1.1995739e-6, 8.3888710e-7
0.021, 1.3361014e-6, 1.1192802e-6
0.020, 1.2484362e-6, 8.7312202e-7
0.019, 1.2815168e-6, 9.3520987e-7
0.018, 1.3543731e-6, 9.3283523e-7
0.017, 1.0930105e-6, 9.0181601e-7
0.016, 1.3439510e-6, 1.1283996e-6
0.015, 1.1166417e-6, 8.0692791e-7
0.014, 1.2412463e-6, 1.0699727e-6
0.013, 1.2181097e-6, 8.9253172e-7
0.012, 1.2055931e-6, 8.8555612e-7
0.011, 1.3915103e-6, 9.6812551e-7
0.010, 1.1603754e-6, 7.1967509e-7
0.009, 1.2646632e-6, 1.0857216e-6
0.008, 1.1716550e-6, 9.6540452e-7
0.007, 1.2085449e-6, 9.6997246e-7
0.006, 1.2770147e-6, 9.8567170e-7
0.005, 1.1883108e-6, 8.6378822e-7
0.004, 1.3204185e-6, 9.9632484e-7
0.003, 1.1152730e-6, 7.3102080e-7
0.002, 1.2459296e-6, 8.6372228e-7
0.001, 1.2009261e-6, 9.2531548e-7
-0.000, 1.1374201e-6, 9.3229107e-7
-0.001, 1.3439179e-6, 9.8816190e-7
-0.002, 1.0862821e-6, 7.7112645e-7
-0.003, 1.2851448e-6, 8.8298356e-7
-0.004, 1.0626673e-6, 8.0283826e-7
-0.005, 1.1596496e-6, 8.5297023e-7
-0.006, 1.2421202e-6, 9.5996256e-7
-0.007, 1.1736669e-6, 8.5349797e-7
-0.008, 1.3240301e-6, 9.7614009e-7
-0.009, 9.8986038e-7, 7.8428604e-7
-0.010, 1.2320774e-6, 7.3222463e-7
-0.011, 1.1050818e-6, 8.6532191e-7
-0.012, 1.0714075e-6, 8.3786466e-7
-0.013, 1.2235186e-6, 9.9647320e-7
-0.014, 9.9469230e-7, 7.9988638e-7
-0.015, 1.2781196e-6, 8.8070783e-7
-0.016, 1.0997387e-6, 7.0234330e-7
-0.017, 1.1392835e-6, 7.1822393e-7
-0.018, 1.2042244e-6, 8.8110357e-7
-0.019, 1.0914273e-6, 7.5644959e-7
-0.020, 1.2865960e-6, 9.9799036e-7
-0.021, 9.5938537e-7, 7.8540745e-7
-0.022, 1.1072749e-6, 8.4678629e-7
-0.023, 1.0634094e-6, 8.1739961e-7
-0.024, 1.0477926e-6, 7.1499170e-7
-0.025, 1.1973641e-6, 9.2454036e-7
-0.026, 9.8948112e-7, 6.1995519e-7
-0.027, 1.1462098e-6, 9.0757135e-7
-0.028, 9.9973840e-7, 7.4437833e-7
-0.029, 1.0395967e-6, 7.4606044e-7
-0.030, 1.1380303e-6, 8.2048336e-7
-0.031, 9.9756164e-7, 6.5565780e-7
-0.032, 1.1624037e-6, 9.4200414e-7
-0.033, 9.6937879e-7, 7.0329975e-7
-0.034, 1.0283335e-6, 8.3209295e-7
-0.035, 1.0231224e-6, 8.0001826e-7
-0.036, 1.0136731e-6, 7.2467185e-7
-0.037, 1.1531029e-6, 7.9462586e-7
-0.038, 9.5351470e-7, 5.9142616e-7
-0.039, 1.1038449e-6, 8.6169393e-7
-0.040, 8.4891349e-7, 7.1725094e-7
-0.041, 1.0060874e-6, 7.8509413e-7
-0.042, 1.0347319e-6, 8.0283820e-7
-0.043, 9.3552319e-7, 6.7325351e-7
-0.044, 1.1240131e-6, 8.9225136e-7
-0.045, 9.4482402e-7, 5.5178225e-7
-0.046, 1.0687854e-6, 7.5917058e-7
-0.047, 9.4896325e-7, 6.9202008e-7
-0.048, 9.8263740e-7, 7.5824710e-7
-0.049, 1.0424167e-6, 8.1548671e-7
-0.050, 8.1575052e-7, 7.3641331e-7
-0.051, 1.0566646e-6, 8.3293395e-7
-0.052, 8.2429278e-7, 4.8077288e-7
-0.053, 9.5013405e-7, 7.4371872e-7
-0.054, 9.2985033e-7, 6.8324687e-7
-0.055, 8.7454026e-7, 6.9218493e-7
-0.056, 1.0781687e-6, 8.1555265e-7
-0.057, 8.9723159e-7, 5.4864898e-7
-0.058, 9.9632484e-7, 8.3722153e-7
-0.059, 9.0760432e-7, 5.8985950e-7
-0.060, 9.3008123e-7, 6.7861299e-7
-0.061, 9.8738678e-7, 7.4300965e-7
-0.062, 8.5800002e-7, 6.7262687e-7
-0.063, 9.8591909e-7, 8.7523284e-7
-0.064, 8.3855730e-7, 5.0743847e-7
-0.065, 9.4122902e-7, 6.2137343e-7
-0.066, 9.0247568e-7, 5.4742861e-7
-0.067, 8.7129155e-7, 6.1085228e-7
-0.068, 1.0009093e-6, 7.2353396e-7
-0.069, 8.0239295e-7, 5.6584889e-7
-0.070, 9.1319470e-7, 7.6553602e-7
-0.071, 7.8464888e-7, 6.1665708e-7
-0.072, 8.7104422e-7, 5.9018930e-7
-0.073, 9.2401262e-7, 5.9884701e-7
-0.074, 9.0089259e-7, 5.8560488e-7
-0.075, 9.9218562e-7, 7.1283142e-7
-0.076, 7.2040069e-7, 5.9388327e-7
-0.077, 9.1380485e-7, 5.8999143e-7
-0.078, 8.0339896e-7, 6.0950003e-7
-0.079, 8.0664762e-7, 5.3938118e-7
-0.080, 9.0983053e-7, 6.3252122e-7
-0.081, 7.2498517e-7, 5.3543988e-7
-0.082, 9.5072778e-7, 6.3664390e-7
-0.083, 7.6682238e-7, 4.9830260e-7
-0.084, 8.3168067e-7, 5.8125130e-7
-0.085, 8.8036148e-7, 5.9996842e-7
-0.086, 8.0979731e-7, 4.9479002e-7
-0.087, 9.6744941e-7, 5.8989252e-7
-0.088, 6.5872507e-7, 5.3760016e-7
-0.089, 8.2450714e-7, 5.7419322e-7
-0.090, 7.2965202e-7, 5.9503765e-7
-0.091, 7.4586251e-7, 5.5043000e-7
-0.092, 8.3499526e-7, 6.2112611e-7
-0.093, 6.8609984e-7, 4.3187762e-7
-0.094, 8.4980400e-7, 5.5054545e-7
-0.095, 7.1114937e-7, 4.6701953e-7
-0.096, 7.4663757e-7, 5.4563117e-7
-0.097, 7.9851759e-7, 5.9581271e-7
-0.098, 7.2061505e-7, 5.1413377e-7
-0.099, 8.4335613e-7, 6.5602057e-7
-0.100, 6.8995871e-7, 4.8860596e-7
-0.101, 7.1791055e-7, 4.7928864e-7
-0.102, 7.0757085e-7, 5.3677564e-7
-0.103, 6.9851740e-7, 4.9785734e-7
-0.104, 8.0412451e-7, 6.3679238e-7
-0.105, 6.7351732e-7, 4.5644893e-7
-0.106, 7.5499838e-7, 5.8341163e-7
-0.107, 5.7632059e-7, 4.6035723e-7
-0.108, 7.0166720e-7, 4.4548256e-7
-0.109, 7.5165076e-7, 5.0852691e-7
-0.110, 6.4084907e-7, 4.6583216e-7
-0.111, 7.6109995e-7, 6.6570072e-7
-0.112, 6.6395273e-7, 4.4723060e-7
-0.113, 7.1612959e-7, 4.8880383e-7
-0.114, 6.6731684e-7, 4.6881701e-7
-0.115, 6.7923963e-7, 4.1576610e-7
-0.116, 7.6583285e-7, 5.2082902e-7
-0.117, 5.7101056e-7, 5.0981316e-7
-0.118, 7.2698049e-7, 6.3893617e-7
-0.119, 5.4429540e-7, 4.4114546e-7
-0.120, 6.6166047e-7, 5.0700976e-7
-0.121, 6.3580285e-7, 4.6418313e-7
-0.122, 6.1617880e-7, 3.5277122e-7
-0.123, 7.6932895e-7, 4.9119501e-7
-0.124, 6.1937806e-7, 3.6573300e-7
-0.125, 7.0511373e-7, 5.9160755e-7
-0.126, 6.3199349e-7, 4.8824319e-7
-0.127, 6.5776862e-7, 4.6612905e-7
-0.128, 7.0702663e-7, 4.9828611e-7
-0.129, 5.6810813e-7, 3.6466110e-7
-0.130, 6.8774898e-7, 5.8509363e-7
-0.131, 5.5285420e-7, 3.3245459e-7
-0.132, 6.3235632e-7, 4.6344101e-7
-0.133, 6.0125467e-7, 4.8657762e-7
-0.134, 5.8977707e-7, 4.0631687e-7
-0.135, 7.3590206e-7, 4.7244498e-7
-0.136, 5.5404149e-7, 3.1128039e-7
-0.137, 6.3667687e-7, 4.8760000e-7
-0.138, 5.5207909e-7, 4.0110581e-7
-0.139, 5.9840175e-7, 4.1083536e-7
-0.140, 6.4873166e-7, 4.7767253e-7
-0.141, 6.1640969e-7, 4.2295613e-7
-0.142, 7.0090857e-7, 5.0644906e-7
-0.143, 5.0879072e-7, 3.6700280e-7
-0.144, 6.6203972e-7, 3.0254023e-7
-0.145, 5.6583247e-7, 4.0442046e-7
-0.146, 5.4991881e-7, 4.0524498e-7
-0.147, 6.4220131e-7, 5.5433833e-7
-0.148, 4.7158750e-7, 3.7895865e-7
-0.149, 6.7453982e-7, 4.2734268e-7
-0.150, 4.9770892e-7, 3.2021842e-7
-0.151, 5.8273548e-7, 3.0481598e-7
-0.152, 6.0094135e-7, 4.2826613e-7
-0.153, 5.4671960e-7, 3.3816039e-7
-0.154, 6.8748511e-7, 4.9708228e-7
-0.155, 4.2968435e-7, 3.9714800e-7
-0.156, 6.0837868e-7, 3.7752392e-7
-0.157, 5.0496487e-7, 3.8163017e-7
-0.158, 5.1523864e-7, 3.3156408e-7
-0.159, 5.8819398e-7, 4.5697664e-7
-0.160, 4.4752738e-7, 2.9993473e-7
-0.161, 6.2996514e-7, 4.8441734e-7
-0.162, 4.7345094e-7, 3.3167953e-7
-0.163, 5.4592800e-7, 3.3905090e-7
-0.164, 5.8186146e-7, 3.6888275e-7
-0.165, 5.2542998e-7, 2.6779415e-7
-0.166, 6.2881077e-7, 4.2003722e-7
-0.167, 4.5676222e-7, 3.5016569e-7
-0.168, 5.0275509e-7, 4.3489541e-7
-0.169, 4.9312445e-7, 4.1525487e-7
-0.170, 5.0882375e-7, 3.5371124e-7
-0.171, 5.8459898e-7, 4.1695347e-7
-0.172, 4.7770556e-7, 2.2213112e-7
-0.173, 5.5362921e-7, 3.6978975e-7
-0.174, 4.0326609e-7, 3.1629358e-7
-0.175, 5.0412382e-7, 3.7105951e-7
-0.176, 5.2552889e-7, 4.1149497e-7
-0.177, 4.6474381e-7, 3.5072640e-7
-0.178, 5.6964177e-7, 4.4955578e-7
-0.179, 4.7447338e-7, 3.0003366e-7
-0.180, 5.2434154e-7, 3.0788328e-7
-0.181, 4.7506703e-7, 3.5135304e-7
-0.182, 4.9459214e-7, 3.5877389e-7
-0.183, 5.6179215e-7, 4.3743506e-7
-0.184, 4.3844096e-7, 3.5194671e-7
-0.185, 5.6495838e-7, 4.4546604e-7
-0.186, 3.9879706e-7, 2.6723345e-7
-0.187, 5.0427229e-7, 3.2084506e-7
-0.188, 4.9185468e-7, 3.6734912e-7
-0.189, 4.5715802e-7, 3.2114190e-7
-0.190, 5.7828299e-7, 4.4431169e-7
-0.191, 4.5936778e-7, 3.0666297e-7
-0.192, 5.5824665e-7, 3.9681819e-7
-0.193, 4.8789684e-7, 2.8545577e-7
-0.194, 5.0638306e-7, 3.0697629e-7
-0.195, 5.3365886e-7, 3.4920924e-7
-0.196, 3.8852329e-7, 3.3192686e-7
-0.197, 5.3608301e-7, 4.9320693e-7
-0.198, 4.1177535e-7, 2.5334822e-7
-0.199, 5.0849388e-7, 3.5445331e-7
-0.200, 4.4807160e-7, 3.0301851e-7
-0.201, 4.5623455e-7, 2.5074266e-7
-0.202, 5.8887008e-7, 3.3939722e-7
-0.203, 4.3619821e-7, 2.3473007e-7
-0.204, 5.1388639e-7, 4.7071347e-7
-0.205, 4.4381699e-7, 4.0735580e-7
-0.206, 4.8657762e-7, 3.5318351e-7
-0.207, 5.3403812e-7, 3.6246786e-7
-0.208, 4.9111259e-7, 2.8995777e-7
-0.209, 5.5982974e-7, 3.7429174e-7
-0.210, 4.2440729e-7, 2.4915954e-7
-0.211, 5.2625450e-7, 3.0387602e-7
-0.212, 4.5499775e-7, 3.8814403e-7
-0.213, 4.4414679e-7, 3.4695000e-7
-0.214, 5.5907117e-7, 3.8642895e-7
-0.215, 4.1665663e-7, 2.7297224e-7
-0.216, 5.6072031e-7, 3.2684773e-7
-0.217, 3.9719748e-7, 2.8964445e-7
-0.218, 4.9942395e-7, 3.2155415e-7
-0.219, 5.0394243e-7, 3.9983598e-7
-0.220, 5.0240880e-7, 3.1067023e-7
-0.221, 6.1065441e-7, 3.7521522e-7
-0.222, 3.4948957e-7, 2.9526782e-7
-0.223, 5.4018921e-7, 2.5626707e-7
-0.224, 4.3456561e-7, 3.3468081e-7
-0.225, 4.7544631e-7, 3.3418610e-7
-0.226, 5.2600711e-7, 4.3878728e-7
-0.227, 4.0969752e-7, 3.2750734e-7
-0.228, 6.1350727e-7, 3.9790658e-7
-0.229, 4.6749776e-7, 2.3717072e-7
-0.230, 5.0912058e-7, 2.9516889e-7
-0.231, 5.4495507e-7, 2.9422890e-7
-0.232, 4.9099714e-7, 3.2142225e-7
-0.233, 6.0860953e-7, 4.3131695e-7
-0.234, 4.0912033e-7, 3.1317683e-7
-0.235, 5.0643251e-7, 4.1055500e-7
-0.236, 4.7356636e-7, 3.3825933e-7
-0.237, 5.0460204e-7, 3.2752382e-7
-0.238, 5.4741218e-7, 3.3476331e-7
-0.239, 4.5120481e-7, 2.3456518e-7
-0.240, 5.4660416e-7, 4.0552533e-7
-0.241, 4.2838155e-7, 2.9358577e-7
-0.242, 5.0085862e-7, 3.5356283e-7
-0.243, 5.3489566e-7, 3.2711156e-7
-0.244, 4.8436789e-7, 3.1307786e-7
-0.245, 5.7340168e-7, 3.9188743e-7
-0.246, 4.8504398e-7, 2.8275130e-7
-0.247, 5.2735936e-7, 3.7112551e-7
-0.248, 5.1057179e-7, 3.4821977e-7
-0.249, 5.0542661e-7, 4.1142903e-7
-0.250, 5.9198680e-7, 3.8883664e-7
-0.251, 4.9149185e-7, 3.0277113e-7
-0.252, 5.9465833e-7, 3.8197646e-7
-0.253, 4.0260642e-7, 2.8202572e-7
-0.254, 5.4152497e-7, 4.0298573e-7
-0.255, 5.3149859e-7, 3.8204240e-7
-0.256, 5.1184151e-7, 3.9561434e-7
-0.257, 6.2612281e-7, 4.8530785e-7
-0.258, 5.1057174e-7, 2.8029416e-7
-0.259, 6.1779497e-7, 4.1527142e-7
-0.260, 5.3468131e-7, 2.5567340e-7
-0.261, 5.6937790e-7, 3.7864532e-7
-0.262, 5.7765635e-7, 4.1480962e-7
-0.263, 4.4536711e-7, 4.4442714e-7
-0.264, 6.2886028e-7, 5.2378084e-7
-0.265, 4.7180185e-7, 2.3705530e-7
-0.266, 5.8928237e-7, 4.1787695e-7
-0.267, 5.6804220e-7, 2.6434756e-7
-0.268, 5.5224399e-7, 3.5798234e-7
-0.269, 6.7862948e-7, 4.3756694e-7
-0.270, 5.4193725e-7, 3.0869131e-7
-0.271, 6.4759382e-7, 5.7881067e-7
-0.272, 5.4320702e-7, 3.4048560e-7
-0.273, 6.2059837e-7, 3.9055166e-7
-0.274, 6.3113600e-7, 4.0674564e-7
-0.275, 5.5499800e-7, 3.3613202e-7
-0.276, 6.7904176e-7, 5.1627757e-7
-0.277, 5.2912389e-7, 2.8182782e-7
-0.278, 6.3880418e-7, 4.5329921e-7
-0.279, 5.7322029e-7, 3.9981950e-7
-0.280, 5.8794660e-7, 3.7237882e-7
-0.281, 7.2401218e-7, 4.3684136e-7
-0.282, 5.4261335e-7, 2.5176507e-7
-0.283, 6.9121199e-7, 4.3118501e-7
-0.284, 5.4856650e-7, 3.6327589e-7
-0.285, 6.3896914e-7, 4.1053852e-7
-0.286, 6.6070402e-7, 4.5295286e-7
-0.287, 6.6631088e-7, 3.5771848e-7
-0.288, 7.6474453e-7, 4.7691401e-7
-0.289, 5.1703614e-7, 3.1167616e-7
-0.290, 7.2998188e-7, 3.7605625e-7
-0.291, 5.9037075e-7, 4.2272524e-7
-0.292, 6.1875141e-7, 4.2914013e-7
-0.293, 7.0664737e-7, 5.4246493e-7
-0.294, 5.6199002e-7, 3.8943031e-7
-0.295, 7.9075051e-7, 4.7259340e-7
-0.296, 5.9380079e-7, 3.0667945e-7
-0.297, 6.7183532e-7, 3.5757009e-7
-0.298, 7.0417377e-7, 4.5425566e-7
-0.299, 6.3166368e-7, 3.8949628e-7
-0.300, 8.0107372e-7, 5.6441422e-7
-0.301, 5.3534092e-7, 4.1652467e-7
-0.302, 7.2330306e-7, 4.3237236e-7
-0.303, 6.3601726e-7, 4.1853656e-7
-0.304, 6.4739595e-7, 3.5801531e-7
-0.305, 7.2236310e-7, 4.9939098e-7
-0.306, 6.0069397e-7, 3.0948289e-7
-0.307, 7.3372530e-7, 5.3187784e-7
-0.308, 5.9693400e-7, 3.9991846e-7
-0.309, 6.8875488e-7, 4.0100684e-7
-0.310, 7.1258410e-7, 4.2227998e-7
-0.311, 6.4846785e-7, 3.4365183e-7
-0.312, 7.7594177e-7, 4.7313759e-7
-0.313, 6.1631073e-7, 4.0918630e-7
-0.314, 6.6029173e-7, 4.8558815e-7
-0.315, 6.5856023e-7, 4.8840809e-7
-0.316, 6.6481022e-7, 4.5423911e-7
-0.317, 7.6777877e-7, 5.1899855e-7
-0.318, 6.3905156e-7, 3.5178178e-7
-0.319, 7.3217518e-7, 4.5971410e-7
-0.320, 5.6011010e-7, 4.1512300e-7
-0.321, 6.7704639e-7, 4.4289348e-7
-0.322, 7.2465537e-7, 4.4409731e-7
-0.323, 6.3443417e-7, 4.2188421e-7
-0.324, 7.5666401e-7, 5.5163383e-7
-0.325, 6.5047971e-7, 3.8257014e-7
-0.326, 7.3219161e-7, 3.7676537e-7
-0.327, 6.7244548e-7, 3.8656088e-7
-0.328, 6.9173973e-7, 4.3750097e-7
-0.329, 7.4056891e-7, 5.2622147e-7
-0.330, 6.0346446e-7, 5.1137977e-7
-0.331, 7.6327683e-7, 5.3886993e-7
-0.332, 5.7432521e-7, 3.7035045e-7
-0.333, 6.9751150e-7, 4.2519886e-7
-0.334, 6.9180567e-7, 4.0509656e-7
-0.335, 6.5766972e-7, 4.0912033e-7
-0.336, 8.0036460e-7, 5.3179542e-7
-0.337, 6.4424614e-7, 4.2538025e-7
-0.338, 7.6936192e-7, 5.8304880e-7
-0.339, 6.7960241e-7, 4.1218760e-7
-0.340, 7.2574369e-7, 4.7219766e-7
-0.341, 7.4234998e-7, 3.9170604e-7
-0.342, 6.3321386e-7, 4.5707557e-7
-0.343, 7.7086253e-7, 5.9465833e-7
-0.344, 6.1161086e-7, 3.6322643e-7
-0.345, 7.1352406e-7, 5.3270242e-7
-0.346, 6.6657469e-7, 4.0209522e-7
-0.347, 6.9022258e-7, 4.1571664e-7
-0.348, 8.3430268e-7, 4.3791326e-7
-0.349, 6.3603375e-7, 3.5387615e-7
-0.350, 7.5018312e-7, 5.7322029e-7
-0.351, 6.3557206e-7, 4.4828599e-7
-0.352, 7.2396273e-7, 5.0141938e-7
-0.353, 7.5644959e-7, 4.8064095e-7
-0.354, 7.3181235e-7, 4.2227998e-7
-0.355, 8.1690496e-7, 5.1730001e-7
-0.356, 6.1007722e-7, 3.3690711e-7
-0.357, 7.9556582e-7, 4.3049238e-7
-0.358, 6.9348772e-7, 4.8445031e-7
-0.359, 6.8601742e-7, 5.1444704e-7
-0.360, 8.0663108e-7, 5.4022223e-7
-0.361, 6.4604365e-7, 3.9851676e-7
-0.362, 8.3502829e-7, 4.7569370e-7
-0.363, 6.4076664e-7, 3.3542292e-7
-0.364, 7.6830651e-7, 4.6495816e-7
-0.365, 7.4259731e-7, 4.9460863e-7
-0.366, 7.4165735e-7, 4.4213490e-7
-0.367, 8.9310890e-7, 5.8840834e-7
-0.368, 5.8639648e-7, 4.2160383e-7
-0.369, 8.3550651e-7, 4.6682166e-7
-0.370, 6.9733005e-7, 4.0282083e-7
-0.371, 7.1776213e-7, 4.7734278e-7
-0.372, 7.9634088e-7, 5.7016950e-7
-0.373, 6.3967821e-7, 4.2643563e-7
-0.374, 8.8735356e-7, 6.0062803e-7
-0.375, 6.8629777e-7, 4.0453585e-7
-0.376, 7.7960266e-7, 4.8801235e-7
-0.377, 8.0404209e-7, 4.6462839e-7
-0.378, 7.6269964e-7, 4.4299242e-7
-0.379, 8.9635756e-7, 6.1833913e-7
-0.380, 6.6692104e-7, 4.6250105e-7
-0.381, 7.8478081e-7, 6.2950340e-7
-0.382, 7.5310197e-7, 5.1563438e-7
-0.383, 7.6731703e-7, 5.3369183e-7
-0.384, 8.8346184e-7, 5.7043337e-7
-0.385, 7.4297668e-7, 2.9666955e-7
-0.386, 8.6688851e-7, 5.8262003e-7
-0.387, 6.8201012e-7, 4.5189745e-7
-0.388, 8.0762049e-7, 5.5433833e-7
-0.389, 8.6088590e-7, 5.3849067e-7
-0.390, 7.5399248e-7, 4.9934147e-7
-0.391, 9.1322761e-7, 6.7500150e-7
-0.392, 7.6185859e-7, 3.9582869e-7
-0.393, 8.6095179e-7, 5.5130403e-7
-0.394, 8.0771952e-7, 5.1665688e-7
-0.395, 8.2773931e-7, 5.8285093e-7
-0.396, 9.3519338e-7, 6.7757412e-7
-0.397, 7.6439818e-7, 5.1751437e-7
-0.398, 9.5437213e-7, 6.3875473e-7
-0.399, 6.9516977e-7, 4.4543305e-7
-0.400, 8.6969197e-7, 5.1248463e-7
-0.401, 8.6466230e-7, 5.9043668e-7
-0.402, 8.0936860e-7, 5.5110615e-7
-0.403, 9.9525289e-7, 7.4530186e-7
-0.404, 8.1017663e-7, 4.9094768e-7
-0.405, 9.7825091e-7, 6.3181216e-7
-0.406, 8.6301316e-7, 4.5440407e-7
-0.407, 9.2221512e-7, 5.2021886e-7
-0.408, 9.6367296e-7, 6.2881077e-7
-0.409, 7.4282821e-7, 5.9358644e-7
-0.410, 1.0090887e-6, 7.5275568e-7
-0.411, 7.9627489e-7, 4.5123784e-7
-0.412, 9.2752521e-7, 6.2623820e-7
-0.413, 8.9340568e-7, 5.6075328e-7
-0.414, 9.0046382e-7, 5.0300247e-7
-0.415, 1.0979576e-6, 6.7013673e-7
-0.416, 8.6588255e-7, 4.7584211e-7
-0.417, 9.9058605e-7, 7.7793709e-7
-0.418, 8.9188859e-7, 6.5781808e-7
-0.419, 9.6636097e-7, 6.5607009e-7
-0.420, 1.0041745e-6, 6.7383064e-7
-0.421, 9.1405218e-7, 5.3459883e-7
-0.422, 1.0851608e-6, 7.3896933e-7
-0.423, 8.6190823e-7, 5.0212844e-7
-0.424, 1.0002497e-6, 6.2935493e-7
-0.425, 9.6888414e-7, 6.8347782e-7
-0.426, 9.2439188e-7, 6.4055223e-7
-0.427, 1.1276741e-6, 7.1741590e-7
-0.428, 8.7191825e-7, 5.4597751e-7
-0.429, 1.1012557e-6, 6.4610964e-7
-0.430, 8.8972831e-7, 6.0132061e-7
-0.431, 9.9531894e-7, 6.3628113e-7
-0.432, 1.0449892e-6, 7.2823377e-7
-0.433, 1.0284654e-6, 6.4838537e-7
-0.434, 1.1650917e-6, 7.3547329e-7
-0.435, 8.3130135e-7, 5.6260023e-7
-0.436, 1.1207150e-6, 5.4447685e-7
-0.437, 9.5214597e-7, 6.3286751e-7
-0.438, 9.6682277e-7, 6.5186498e-7
-0.439, 1.0794550e-6, 7.8837581e-7
-0.440, 8.7285815e-7, 6.5173299e-7
-0.441, 1.1731391e-6, 7.7117591e-7
-0.442, 9.4178972e-7, 5.2975054e-7
-0.443, 1.0523770e-6, 6.4162413e-7
-0.444, 1.0945771e-6, 6.2698030e-7
-0.445, 1.0179112e-6, 6.2801922e-7
-0.446, 1.1629479e-6, 8.0983034e-7
-0.447, 8.9429614e-7, 6.4721451e-7
-0.448, 1.0543065e-6, 7.6477744e-7
-0.449, 9.7368297e-7, 6.7641975e-7
-0.450, 9.9490671e-7, 6.8146591e-7
-0.451, 1.1158996e-6, 6.8941449e-7
-0.452, 9.3908523e-7, 4.8199320e-7
-0.453, 1.1322750e-6, 7.6072070e-7
-0.454, 9.4134447e-7, 5.9409763e-7
-0.455, 1.0177463e-6, 7.3234003e-7
-0.456, 1.0961271e-6, 7.3794695e-7
-0.457, 9.9335648e-7, 6.5529503e-7
-0.458, 1.1567473e-6, 7.6926295e-7
-0.459, 9.6482734e-7, 5.9119526e-7
-0.460, 1.0257774e-6, 7.3863953e-7
-0.461, 1.0154047e-6, 6.8280167e-7
-0.462, 1.0189667e-6, 7.5430580e-7
-0.463, 1.1685383e-6, 7.8565483e-7
-0.464, 9.5712619e-7, 5.9927578e-7
-0.465, 1.1606062e-6, 7.9683559e-7
-0.466, 8.6520652e-7, 5.5277172e-7
-0.467, 1.0659160e-6, 6.9777536e-7
-0.468, 1.0475617e-6, 7.2711242e-7
-0.469, 9.8255498e-7, 6.8435179e-7
-0.470, 1.1820607e-6, 9.4144343e-7
-0.471, 9.9658871e-7, 5.8895250e-7
-0.472, 1.1397124e-6, 7.3397268e-7
-0.473, 1.0320439e-6, 5.8045975e-7
-0.474, 1.0683566e-6, 6.1979034e-7
-0.475, 1.1637064e-6, 7.7270954e-7
-0.476, 8.9300988e-7, 7.5987964e-7
-0.477, 1.1312691e-6, 9.2366633e-7
-0.478, 9.1693806e-7, 5.9922633e-7
-0.479, 1.0713250e-6, 7.3111971e-7
-0.480, 1.0476442e-6, 6.9447714e-7
-0.481, 1.0220010e-6, 5.6607979e-7
-0.482, 1.2285648e-6, 8.0621885e-7
-0.483, 9.7609063e-7, 5.7740891e-7
-0.484, 1.1231886e-6, 9.1101788e-7
-0.485, 1.0257938e-6, 7.2254454e-7
-0.486, 1.0788448e-6, 7.1551949e-7
-0.487, 1.1506787e-6, 8.0699397e-7
-0.488, 1.0178123e-6, 6.0409104e-7
-0.489, 1.1960615e-6, 9.0738990e-7
-0.490, 9.7285840e-7, 5.7223087e-7
-0.491, 1.1070275e-6, 7.5580641e-7
-0.492, 1.0846330e-6, 7.7162116e-7
-0.493, 1.0185545e-6, 6.9549964e-7
-0.494, 1.2498544e-6, 8.0016673e-7
-0.495, 9.8694147e-7, 5.3835873e-7
-0.496, 1.1684888e-6, 7.9586260e-7
-0.497, 1.0064666e-6, 7.0390985e-7
-0.498, 1.0684556e-6, 7.1335921e-7
-0.499, 1.1579677e-6, 8.3547354e-7
-0.500, 1.1171364e-6, 7.1777868e-7
