Dec. 9, 2005   02:05:49
Square Wave Voltammetry
File: d:\ida_biofilms\11_28_18_blankidapyo\25um_transfer\25um_pyo_transfer_swv4_7.txt
Data Source:  Experiment
Instrument Model:  CHI760B
Header: 
Note: 

Init E (V) = 0.1
Final E (V) = -0.5
Incr E (V) = 0.001
Amplitude (V) = 0.025
Frequency (Hz) = 300
Quiet Time (sec) = 2
Sensitivity (A/V) = 1e-6
Sens 2 (A/V) = 1e-6

Potential/V, i1/A, i2/A

0.099, 6.4998500e-7, 3.7697976e-7
0.098, 6.4655489e-7, 4.2646866e-7
0.097, 6.1934509e-7, 4.3459863e-7
0.096, 6.3924949e-7, 3.8435115e-7
0.095, 6.6134714e-7, 4.3204255e-7
0.094, 6.0771902e-7, 4.3423580e-7
0.093, 6.3926598e-7, 4.2101018e-7
0.092, 5.7963518e-7, 4.8204265e-7
0.091, 6.1883384e-7, 4.6494168e-7
0.090, 5.9197032e-7, 4.2622128e-7
0.089, 6.0483313e-7, 3.8285046e-7
0.088, 6.2523225e-7, 3.7473700e-7
0.087, 5.7557850e-7, 4.0412360e-7
0.086, 6.0620187e-7, 4.1746466e-7
0.085, 5.5320049e-7, 4.2028461e-7
0.084, 5.9553236e-7, 4.6100038e-7
0.083, 5.7717807e-7, 4.1123116e-7
0.082, 5.7087863e-7, 3.7618821e-7
0.081, 5.7735951e-7, 3.6635964e-7
0.080, 5.3176240e-7, 3.2887607e-7
0.079, 5.7983311e-7, 4.0498111e-7
0.078, 5.4360282e-7, 3.7648502e-7
0.077, 5.5788382e-7, 4.0153455e-7
0.076, 5.5252434e-7, 4.3486247e-7
0.075, 5.0501433e-7, 3.6088471e-7
0.074, 5.6043996e-7, 3.6626074e-7
0.073, 5.0639954e-7, 2.8708837e-7
0.072, 5.4046956e-7, 3.5209513e-7
0.071, 5.2641940e-7, 3.8858926e-7
0.070, 5.1654143e-7, 3.4145853e-7
0.069, 5.3494512e-7, 4.1382020e-7
0.068, 4.7884345e-7, 3.7679834e-7
0.067, 5.4848408e-7, 3.4833522e-7
0.066, 4.9810467e-7, 3.3969405e-7
0.065, 5.0387649e-7, 3.0255677e-7
0.064, 5.3412055e-7, 3.8725352e-7
0.063, 4.6858617e-7, 3.3964457e-7
0.062, 5.0879072e-7, 3.7007010e-7
0.061, 4.6840475e-7, 3.7805165e-7
0.060, 5.0900513e-7, 3.4581211e-7
0.059, 4.9891275e-7, 3.4582862e-7
0.058, 4.8637969e-7, 2.7712792e-7
0.057, 5.0625118e-7, 3.0420583e-7
0.056, 4.5089152e-7, 3.4704894e-7
0.055, 4.9703283e-7, 3.4213468e-7
0.054, 4.5486581e-7, 3.3423561e-7
0.053, 4.7005381e-7, 3.5554172e-7
0.052, 4.7600699e-7, 3.5476663e-7
0.051, 4.5229322e-7, 3.0715768e-7
0.050, 4.8905122e-7, 2.5400783e-7
0.049, 4.3545612e-7, 2.7849666e-7
0.048, 4.7904132e-7, 3.3855616e-7
0.047, 4.4760986e-7, 3.2063065e-7
0.046, 4.4887963e-7, 3.4276133e-7
0.045, 4.7923919e-7, 3.6195661e-7
0.044, 4.2247785e-7, 2.8786346e-7
0.043, 4.7104328e-7, 3.1034040e-7
0.042, 4.1205570e-7, 2.3543919e-7
0.041, 4.7566073e-7, 3.1743147e-7
0.040, 4.5433811e-7, 3.2282395e-7
0.039, 4.1810779e-7, 3.2666628e-7
0.038, 4.6398520e-7, 3.4277781e-7
0.037, 3.9630697e-7, 2.8877042e-7
0.036, 4.5288692e-7, 3.1157722e-7
0.035, 4.1800888e-7, 2.6284690e-7
0.034, 4.1626083e-7, 2.2340089e-7
0.033, 4.5918642e-7, 3.2099348e-7
0.032, 3.8837487e-7, 2.8430142e-7
0.031, 4.4127739e-7, 3.1378698e-7
0.030, 3.8463148e-7, 3.0272167e-7
0.029, 4.3898518e-7, 2.6601313e-7
0.028, 4.3802868e-7, 2.9813722e-7
0.027, 4.0486569e-7, 2.2676502e-7
0.026, 4.3768239e-7, 2.7768863e-7
0.025, 3.7574296e-7, 2.7374733e-7
0.024, 4.2478658e-7, 3.1695322e-7
0.023, 3.8258662e-7, 3.4013928e-7
0.022, 4.0209522e-7, 2.7198280e-7
0.021, 4.3285058e-7, 3.0191362e-7
0.020, 3.8004703e-7, 2.4564699e-7
0.019, 4.2209859e-7, 2.3329538e-7
0.018, 3.7790323e-7, 2.7129019e-7
0.017, 4.1423246e-7, 2.7579216e-7
0.016, 3.9927534e-7, 3.3146512e-7
0.015, 3.9154111e-7, 3.0344728e-7
0.014, 3.9810448e-7, 2.5646494e-7
0.013, 3.7026800e-7, 2.7279086e-7
0.012, 4.2338488e-7, 2.1535340e-7
0.011, 3.8306484e-7, 2.4330529e-7
0.010, 3.8913348e-7, 2.8486210e-7
0.009, 3.9810448e-7, 3.2071313e-7
0.008, 3.5588801e-7, 3.1330876e-7
0.007, 4.1594751e-7, 2.9013918e-7
0.006, 3.6565058e-7, 2.4403090e-7
0.005, 4.0044617e-7, 2.7425853e-7
0.004, 3.9149165e-7, 2.3270171e-7
0.003, 3.9825287e-7, 2.5282048e-7
0.002, 4.0184787e-7, 2.7717741e-7
0.001, 3.5247442e-7, 2.9304158e-7
-0.000, 4.0793299e-7, 3.0234236e-7
-0.001, 3.6614529e-7, 2.5059421e-7
-0.002, 3.8111892e-7, 2.6489175e-7
-0.003, 4.0288680e-7, 2.4370109e-7
-0.004, 3.5793286e-7, 2.0151759e-7
-0.005, 3.9991846e-7, 2.7696302e-7
-0.006, 3.3379035e-7, 2.5224332e-7
-0.007, 3.9709852e-7, 3.2310430e-7
-0.008, 3.7780427e-7, 2.8263588e-7
-0.009, 3.8611563e-7, 2.3877033e-7
-0.010, 4.0394218e-7, 2.9889580e-7
-0.011, 3.5976336e-7, 2.2554471e-7
-0.012, 4.0656425e-7, 2.6993794e-7
-0.013, 3.5677851e-7, 2.5158369e-7
-0.014, 3.9605959e-7, 2.8885290e-7
-0.015, 4.0791650e-7, 3.0738858e-7
-0.016, 3.5773496e-7, 2.2203216e-7
-0.017, 4.0860908e-7, 2.5089108e-7
-0.018, 3.5473366e-7, 1.9718053e-7
-0.019, 3.9210181e-7, 2.1912979e-7
-0.020, 3.7049887e-7, 2.6983901e-7
-0.021, 3.6947642e-7, 2.3405397e-7
-0.022, 4.0948311e-7, 3.0969727e-7
-0.023, 3.4414654e-7, 2.5893857e-7
-0.024, 4.0887295e-7, 2.5798212e-7
-0.025, 3.5529433e-7, 2.1520498e-7
-0.026, 4.0394221e-7, 2.0560732e-7
-0.027, 3.9830235e-7, 3.0364515e-7
-0.028, 3.5699290e-7, 2.5349661e-7
-0.029, 4.0938420e-7, 2.7552832e-7
-0.030, 3.3426858e-7, 2.8134957e-7
-0.031, 4.0603652e-7, 2.6428160e-7
-0.032, 3.7333530e-7, 2.5994453e-7
-0.033, 3.8029441e-7, 1.8646151e-7
-0.034, 4.1382020e-7, 2.5958173e-7
-0.035, 3.5720728e-7, 2.5971366e-7
-0.036, 4.1096729e-7, 2.6520507e-7
-0.037, 3.5410699e-7, 3.0532721e-7
-0.038, 4.0606955e-7, 2.6518859e-7
-0.039, 4.0793299e-7, 2.7010287e-7
-0.040, 3.8288346e-7, 2.2028414e-7
-0.041, 4.0178190e-7, 2.2297215e-7
-0.042, 3.5788338e-7, 2.7465433e-7
-0.043, 4.0460185e-7, 2.6903095e-7
-0.044, 3.7021852e-7, 2.8900132e-7
-0.045, 3.8591776e-7, 2.5115492e-7
-0.046, 4.1471071e-7, 2.7039968e-7
-0.047, 3.6132997e-7, 2.7112526e-7
-0.048, 4.0377731e-7, 2.1426500e-7
-0.049, 3.7048238e-7, 2.7239508e-7
-0.050, 4.0615200e-7, 2.8258640e-7
-0.051, 3.9467437e-7, 3.2157067e-7
-0.052, 3.9406422e-7, 2.9193666e-7
-0.053, 4.0291977e-7, 2.6464440e-7
-0.054, 3.7618818e-7, 2.6103291e-7
-0.055, 4.2198315e-7, 2.2223006e-7
-0.056, 3.9180497e-7, 2.1718388e-7
-0.057, 4.0608603e-7, 2.7260947e-7
-0.058, 4.0930172e-7, 2.9480609e-7
-0.059, 3.7721063e-7, 3.3794601e-7
-0.060, 4.2881032e-7, 2.6197287e-7
-0.061, 3.7440719e-7, 2.7224667e-7
-0.062, 4.2597395e-7, 2.5862525e-7
-0.063, 4.1492507e-7, 2.4450912e-7
-0.064, 4.1370475e-7, 2.5771826e-7
-0.065, 4.3044292e-7, 2.9541621e-7
-0.066, 3.8334520e-7, 2.9333842e-7
-0.067, 4.3947992e-7, 3.1192351e-7
-0.068, 3.9963811e-7, 2.5730600e-7
-0.069, 4.2183473e-7, 2.9370119e-7
-0.070, 4.4083214e-7, 2.5760284e-7
-0.071, 4.1650821e-7, 2.5674530e-7
-0.072, 4.4774180e-7, 2.9225001e-7
-0.073, 4.0217770e-7, 2.9380013e-7
-0.074, 4.3997460e-7, 3.3283388e-7
-0.075, 4.3400493e-7, 2.8504351e-7
-0.076, 4.3890273e-7, 2.5697616e-7
-0.077, 4.6015936e-7, 2.6880008e-7
-0.078, 4.1523839e-7, 2.9046902e-7
-0.079, 4.6527151e-7, 3.1574939e-7
-0.080, 4.1729976e-7, 3.1474346e-7
-0.081, 4.6365540e-7, 3.5476663e-7
-0.082, 4.6329262e-7, 3.3999089e-7
-0.083, 4.3448318e-7, 2.7183438e-7
-0.084, 4.9231642e-7, 2.3547217e-7
-0.085, 4.2780439e-7, 2.8167938e-7
-0.086, 4.8384015e-7, 3.3263598e-7
-0.087, 4.6896542e-7, 3.0539317e-7
-0.088, 4.5559142e-7, 3.4037015e-7
-0.089, 4.9309148e-7, 3.3936422e-7
-0.090, 4.3811116e-7, 3.0514582e-7
-0.091, 5.0130393e-7, 3.0882325e-7
-0.092, 4.5125432e-7, 2.4713117e-7
-0.093, 4.9467462e-7, 3.2201589e-7
-0.094, 5.1034084e-7, 3.2704560e-7
-0.095, 4.6322663e-7, 3.3410365e-7
-0.096, 5.2185146e-7, 3.2834836e-7
-0.097, 4.5697661e-7, 3.1400137e-7
-0.098, 5.2589166e-7, 3.2475339e-7
-0.099, 4.8316400e-7, 2.7813388e-7
-0.100, 5.0809814e-7, 3.2321972e-7
-0.101, 5.2427561e-7, 3.4629036e-7
-0.102, 4.8238894e-7, 3.4683458e-7
-0.103, 5.2836532e-7, 3.6345727e-7
-0.104, 4.8718778e-7, 3.1754689e-7
-0.105, 5.4322351e-7, 3.3055812e-7
-0.106, 5.2918983e-7, 2.9838458e-7
-0.107, 5.0526171e-7, 2.7785353e-7
-0.108, 5.4393263e-7, 3.4500408e-7
-0.109, 5.0000119e-7, 3.4813735e-7
-0.110, 5.5918662e-7, 3.9797254e-7
-0.111, 5.2061466e-7, 3.2798556e-7
-0.112, 5.4932514e-7, 3.1228632e-7
-0.113, 5.5549265e-7, 3.3919932e-7
-0.114, 5.1108293e-7, 2.9691691e-7
-0.115, 5.6980673e-7, 3.6698634e-7
-0.116, 5.2252756e-7, 3.5633326e-7
-0.117, 5.6273217e-7, 4.1266583e-7
-0.118, 5.5273870e-7, 3.8929838e-7
-0.119, 5.6914706e-7, 3.3092093e-7
-0.120, 5.8895250e-7, 3.5135304e-7
-0.121, 5.3763313e-7, 3.0336480e-7
-0.122, 6.0141957e-7, 3.9474031e-7
-0.123, 5.5263979e-7, 3.6121452e-7
-0.124, 5.8743535e-7, 3.7937093e-7
-0.125, 5.9843467e-7, 4.0760318e-7
-0.126, 5.7041683e-7, 3.5334844e-7
-0.127, 6.1855354e-7, 3.5987878e-7
-0.128, 5.4848408e-7, 3.2780417e-7
-0.129, 6.1451328e-7, 3.9470737e-7
-0.130, 6.0438794e-7, 3.9902793e-7
-0.131, 6.0029816e-7, 3.8562092e-7
-0.132, 6.3153175e-7, 4.2097724e-7
-0.133, 5.7577637e-7, 3.6784385e-7
-0.134, 6.3822705e-7, 3.9355302e-7
-0.135, 5.9164051e-7, 3.3289984e-7
-0.136, 6.1266633e-7, 3.6377060e-7
-0.137, 6.3123491e-7, 4.2719424e-7
-0.138, 5.9790705e-7, 3.8476338e-7
-0.139, 6.4863275e-7, 4.4218439e-7
-0.140, 5.9005743e-7, 3.7458858e-7
-0.141, 6.5381084e-7, 3.9779115e-7
-0.142, 6.3845789e-7, 3.5026466e-7
-0.143, 6.1919661e-7, 3.1772828e-7
-0.144, 6.6164398e-7, 4.2612234e-7
-0.145, 6.0743872e-7, 4.1962497e-7
-0.146, 6.7219810e-7, 4.6055513e-7
-0.147, 6.2279162e-7, 4.1537035e-7
-0.148, 6.7518295e-7, 4.0435447e-7
-0.149, 6.7871190e-7, 4.0341450e-7
-0.150, 6.3229038e-7, 3.5475011e-7
-0.151, 6.8789734e-7, 4.0412363e-7
-0.152, 6.0935167e-7, 3.9254707e-7
-0.153, 6.7510052e-7, 4.8351035e-7
-0.154, 6.5493225e-7, 4.4680178e-7
-0.155, 6.5549295e-7, 3.8952925e-7
-0.156, 7.1047327e-7, 4.1362230e-7
-0.157, 6.1947696e-7, 3.6452917e-7
-0.158, 7.0043029e-7, 4.2137299e-7
-0.159, 6.5155166e-7, 3.9861567e-7
-0.160, 7.0194750e-7, 4.4103004e-7
-0.161, 6.8636371e-7, 4.6913036e-7
-0.162, 6.6035773e-7, 3.9505366e-7
-0.163, 7.1476086e-7, 4.0877399e-7
-0.164, 6.4619206e-7, 3.5834512e-7
-0.165, 7.0969816e-7, 4.5770219e-7
-0.166, 6.6899884e-7, 4.4010653e-7
-0.167, 6.7635381e-7, 4.2846403e-7
-0.168, 7.1464541e-7, 4.5806505e-7
-0.169, 6.6847116e-7, 4.0923572e-7
-0.170, 7.3069094e-7, 4.3103660e-7
-0.171, 6.7277529e-7, 3.6414991e-7
-0.172, 7.1063812e-7, 4.1070342e-7
-0.173, 7.1393629e-7, 4.6807497e-7
-0.174, 7.0313479e-7, 4.3941390e-7
-0.175, 7.2660123e-7, 4.9009014e-7
-0.176, 6.7158794e-7, 4.2678192e-7
-0.177, 7.2630439e-7, 4.3355971e-7
-0.178, 7.0321732e-7, 3.8258662e-7
-0.179, 7.1146269e-7, 3.6266573e-7
-0.180, 7.2213226e-7, 4.7394570e-7
-0.181, 6.7689797e-7, 4.6263298e-7
-0.182, 7.4558216e-7, 5.0127090e-7
-0.183, 6.8952994e-7, 4.7028470e-7
-0.184, 7.4475759e-7, 4.4012302e-7
-0.185, 7.3786447e-7, 4.2546270e-7
-0.186, 7.2318767e-7, 3.8161369e-7
-0.187, 7.4563161e-7, 4.6576622e-7
-0.188, 6.9639009e-7, 4.5333218e-7
-0.189, 7.7201696e-7, 5.3971098e-7
-0.190, 7.2633736e-7, 4.4647200e-7
-0.191, 7.5013361e-7, 4.5522862e-7
-0.192, 7.6454660e-7, 4.4887963e-7
-0.193, 7.2623845e-7, 3.9894550e-7
-0.194, 7.8278538e-7, 4.8812774e-7
-0.195, 7.1128130e-7, 4.6251756e-7
-0.196, 7.6688832e-7, 5.0763634e-7
-0.197, 7.7693119e-7, 5.1819046e-7
-0.198, 7.6225433e-7, 4.4145878e-7
-0.199, 8.0285474e-7, 4.8568711e-7
-0.200, 7.4508739e-7, 4.0473378e-7
-0.201, 8.1667395e-7, 4.8943059e-7
-0.202, 7.6324386e-7, 4.7770561e-7
-0.203, 7.9045367e-7, 4.9048595e-7
-0.204, 8.0623533e-7, 5.3768264e-7
-0.205, 7.7490279e-7, 4.4713164e-7
-0.206, 8.3103748e-7, 4.6640935e-7
-0.207, 7.6418382e-7, 4.0758670e-7
-0.208, 8.2830002e-7, 5.1256711e-7
-0.209, 8.1939493e-7, 5.0656445e-7
-0.210, 8.0903880e-7, 4.9521879e-7
-0.211, 8.5150259e-7, 5.7071367e-7
-0.212, 7.8943123e-7, 4.8583553e-7
-0.213, 8.6472824e-7, 5.1086857e-7
-0.214, 8.0961593e-7, 4.2930503e-7
-0.215, 8.5912131e-7, 5.0402491e-7
-0.216, 8.7386411e-7, 5.4850057e-7
-0.217, 8.1662455e-7, 5.1022545e-7
-0.218, 8.9739655e-7, 5.2107634e-7
-0.219, 8.1781195e-7, 4.9462511e-7
-0.220, 8.8606726e-7, 5.3413709e-7
-0.221, 8.7180274e-7, 4.5395882e-7
-0.222, 8.5377837e-7, 4.9869834e-7
-0.223, 9.0175007e-7, 5.4977033e-7
-0.224, 8.3240622e-7, 5.5242538e-7
-0.225, 9.1822437e-7, 5.8799606e-7
-0.226, 8.5938518e-7, 5.2838180e-7
-0.227, 9.1868617e-7, 5.3329609e-7
-0.228, 9.3303311e-7, 5.0135338e-7
-0.229, 8.8565503e-7, 4.9878076e-7
-0.230, 9.4337287e-7, 5.5061139e-7
-0.231, 8.6779551e-7, 5.7638653e-7
-0.232, 9.3524289e-7, 6.2803571e-7
-0.233, 9.2101129e-7, 5.8821047e-7
-0.234, 9.2694802e-7, 5.1885013e-7
-0.235, 9.6113342e-7, 5.2984950e-7
-0.236, 9.0983053e-7, 4.8316406e-7
-0.237, 9.8412158e-7, 5.7307187e-7
-0.238, 9.0546052e-7, 5.7956925e-7
-0.239, 9.7605755e-7, 6.3047634e-7
-0.240, 9.7577731e-7, 6.3158126e-7
-0.241, 9.6401936e-7, 5.6471106e-7
-0.242, 9.9604449e-7, 5.6810813e-7
-0.243, 9.4614336e-7, 5.3278484e-7
-0.244, 1.0036302e-6, 6.0776853e-7
-0.245, 9.6754843e-7, 5.8766625e-7
-0.246, 9.9815531e-7, 6.3092159e-7
-0.247, 1.0165591e-6, 6.6058857e-7
-0.248, 9.5247572e-7, 5.8619855e-7
-0.249, 1.0431093e-6, 5.9822037e-7
-0.250, 9.8222517e-7, 5.1261657e-7
-0.251, 1.0322087e-6, 6.1335891e-7
-0.252, 1.0255466e-6, 6.3393941e-7
-0.253, 1.0106058e-6, 6.0583909e-7
-0.254, 1.0330994e-6, 6.5272241e-7
-0.255, 1.0136401e-6, 5.9144264e-7
-0.256, 1.0812689e-6, 6.1706930e-7
-0.257, 1.0300321e-6, 5.4228354e-7
-0.258, 1.0504971e-6, 6.2341832e-7
-0.259, 1.0723968e-6, 6.6192433e-7
-0.260, 1.0147616e-6, 6.5826339e-7
-0.261, 1.0841054e-6, 6.5216176e-7
-0.262, 1.0153552e-6, 5.9427907e-7
-0.263, 1.0926971e-6, 6.3445066e-7
-0.264, 1.0893000e-6, 5.7856329e-7
-0.265, 1.0690328e-6, 5.9167348e-7
-0.266, 1.0882610e-6, 6.6792700e-7
-0.267, 1.0466383e-6, 6.5969806e-7
-0.268, 1.1243098e-6, 7.0549299e-7
-0.269, 1.0591548e-6, 6.1471115e-7
-0.270, 1.0817637e-6, 6.2971776e-7
-0.271, 1.1192308e-6, 6.0386020e-7
-0.272, 1.0688184e-6, 5.7546305e-7
-0.273, 1.1142010e-6, 6.6213875e-7
-0.274, 1.0440822e-6, 6.5161754e-7
-0.275, 1.0933732e-6, 7.2402872e-7
-0.276, 1.1101442e-6, 6.8750154e-7
-0.277, 1.1065988e-6, 6.0389323e-7
-0.278, 1.1300817e-6, 6.2444076e-7
-0.279, 1.0655037e-6, 5.6260023e-7
-0.280, 1.1246563e-6, 6.4409778e-7
-0.281, 1.0839075e-6, 6.2655153e-7
-0.282, 1.1219187e-6, 7.0508077e-7
-0.283, 1.1324729e-6, 6.8238944e-7
-0.284, 1.0813349e-6, 6.3903508e-7
-0.285, 1.1499037e-6, 5.8915043e-7
-0.286, 1.0780038e-6, 5.7867874e-7
-0.287, 1.1296530e-6, 6.6894938e-7
-0.288, 1.1008931e-6, 6.5588870e-7
-0.289, 1.0787953e-6, 6.6147908e-7
-0.290, 1.1443792e-6, 6.9797323e-7
-0.291, 1.0681588e-6, 6.3433521e-7
-0.292, 1.1337592e-6, 6.4756085e-7
-0.293, 1.0863812e-6, 5.5456917e-7
-0.294, 1.1203027e-6, 6.4131081e-7
-0.295, 1.1326872e-6, 6.8845804e-7
-0.296, 1.0675651e-6, 6.7580959e-7
-0.297, 1.1246561e-6, 6.7460576e-7
-0.298, 1.0708798e-6, 6.4765982e-7
-0.299, 1.1473476e-6, 6.4345465e-7
-0.300, 1.0998210e-6, 5.7940434e-7
-0.301, 1.0953686e-6, 6.0954955e-7
-0.302, 1.1353587e-6, 6.7795338e-7
-0.303, 1.0503157e-6, 6.6883399e-7
-0.304, 1.1089900e-6, 7.1494225e-7
-0.305, 1.0781357e-6, 6.6268291e-7
-0.306, 1.1133931e-6, 6.4399882e-7
-0.307, 1.1091549e-6, 6.1995524e-7
-0.308, 1.0721825e-6, 5.9723095e-7
-0.309, 1.0921528e-6, 6.5981351e-7
-0.310, 1.0436863e-6, 6.4071719e-7
-0.311, 1.1006126e-6, 7.0773581e-7
-0.312, 1.0826872e-6, 6.9569751e-7
-0.313, 1.0926641e-6, 6.1715178e-7
-0.314, 1.1104742e-6, 6.8360976e-7
-0.315, 1.0408829e-6, 5.6664044e-7
-0.316, 1.1080500e-6, 6.5158463e-7
-0.317, 1.0458136e-6, 6.3517621e-7
-0.318, 1.0843858e-6, 6.7557869e-7
-0.319, 1.0827696e-6, 6.9726411e-7
-0.320, 1.0750025e-6, 5.9940771e-7
-0.321, 1.0959623e-6, 6.4200344e-7
-0.322, 1.0449892e-6, 5.6866884e-7
-0.323, 1.1055764e-6, 6.5659776e-7
-0.324, 1.0595340e-6, 6.5613608e-7
-0.325, 1.0457643e-6, 6.8237296e-7
-0.326, 1.0993429e-6, 7.1650891e-7
-0.327, 1.0535809e-6, 6.1899880e-7
-0.328, 1.1038119e-6, 6.4295989e-7
-0.329, 1.0352430e-6, 5.6241885e-7
-0.330, 1.0850124e-6, 6.0982990e-7
-0.331, 1.0794220e-6, 6.7211562e-7
-0.332, 1.0554609e-6, 6.3537414e-7
-0.333, 1.0845506e-6, 7.4652218e-7
-0.334, 1.0410479e-6, 6.3929895e-7
-0.335, 1.1066318e-6, 6.4187151e-7
-0.336, 1.0649925e-6, 5.9220122e-7
-0.337, 1.0720836e-6, 5.7829942e-7
-0.338, 1.0938350e-6, 6.8657806e-7
-0.339, 1.0383599e-6, 6.0862601e-7
-0.340, 1.0888218e-6, 6.7147249e-7
-0.341, 1.0363315e-6, 6.6088541e-7
-0.342, 1.0892834e-6, 6.5361291e-7
-0.343, 1.0813844e-6, 6.6014331e-7
-0.344, 1.0512722e-6, 5.4220106e-7
-0.345, 1.1212921e-6, 6.7838215e-7
-0.346, 1.0553783e-6, 6.4772576e-7
-0.347, 1.1012722e-6, 6.7923963e-7
-0.348, 1.0574728e-6, 6.7862948e-7
-0.349, 1.0904873e-6, 6.4777521e-7
-0.350, 1.1096661e-6, 6.7889334e-7
-0.351, 1.0424990e-6, 5.8270246e-7
-0.352, 1.1228917e-6, 6.2849745e-7
-0.353, 1.0457312e-6, 6.7183532e-7
-0.354, 1.1013547e-6, 7.1827344e-7
-0.355, 1.0866120e-6, 7.3515997e-7
-0.356, 1.0735018e-6, 6.6894938e-7
-0.357, 1.1389373e-6, 6.7191775e-7
-0.358, 1.0631455e-6, 5.9625791e-7
-0.359, 1.1148771e-6, 6.3662742e-7
-0.360, 1.0757445e-6, 6.7684846e-7
-0.361, 1.0935876e-6, 6.6245201e-7
-0.362, 1.1203192e-6, 7.7633752e-7
-0.363, 1.0776904e-6, 6.8080629e-7
-0.364, 1.1252664e-6, 6.5740585e-7
-0.365, 1.0889702e-6, 6.6898235e-7
-0.366, 1.1285646e-6, 6.3163071e-7
-0.367, 1.1048178e-6, 7.0356361e-7
-0.368, 1.1003488e-6, 6.5351401e-7
-0.369, 1.1368429e-6, 7.4221805e-7
-0.370, 1.0855235e-6, 7.3629786e-7
-0.371, 1.1440659e-6, 6.8159784e-7
-0.372, 1.1195111e-6, 6.9457610e-7
-0.373, 1.1536965e-6, 6.3506081e-7
-0.374, 1.1659822e-6, 7.3911781e-7
-0.375, 1.1360844e-6, 6.9930900e-7
-0.376, 1.1633601e-6, 7.3323054e-7
-0.377, 1.1351939e-6, 7.7244567e-7
-0.378, 1.1808734e-6, 7.0603721e-7
-0.379, 1.1590726e-6, 7.0521264e-7
-0.380, 1.1680766e-6, 6.3191106e-7
-0.381, 1.1883932e-6, 6.8486304e-7
-0.382, 1.1419056e-6, 7.3398911e-7
-0.383, 1.1918232e-6, 7.2699703e-7
-0.384, 1.1495079e-6, 8.0895632e-7
-0.385, 1.1960284e-6, 7.4484012e-7
-0.386, 1.2079348e-6, 7.6194101e-7
-0.387, 1.2082480e-6, 6.7971791e-7
-0.388, 1.2264045e-6, 6.8567107e-7
-0.389, 1.1660152e-6, 7.5597131e-7
-0.390, 1.2225127e-6, 7.6609672e-7
-0.391, 1.2132944e-6, 7.6029198e-7
-0.392, 1.2126181e-6, 7.7839883e-7
-0.393, 1.2439837e-6, 7.8814497e-7
-0.394, 1.2168068e-6, 7.3679257e-7
-0.395, 1.2509263e-6, 6.9921003e-7
-0.396, 1.2163121e-6, 7.4495551e-7
-0.397, 1.2532186e-6, 7.7803611e-7
-0.398, 1.2477436e-6, 8.1327693e-7
-0.399, 1.2420873e-6, 7.6594824e-7
-0.400, 1.2739805e-6, 8.0420693e-7
-0.401, 1.2342541e-6, 7.8179596e-7
-0.402, 1.2860353e-6, 7.3140006e-7
-0.403, 1.2531032e-6, 7.6726758e-7
-0.404, 1.2862331e-6, 7.9487313e-7
-0.405, 1.2941157e-6, 8.6855408e-7
-0.406, 1.2632120e-6, 8.1428288e-7
-0.407, 1.3142345e-6, 8.2247880e-7
-0.408, 1.2739144e-6, 7.8341202e-7
-0.409, 1.3012562e-6, 7.6387050e-7
-0.410, 1.3173018e-6, 7.8422011e-7
-0.411, 1.2925161e-6, 7.8893652e-7
-0.412, 1.3206989e-6, 8.2378153e-7
-0.413, 1.2735848e-6, 8.7104416e-7
-0.414, 1.3417578e-6, 8.3537458e-7
-0.415, 1.2986836e-6, 8.0018322e-7
-0.416, 1.3326218e-6, 7.8177948e-7
-0.417, 1.3510914e-6, 7.7168710e-7
-0.418, 1.2883604e-6, 8.0625182e-7
-0.419, 1.3500689e-6, 8.0991276e-7
-0.420, 1.2886408e-6, 8.5453689e-7
-0.421, 1.3416093e-6, 8.7927310e-7
-0.422, 1.3297688e-6, 8.3105397e-7
-0.423, 1.3288784e-6, 8.1647613e-7
-0.424, 1.3603099e-6, 7.8172997e-7
-0.425, 1.3113156e-6, 8.2877830e-7
-0.426, 1.3353427e-6, 8.4441149e-7
-0.427, 1.3085617e-6, 8.6718535e-7
-0.428, 1.3493269e-6, 8.5735678e-7
-0.429, 1.3566654e-6, 8.5041421e-7
-0.430, 1.3278064e-6, 8.1932899e-7
-0.431, 1.3487993e-6, 7.6057233e-7
-0.432, 1.3265202e-6, 8.2463907e-7
-0.433, 1.3579846e-6, 8.4752833e-7
-0.434, 1.3357385e-6, 8.6688851e-7
-0.435, 1.3443138e-6, 8.5795045e-7
-0.436, 1.3605406e-6, 8.3492932e-7
-0.437, 1.3048348e-6, 8.3685882e-7
-0.438, 1.3521963e-6, 7.7333618e-7
-0.439, 1.3244588e-6, 7.8118580e-7
-0.440, 1.3376020e-6, 8.3369252e-7
-0.441, 1.3369754e-6, 8.7336940e-7
-0.442, 1.3247227e-6, 8.7790443e-7
-0.443, 1.3406693e-6, 8.5770313e-7
-0.444, 1.3072919e-6, 8.2480398e-7
-0.445, 1.3591060e-6, 7.9683559e-7
-0.446, 1.3155868e-6, 7.6380445e-7
-0.447, 1.3272787e-6, 8.1678945e-7
-0.448, 1.3288454e-6, 8.4996896e-7
-0.449, 1.2946269e-6, 8.5694455e-7
-0.450, 1.3450228e-6, 8.1913117e-7
-0.451, 1.2829844e-6, 8.1713574e-7
-0.452, 1.3353097e-6, 7.8956310e-7
-0.453, 1.3124700e-6, 7.8511061e-7
-0.454, 1.2980570e-6, 7.8613306e-7
-0.455, 1.3151745e-6, 8.2757447e-7
-0.456, 1.2725787e-6, 8.2844844e-7
-0.457, 1.3116619e-6, 8.3804611e-7
-0.458, 1.2789772e-6, 7.9365282e-7
-0.459, 1.2801645e-6, 8.0023267e-7
-0.460, 1.2913288e-6, 7.7645291e-7
-0.461, 1.2497554e-6, 7.6655846e-7
-0.462, 1.2991454e-6, 7.9658821e-7
-0.463, 1.2222653e-6, 8.2021950e-7
-0.464, 1.2698413e-6, 8.3192799e-7
-0.465, 1.2573743e-6, 7.8451689e-7
-0.466, 1.2463748e-6, 7.5964886e-7
-0.467, 1.2683406e-6, 7.5481699e-7
-0.468, 1.2272291e-6, 7.8949722e-7
-0.469, 1.2604910e-6, 7.8994242e-7
-0.470, 1.2140364e-6, 7.8037783e-7
-0.471, 1.2508109e-6, 8.2358366e-7
-0.472, 1.2393663e-6, 8.2495245e-7
-0.473, 1.2006459e-6, 7.4977083e-7
-0.474, 1.2381295e-6, 6.9220141e-7
-0.475, 1.1822091e-6, 7.2854715e-7
-0.476, 1.2111999e-6, 7.7287444e-7
-0.477, 1.1864803e-6, 7.5290404e-7
-0.478, 1.1760911e-6, 7.9568122e-7
-0.479, 1.2170707e-6, 7.7012049e-7
-0.480, 1.1433568e-6, 7.3928265e-7
-0.481, 1.1986340e-6, 7.1260058e-7
-0.482, 1.1380962e-6, 6.8260380e-7
-0.483, 1.1673840e-6, 7.3151557e-7
-0.484, 1.1572256e-6, 7.4612637e-7
-0.485, 1.1172353e-6, 7.5214552e-7
-0.486, 1.1693958e-6, 7.3260389e-7
-0.487, 1.0973145e-6, 7.0987960e-7
-0.488, 1.1594518e-6, 7.2021930e-7
-0.489, 1.1018824e-6, 6.6274885e-7
-0.490, 1.1004807e-6, 7.0329975e-7
-0.491, 1.1326873e-6, 7.2359990e-7
-0.492, 1.0644318e-6, 7.5837903e-7
-0.493, 1.1119089e-6, 7.2853072e-7
-0.494, 1.0557247e-6, 6.7811828e-7
-0.495, 1.0937855e-6, 6.9822056e-7
-0.496, 1.0799332e-6, 6.5456948e-7
-0.497, 1.0555763e-6, 6.8418689e-7
-0.498, 1.0616943e-6, 6.8220800e-7
-0.499, 1.0167898e-6, 7.1804254e-7
-0.500, 1.0572749e-6, 7.2018634e-7
