Dec. 9, 2005   02:05:23
Square Wave Voltammetry
File: d:\ida_biofilms\11_28_18_blankidapyo\25um_transfer\25um_pyo_transfer_swv4_4.txt
Data Source:  Experiment
Instrument Model:  CHI760B
Header: 
Note: 

Init E (V) = 0.1
Final E (V) = -0.5
Incr E (V) = 0.001
Amplitude (V) = 0.025
Frequency (Hz) = 300
Quiet Time (sec) = 2
Sensitivity (A/V) = 1e-6
Sens 2 (A/V) = 1e-6

Potential/V, i1/A, i2/A

0.099, 6.6020925e-7, 3.1475997e-7
0.098, 6.3036094e-7, 4.3499438e-7
0.097, 5.7547953e-7, 4.5328267e-7
0.096, 6.3440115e-7, 4.8242197e-7
0.095, 5.8756729e-7, 4.0852666e-7
0.094, 6.3807863e-7, 4.1832220e-7
0.093, 6.2462209e-7, 3.8581882e-7
0.092, 5.8001456e-7, 3.8397184e-7
0.091, 6.2040050e-7, 3.9826938e-7
0.090, 5.5212854e-7, 4.3336181e-7
0.089, 6.0880745e-7, 4.6891597e-7
0.088, 5.7155472e-7, 4.1812430e-7
0.087, 5.7397887e-7, 3.6530426e-7
0.086, 6.0732327e-7, 3.5725674e-7
0.085, 5.4617539e-7, 3.2518216e-7
0.084, 5.8003099e-7, 3.9289336e-7
0.083, 5.2297287e-7, 4.0977994e-7
0.082, 5.7345119e-7, 4.2828265e-7
0.081, 5.7247820e-7, 4.0737228e-7
0.080, 5.4111274e-7, 3.6452917e-7
0.079, 5.6258375e-7, 3.6330886e-7
0.078, 5.0806511e-7, 3.2569335e-7
0.077, 5.6637663e-7, 3.8064070e-7
0.076, 5.1344114e-7, 3.7122444e-7
0.075, 5.3519250e-7, 3.8548899e-7
0.074, 5.3425254e-7, 3.9610910e-7
0.073, 4.8957895e-7, 3.5646519e-7
0.072, 5.4536736e-7, 3.4696649e-7
0.071, 4.7905780e-7, 2.8562070e-7
0.070, 5.2767268e-7, 3.5316702e-7
0.069, 5.1106645e-7, 3.6459514e-7
0.068, 4.9937444e-7, 3.6350673e-7
0.067, 5.0389298e-7, 3.5710832e-7
0.066, 4.6848720e-7, 3.2519861e-7
0.065, 5.2599063e-7, 3.3700604e-7
0.064, 4.6710198e-7, 2.6622752e-7
0.063, 4.9442724e-7, 3.3662675e-7
0.062, 4.9408095e-7, 3.5305158e-7
0.061, 4.5209538e-7, 3.5362876e-7
0.060, 4.9498794e-7, 3.5115517e-7
0.059, 4.2653460e-7, 3.1309438e-7
0.058, 4.7391268e-7, 3.3258652e-7
0.057, 4.6974051e-7, 2.8913323e-7
0.056, 4.6738231e-7, 2.6871763e-7
0.055, 4.7834868e-7, 3.2613860e-7
0.054, 4.1692047e-7, 3.5062743e-7
0.053, 4.8573662e-7, 3.6962484e-7
0.052, 4.3722065e-7, 2.8926519e-7
0.051, 4.5059471e-7, 3.0491492e-7
0.050, 4.6457890e-7, 2.9027109e-7
0.049, 4.3197656e-7, 2.2933759e-7
0.048, 4.6377085e-7, 3.1655745e-7
0.047, 3.9818690e-7, 3.1919598e-7
0.046, 4.6083545e-7, 3.5747112e-7
0.045, 4.3332881e-7, 3.2028436e-7
0.044, 4.3675891e-7, 2.5977960e-7
0.043, 4.4564746e-7, 3.0463463e-7
0.042, 4.0671267e-7, 2.5003354e-7
0.041, 4.5392582e-7, 3.2843081e-7
0.040, 4.0090788e-7, 2.8176183e-7
0.039, 4.5080907e-7, 3.3011287e-7
0.038, 4.3393896e-7, 3.2846381e-7
0.037, 3.9587820e-7, 2.7058110e-7
0.036, 4.5484933e-7, 2.4673540e-7
0.035, 3.9266249e-7, 2.2603945e-7
0.034, 4.3698978e-7, 3.1574939e-7
0.033, 4.0125420e-7, 2.9528431e-7
0.032, 4.0107278e-7, 2.9139247e-7
0.031, 4.3664346e-7, 2.9351980e-7
0.030, 3.7280756e-7, 2.7655074e-7
0.029, 4.3674243e-7, 2.7331856e-7
0.028, 3.6931152e-7, 2.0280389e-7
0.027, 4.1629380e-7, 2.8593405e-7
0.026, 4.1901478e-7, 3.0324938e-7
0.025, 3.7610573e-7, 2.9472363e-7
0.024, 4.2033406e-7, 2.8751714e-7
0.023, 3.6154435e-7, 2.6335812e-7
0.022, 4.1795937e-7, 2.7796895e-7
0.021, 3.7048238e-7, 2.3195963e-7
0.020, 3.9536701e-7, 2.6352302e-7
0.019, 4.0653126e-7, 3.0720719e-7
0.018, 3.6164329e-7, 2.9693339e-7
0.017, 4.1784398e-7, 3.2196644e-7
0.016, 3.6974029e-7, 2.8238850e-7
0.015, 4.1401807e-7, 2.6870111e-7
0.014, 3.9775813e-7, 2.3789633e-7
0.013, 3.8794613e-7, 2.3553812e-7
0.012, 4.0600355e-7, 2.7782056e-7
0.011, 3.4795590e-7, 2.6123081e-7
0.010, 4.0097387e-7, 3.2102645e-7
0.009, 3.6767892e-7, 2.7717738e-7
0.008, 3.8606618e-7, 2.3428484e-7
0.007, 3.9785709e-7, 2.5057773e-7
0.006, 3.4625737e-7, 2.1579865e-7
0.005, 3.9640588e-7, 2.6848676e-7
0.004, 3.4861557e-7, 2.5547553e-7
0.003, 3.9413018e-7, 2.8905077e-7
0.002, 3.7821655e-7, 3.0211152e-7
0.001, 3.7836497e-7, 2.4205201e-7
-0.000, 3.9955563e-7, 2.6287989e-7
-0.001, 3.4388273e-7, 2.1086788e-7
-0.002, 4.0974697e-7, 2.6974007e-7
-0.003, 3.4838470e-7, 2.6936075e-7
-0.004, 3.7157076e-7, 2.9671901e-7
-0.005, 3.8817700e-7, 3.0504685e-7
-0.006, 3.4802190e-7, 2.2709483e-7
-0.007, 4.0008337e-7, 2.5224332e-7
-0.008, 3.3596712e-7, 1.7714420e-7
-0.009, 3.9124430e-7, 2.4284356e-7
-0.010, 3.6927855e-7, 2.7443994e-7
-0.011, 3.6871785e-7, 2.6289638e-7
-0.012, 3.9074956e-7, 3.4038663e-7
-0.013, 3.4371780e-7, 2.4060080e-7
-0.014, 4.0189735e-7, 2.5265558e-7
-0.015, 3.5418947e-7, 2.1523795e-7
-0.016, 3.8997450e-7, 2.0780058e-7
-0.017, 3.9155759e-7, 2.9821967e-7
-0.018, 3.4655420e-7, 2.3481255e-7
-0.019, 3.9914340e-7, 3.1569994e-7
-0.020, 3.2999745e-7, 2.5455202e-7
-0.021, 3.9109585e-7, 2.6057117e-7
-0.022, 3.6184119e-7, 2.6345708e-7
-0.023, 3.7227989e-7, 1.8195951e-7
-0.024, 3.9068362e-7, 2.9079882e-7
-0.025, 3.3103638e-7, 2.5268858e-7
-0.026, 3.9599365e-7, 2.7895842e-7
-0.027, 3.4371777e-7, 2.5107246e-7
-0.028, 4.0273835e-7, 2.3134946e-7
-0.029, 3.8799561e-7, 2.7983242e-7
-0.030, 3.4274484e-7, 2.0893847e-7
-0.031, 4.0809789e-7, 2.5212788e-7
-0.032, 3.3491170e-7, 2.4566350e-7
-0.033, 3.8882013e-7, 2.9942350e-7
-0.034, 3.6136296e-7, 2.9533379e-7
-0.035, 3.6974029e-7, 2.3232244e-7
-0.036, 4.0992836e-7, 2.5954876e-7
-0.037, 3.4939063e-7, 1.9503672e-7
-0.038, 3.9698310e-7, 2.5173210e-7
-0.039, 3.5219409e-7, 2.5070966e-7
-0.040, 3.8294942e-7, 2.6332515e-7
-0.041, 3.9863215e-7, 3.2481933e-7
-0.042, 3.7280756e-7, 2.6797554e-7
-0.043, 4.0334854e-7, 2.5209491e-7
-0.044, 3.4939063e-7, 2.2053150e-7
-0.045, 4.0572320e-7, 2.0250704e-7
-0.046, 3.6962484e-7, 2.6091749e-7
-0.047, 3.8402132e-7, 2.3591741e-7
-0.048, 3.9813744e-7, 3.1088462e-7
-0.049, 3.4958853e-7, 2.7425855e-7
-0.050, 4.1654118e-7, 2.6330864e-7
-0.051, 3.6523829e-7, 2.5664636e-7
-0.052, 4.0366186e-7, 2.2711133e-7
-0.053, 3.8700614e-7, 3.0765241e-7
-0.054, 3.8461499e-7, 2.6162658e-7
-0.055, 4.0498111e-7, 3.1246776e-7
-0.056, 3.6255028e-7, 2.7876052e-7
-0.057, 4.2320346e-7, 2.4719714e-7
-0.058, 3.7297247e-7, 2.6307777e-7
-0.059, 4.0422253e-7, 2.1446289e-7
-0.060, 4.1325950e-7, 2.9861548e-7
-0.061, 3.6255031e-7, 2.6327567e-7
-0.062, 4.2943702e-7, 2.9917612e-7
-0.063, 3.5720728e-7, 3.1372102e-7
-0.064, 4.2303856e-7, 2.6205535e-7
-0.065, 4.0961504e-7, 2.9093076e-7
-0.066, 4.1434788e-7, 1.9704859e-7
-0.067, 4.3410387e-7, 2.8369126e-7
-0.068, 3.8603321e-7, 2.8322955e-7
-0.069, 4.4352012e-7, 3.1500730e-7
-0.070, 4.0214474e-7, 3.1342421e-7
-0.071, 4.2061441e-7, 3.0293603e-7
-0.072, 4.3830903e-7, 3.1289647e-7
-0.073, 4.0310118e-7, 2.0249057e-7
-0.074, 4.5272202e-7, 2.3326240e-7
-0.075, 3.8656091e-7, 2.7872753e-7
-0.076, 4.4315732e-7, 2.9863196e-7
-0.077, 4.4371802e-7, 3.3825933e-7
-0.078, 4.3233939e-7, 2.6289638e-7
-0.079, 4.6072003e-7, 3.1424872e-7
-0.080, 4.2028461e-7, 2.6729941e-7
-0.081, 4.6733282e-7, 2.4942338e-7
-0.082, 4.1921271e-7, 2.9767546e-7
-0.083, 4.5704260e-7, 2.9892880e-7
-0.084, 4.6983945e-7, 3.3750075e-7
-0.085, 4.3614875e-7, 2.9084828e-7
-0.086, 4.8095427e-7, 2.8070644e-7
-0.087, 4.2127402e-7, 3.0827908e-7
-0.088, 4.8430189e-7, 2.7925523e-7
-0.089, 4.6845423e-7, 3.1302841e-7
-0.090, 4.5582226e-7, 3.0232587e-7
-0.091, 4.9820363e-7, 3.3964454e-7
-0.092, 4.4267910e-7, 3.2513267e-7
-0.093, 4.9564755e-7, 2.9508641e-7
-0.094, 4.5455249e-7, 3.0529424e-7
-0.095, 5.0333227e-7, 2.5875718e-7
-0.096, 4.9972084e-7, 3.4084840e-7
-0.097, 4.6398520e-7, 3.1393540e-7
-0.098, 5.2562785e-7, 3.3519206e-7
-0.099, 4.5761979e-7, 3.4536686e-7
-0.100, 5.1119838e-7, 3.3418610e-7
-0.101, 4.9332237e-7, 3.2559441e-7
-0.102, 4.9975375e-7, 2.6555139e-7
-0.103, 5.4042005e-7, 3.3199285e-7
-0.104, 4.7717782e-7, 3.3054164e-7
-0.105, 5.4698342e-7, 3.5562414e-7
-0.106, 4.9228345e-7, 3.4617491e-7
-0.107, 5.2922286e-7, 3.2803504e-7
-0.108, 5.3209226e-7, 3.5038008e-7
-0.109, 5.2638643e-7, 2.6510614e-7
-0.110, 5.6029148e-7, 3.3921583e-7
-0.111, 4.9863240e-7, 3.5094078e-7
-0.112, 5.5610280e-7, 3.7867829e-7
-0.113, 5.3082243e-7, 3.9614207e-7
-0.114, 5.5318401e-7, 3.2399478e-7
-0.115, 5.6898216e-7, 3.6400149e-7
-0.116, 5.2341807e-7, 2.8159695e-7
-0.117, 5.7336871e-7, 3.3809442e-7
-0.118, 5.3628094e-7, 3.5963143e-7
-0.119, 5.7361609e-7, 3.7884320e-7
-0.120, 5.6824013e-7, 4.3644559e-7
-0.121, 5.7514967e-7, 3.6022510e-7
-0.122, 6.0511354e-7, 3.4815383e-7
-0.123, 5.4643925e-7, 3.0781732e-7
-0.124, 6.1192418e-7, 3.2323621e-7
-0.125, 5.7101056e-7, 3.8731949e-7
-0.126, 5.8177898e-7, 3.8527463e-7
-0.127, 6.1301262e-7, 4.5374443e-7
-0.128, 5.7696371e-7, 3.8449957e-7
-0.129, 6.2894270e-7, 3.7979967e-7
-0.130, 5.6825661e-7, 3.2765575e-7
-0.131, 6.1682192e-7, 3.6141242e-7
-0.132, 6.2346777e-7, 3.8868819e-7
-0.133, 5.9957256e-7, 3.5989527e-7
-0.134, 6.3544007e-7, 4.4947330e-7
-0.135, 5.8179546e-7, 3.9981956e-7
-0.136, 6.5837878e-7, 3.9327264e-7
-0.137, 6.1151195e-7, 3.3070654e-7
-0.138, 6.1972435e-7, 3.5315054e-7
-0.139, 6.4254766e-7, 4.3611578e-7
-0.140, 6.0724085e-7, 3.9421263e-7
-0.141, 6.6169343e-7, 4.5123781e-7
-0.142, 6.0884042e-7, 4.1086832e-7
-0.143, 6.5328311e-7, 4.1301212e-7
-0.144, 6.4823695e-7, 3.8530760e-7
-0.145, 6.4549948e-7, 3.5613539e-7
-0.146, 6.6593157e-7, 4.5908743e-7
-0.147, 6.1327643e-7, 3.9394877e-7
-0.148, 6.8074030e-7, 4.7099380e-7
-0.149, 6.3471452e-7, 4.0687758e-7
-0.150, 6.8768293e-7, 3.9777467e-7
-0.151, 6.7976737e-7, 3.9836831e-7
-0.152, 6.3511027e-7, 3.3522502e-7
-0.153, 6.9978717e-7, 4.1253389e-7
-0.154, 6.2866241e-7, 4.0602004e-7
-0.155, 6.9081619e-7, 4.8469769e-7
-0.156, 6.6499160e-7, 4.3306497e-7
-0.157, 6.6952657e-7, 4.1014272e-7
-0.158, 7.0898903e-7, 3.9050218e-7
-0.159, 6.4573032e-7, 3.8062421e-7
-0.160, 6.9803917e-7, 4.3034396e-7
-0.161, 6.5755421e-7, 4.2427538e-7
-0.162, 7.0771927e-7, 4.7933815e-7
-0.163, 7.1391980e-7, 4.7096083e-7
-0.164, 6.8347782e-7, 4.1776150e-7
-0.165, 7.2549631e-7, 4.0956559e-7
-0.166, 6.5641643e-7, 3.6794279e-7
-0.167, 7.2233013e-7, 4.3943044e-7
-0.168, 6.8824363e-7, 4.2930506e-7
-0.169, 6.9340524e-7, 4.7450635e-7
-0.170, 7.2549642e-7, 4.8436783e-7
-0.171, 6.7186829e-7, 4.2531428e-7
-0.172, 7.3379124e-7, 4.1815724e-7
-0.173, 6.8553913e-7, 3.8380693e-7
-0.174, 7.2780506e-7, 4.5707554e-7
-0.175, 7.1931231e-7, 4.6947667e-7
-0.176, 7.0646598e-7, 4.9449324e-7
-0.177, 7.3634732e-7, 4.7759016e-7
-0.178, 7.0559196e-7, 4.2788685e-7
-0.179, 7.4657157e-7, 4.1548577e-7
-0.180, 7.1629449e-7, 4.0216119e-7
-0.181, 7.4296008e-7, 4.4544959e-7
-0.182, 7.5143640e-7, 4.8136650e-7
-0.183, 7.1225429e-7, 5.1354004e-7
-0.184, 7.6573394e-7, 4.8126759e-7
-0.185, 7.2223116e-7, 4.2447328e-7
-0.186, 7.6896606e-7, 4.1868498e-7
-0.187, 7.5943444e-7, 4.4225033e-7
-0.188, 7.4592845e-7, 4.4848386e-7
-0.189, 7.6842196e-7, 4.6009342e-7
-0.190, 7.2473779e-7, 5.2673272e-7
-0.191, 7.9860007e-7, 4.8990876e-7
-0.192, 7.4698391e-7, 4.5540997e-7
-0.193, 7.5860987e-7, 4.3731958e-7
-0.194, 8.0971489e-7, 4.4272858e-7
-0.195, 7.4993574e-7, 4.7074644e-7
-0.196, 7.9014029e-7, 5.0362911e-7
-0.197, 7.3901884e-7, 5.0798269e-7
-0.198, 7.9876497e-7, 5.1172611e-7
-0.199, 8.0448729e-7, 4.9922608e-7
-0.200, 7.9838571e-7, 4.2689743e-7
-0.201, 8.2407837e-7, 4.8923266e-7
-0.202, 7.6987311e-7, 4.9444373e-7
-0.203, 8.3624866e-7, 5.0425575e-7
-0.204, 8.0893983e-7, 5.2389635e-7
-0.205, 8.2330331e-7, 5.0852685e-7
-0.206, 8.4442809e-7, 5.3159749e-7
-0.207, 7.9540087e-7, 4.2607286e-7
-0.208, 8.5318459e-7, 4.3270217e-7
-0.209, 7.9681911e-7, 5.1469442e-7
-0.210, 8.3857378e-7, 5.3791348e-7
-0.211, 8.3794714e-7, 5.7569389e-7
-0.212, 8.2267661e-7, 5.1904800e-7
-0.213, 8.8516032e-7, 5.3689109e-7
-0.214, 8.2270969e-7, 4.8379070e-7
-0.215, 8.8146635e-7, 4.9556508e-7
-0.216, 8.3872214e-7, 5.1354010e-7
-0.217, 8.9462600e-7, 5.2191740e-7
-0.218, 8.9701723e-7, 6.1034109e-7
-0.219, 8.4300984e-7, 5.5633370e-7
-0.220, 9.3794739e-7, 5.0570696e-7
-0.221, 8.5699401e-7, 4.6855317e-7
-0.222, 9.1096842e-7, 5.1027490e-7
-0.223, 8.8758441e-7, 5.6700327e-7
-0.224, 8.8003162e-7, 5.4065094e-7
-0.225, 9.5943483e-7, 6.1614588e-7
-0.226, 8.8220850e-7, 5.6893271e-7
-0.227, 9.4355420e-7, 5.5733966e-7
-0.228, 9.1167749e-7, 5.0554206e-7
-0.229, 9.5770338e-7, 5.1909745e-7
-0.230, 9.6246924e-7, 5.9833582e-7
-0.231, 9.1721841e-7, 5.5532780e-7
-0.232, 9.7203383e-7, 6.2236290e-7
-0.233, 9.2455684e-7, 6.0412407e-7
-0.234, 9.9629187e-7, 5.7701317e-7
-0.235, 9.5555959e-7, 5.2678217e-7
-0.236, 9.6764734e-7, 4.8915012e-7
-0.237, 1.0134422e-6, 6.0758708e-7
-0.238, 9.3433584e-7, 6.0513003e-7
-0.239, 1.0275089e-6, 6.4117887e-7
-0.240, 9.7627208e-7, 6.1866893e-7
-0.241, 1.0281026e-6, 5.8479679e-7
-0.242, 1.0242437e-6, 5.8041030e-7
-0.243, 1.0260412e-6, 5.4193725e-7
-0.244, 1.0230235e-6, 6.1677252e-7
-0.245, 9.7516715e-7, 6.1889983e-7
-0.246, 1.0559886e-6, 6.9815462e-7
-0.247, 1.0297516e-6, 6.6266642e-7
-0.248, 1.0422023e-6, 6.0605350e-7
-0.249, 1.0840724e-6, 5.8773219e-7
-0.250, 1.0214073e-6, 5.5471764e-7
-0.251, 1.0809226e-6, 6.4592825e-7
-0.252, 1.0232708e-6, 6.6020925e-7
-0.253, 1.0920373e-6, 6.9289405e-7
-0.254, 1.0879808e-6, 7.0117244e-7
-0.255, 1.0889041e-6, 6.1865245e-7
-0.256, 1.1059557e-6, 6.0084238e-7
-0.257, 1.0623869e-6, 5.9236612e-7
-0.258, 1.1239307e-6, 6.7272583e-7
-0.259, 1.0813019e-6, 6.5748827e-7
-0.260, 1.0887228e-6, 7.2106036e-7
-0.261, 1.1357215e-6, 7.2978401e-7
-0.262, 1.0964075e-6, 6.0559171e-7
-0.263, 1.1377665e-6, 6.0928568e-7
-0.264, 1.0755631e-6, 5.7305539e-7
-0.265, 1.1427137e-6, 6.9137690e-7
-0.266, 1.1359525e-6, 7.0262365e-7
-0.267, 1.1215890e-6, 7.0415729e-7
-0.268, 1.1618595e-6, 7.2872854e-7
-0.269, 1.1094847e-6, 6.8387357e-7
-0.270, 1.1685217e-6, 6.5206279e-7
-0.271, 1.1300981e-6, 6.1761352e-7
-0.272, 1.1593364e-6, 6.9079971e-7
-0.273, 1.1769980e-6, 6.9751150e-7
-0.274, 1.1289769e-6, 7.0206295e-7
-0.275, 1.1688680e-6, 7.0211240e-7
-0.276, 1.1240131e-6, 6.6647578e-7
-0.277, 1.1869255e-6, 6.4701663e-7
-0.278, 1.1640197e-6, 6.0244201e-7
-0.279, 1.1468529e-6, 6.6548637e-7
-0.280, 1.1939341e-6, 7.1678926e-7
-0.281, 1.1158007e-6, 7.4848452e-7
-0.282, 1.1734361e-6, 7.1476080e-7
-0.283, 1.1478588e-6, 6.6227062e-7
-0.284, 1.1961604e-6, 6.5653182e-7
-0.285, 1.1843695e-6, 6.6055554e-7
-0.286, 1.1222156e-6, 6.6538740e-7
-0.287, 1.1797190e-6, 6.5578973e-7
-0.288, 1.1280533e-6, 7.5501487e-7
-0.289, 1.1617440e-6, 7.4830314e-7
-0.290, 1.1478423e-6, 6.8205964e-7
-0.291, 1.1530699e-6, 6.4155819e-7
-0.292, 1.1911801e-6, 6.2162081e-7
-0.293, 1.1292902e-6, 6.9380104e-7
-0.294, 1.1599136e-6, 6.8868889e-7
-0.295, 1.1283831e-6, 7.1997192e-7
-0.296, 1.1575884e-6, 7.2051614e-7
-0.297, 1.1932746e-6, 6.9790724e-7
-0.298, 1.1287459e-6, 6.6456283e-7
-0.299, 1.1642671e-6, 6.0522893e-7
-0.300, 1.1201543e-6, 6.8365921e-7
-0.301, 1.1427137e-6, 6.8682544e-7
-0.302, 1.1263382e-6, 7.4858349e-7
-0.303, 1.1424003e-6, 6.8723767e-7
-0.304, 1.1525588e-6, 6.9340524e-7
-0.305, 1.1049003e-6, 6.7821725e-7
-0.306, 1.1497882e-6, 5.9005743e-7
-0.307, 1.1223640e-6, 6.6626137e-7
-0.308, 1.1285151e-6, 6.8364272e-7
-0.309, 1.1390198e-6, 7.3031163e-7
-0.310, 1.1106720e-6, 6.9416387e-7
-0.311, 1.1406853e-6, 6.5376139e-7
-0.312, 1.1051641e-6, 6.6603053e-7
-0.313, 1.1422849e-6, 6.0905478e-7
-0.314, 1.1163779e-6, 6.8067436e-7
-0.315, 1.0908501e-6, 6.7170339e-7
-0.316, 1.1251179e-6, 7.4663751e-7
-0.317, 1.0788283e-6, 6.8153190e-7
-0.318, 1.1277400e-6, 6.5108986e-7
-0.319, 1.0898937e-6, 6.5184838e-7
-0.320, 1.1056588e-6, 6.0021574e-7
-0.321, 1.1192308e-6, 6.7917370e-7
-0.322, 1.0841053e-6, 6.2480353e-7
-0.323, 1.1262558e-6, 7.2699703e-7
-0.324, 1.0815822e-6, 7.0712559e-7
-0.325, 1.1295045e-6, 6.5311826e-7
-0.326, 1.1041087e-6, 6.3802912e-7
-0.327, 1.0909986e-6, 5.8062466e-7
-0.328, 1.1248376e-6, 6.9577993e-7
-0.329, 1.0717373e-6, 6.3740248e-7
-0.330, 1.1153719e-6, 6.9132744e-7
-0.331, 1.0533006e-6, 6.8364272e-7
-0.332, 1.0968527e-6, 6.5996193e-7
-0.333, 1.1047189e-6, 6.6871854e-7
-0.334, 1.0695769e-6, 5.6654153e-7
-0.335, 1.1207314e-6, 6.6111630e-7
-0.336, 1.0509093e-6, 6.7236300e-7
-0.337, 1.1063844e-6, 6.9302598e-7
-0.338, 1.0830994e-6, 7.1621201e-7
-0.339, 1.1005302e-6, 6.3370857e-7
-0.340, 1.1210448e-6, 6.8593494e-7
-0.341, 1.0755632e-6, 5.8436808e-7
-0.342, 1.1224465e-6, 6.1934509e-7
-0.343, 1.0671693e-6, 6.5979702e-7
-0.344, 1.1021463e-6, 7.1162759e-7
-0.345, 1.0930269e-6, 7.1647588e-7
-0.346, 1.0678784e-6, 6.4195399e-7
-0.347, 1.1372388e-6, 6.6881745e-7
-0.348, 1.0697089e-6, 5.9300925e-7
-0.349, 1.1187856e-6, 6.3163071e-7
-0.350, 1.0774761e-6, 6.6090189e-7
-0.351, 1.1053950e-6, 6.9462556e-7
-0.352, 1.1319617e-6, 7.6886715e-7
-0.353, 1.0783830e-6, 6.5701005e-7
-0.354, 1.1394320e-6, 6.6109976e-7
-0.355, 1.0868757e-6, 6.0367881e-7
-0.356, 1.1298508e-6, 6.5239260e-7
-0.357, 1.0952861e-6, 6.9685188e-7
-0.358, 1.1040098e-6, 6.6847116e-7
-0.359, 1.1392506e-6, 7.5031505e-7
-0.360, 1.0848310e-6, 6.7444086e-7
-0.361, 1.1496563e-6, 6.7392961e-7
-0.362, 1.0998706e-6, 5.9953965e-7
-0.363, 1.1339075e-6, 6.5565786e-7
-0.364, 1.1327038e-6, 7.2731035e-7
-0.365, 1.1128323e-6, 7.2750822e-7
-0.366, 1.1585778e-6, 7.5874181e-7
-0.367, 1.1087920e-6, 6.9480700e-7
-0.368, 1.1688021e-6, 6.8492898e-7
-0.369, 1.1337097e-6, 6.4732995e-7
-0.370, 1.1514703e-6, 6.9302598e-7
-0.371, 1.1563021e-6, 7.4714876e-7
-0.372, 1.1178786e-6, 7.4700040e-7
-0.373, 1.1822422e-6, 7.5295355e-7
-0.374, 1.1201378e-6, 6.9808863e-7
-0.375, 1.1715725e-6, 7.1886706e-7
-0.376, 1.1794057e-6, 6.7848106e-7
-0.377, 1.1759262e-6, 7.0189805e-7
-0.378, 1.2059890e-6, 7.4289414e-7
-0.379, 1.1527401e-6, 7.7196739e-7
-0.380, 1.2219850e-6, 7.7795357e-7
-0.381, 1.1832645e-6, 7.2585914e-7
-0.382, 1.1837427e-6, 7.4482352e-7
-0.383, 1.2323577e-6, 7.1584918e-7
-0.384, 1.1821926e-6, 7.1248513e-7
-0.385, 1.2274600e-6, 7.5938499e-7
-0.386, 1.1860020e-6, 7.6855383e-7
-0.387, 1.2260252e-6, 8.0506447e-7
-0.388, 1.2340232e-6, 7.6603078e-7
-0.389, 1.2363320e-6, 7.2874508e-7
-0.390, 1.2489309e-6, 7.2760713e-7
-0.391, 1.2079183e-6, 7.9221820e-7
-0.392, 1.2654548e-6, 7.7153868e-7
-0.393, 1.2303458e-6, 7.9505458e-7
-0.394, 1.2594520e-6, 8.1589894e-7
-0.395, 1.2834132e-6, 8.0666410e-7
-0.396, 1.2394157e-6, 7.5722471e-7
-0.397, 1.2925821e-6, 7.0902206e-7
-0.398, 1.2523610e-6, 7.8451694e-7
-0.399, 1.3019488e-6, 8.0829670e-7
-0.400, 1.2844851e-6, 8.3672683e-7
-0.401, 1.2714079e-6, 8.0702688e-7
-0.402, 1.3281527e-6, 8.1540418e-7
-0.403, 1.2630142e-6, 8.0801635e-7
-0.404, 1.3338256e-6, 7.4431239e-7
-0.405, 1.2981560e-6, 8.1261732e-7
-0.406, 1.3220347e-6, 8.0493254e-7
-0.407, 1.3509925e-6, 8.8144992e-7
-0.408, 1.2864145e-6, 8.4828685e-7
-0.409, 1.3582155e-6, 8.0166740e-7
-0.410, 1.2930933e-6, 8.1817461e-7
-0.411, 1.3600788e-6, 7.7978405e-7
-0.412, 1.3409497e-6, 8.3209289e-7
-0.413, 1.3177471e-6, 7.9215221e-7
-0.414, 1.3802471e-6, 8.8659505e-7
-0.415, 1.3194621e-6, 8.5743926e-7
-0.416, 1.3673184e-6, 8.3766679e-7
-0.417, 1.3304120e-6, 8.2978420e-7
-0.418, 1.3729583e-6, 7.8247206e-7
-0.419, 1.3977769e-6, 8.6786144e-7
-0.420, 1.3425162e-6, 8.3220834e-7
-0.421, 1.3837928e-6, 8.8453368e-7
-0.422, 1.3325558e-6, 8.8049342e-7
-0.423, 1.3875197e-6, 8.4856720e-7
-0.424, 1.3685387e-6, 8.4375188e-7
-0.425, 1.3728923e-6, 7.5193111e-7
-0.426, 1.3953857e-6, 8.9205344e-7
-0.427, 1.3347985e-6, 8.5763725e-7
-0.428, 1.3919228e-6, 8.8931597e-7
-0.429, 1.3504483e-6, 8.9164121e-7
-0.430, 1.3870908e-6, 8.4802309e-7
-0.431, 1.3827208e-6, 8.8953038e-7
-0.432, 1.3775757e-6, 7.8187838e-7
-0.433, 1.4014213e-6, 8.6665767e-7
-0.434, 1.3489641e-6, 8.5644979e-7
-0.435, 1.4034663e-6, 9.0170062e-7
-0.436, 1.3713916e-6, 9.0188195e-7
-0.437, 1.3872723e-6, 8.4147621e-7
-0.438, 1.4048844e-6, 8.9279558e-7
-0.439, 1.3445610e-6, 7.9691796e-7
-0.440, 1.4077209e-6, 8.6368931e-7
-0.441, 1.3439344e-6, 8.6713590e-7
-0.442, 1.3887894e-6, 8.9469199e-7
-0.443, 1.3830341e-6, 9.0834641e-7
-0.444, 1.3610684e-6, 8.2341876e-7
-0.445, 1.3970678e-6, 8.7051649e-7
-0.446, 1.3529384e-6, 7.8590222e-7
-0.447, 1.3950394e-6, 8.8120254e-7
-0.448, 1.3534167e-6, 8.5583963e-7
-0.449, 1.3466884e-6, 8.8898616e-7
-0.450, 1.3828198e-6, 9.3525944e-7
-0.451, 1.3378658e-6, 7.9614301e-7
-0.452, 1.3892677e-6, 8.3733698e-7
-0.453, 1.3305769e-6, 7.7816799e-7
-0.454, 1.3614972e-6, 8.4561532e-7
-0.455, 1.3490795e-6, 8.5771956e-7
-0.456, 1.3357055e-6, 8.4330668e-7
-0.457, 1.3593038e-6, 9.0658182e-7
-0.458, 1.3031197e-6, 8.4488977e-7
-0.459, 1.3618929e-6, 8.4652237e-7
-0.460, 1.3143169e-6, 7.7209933e-7
-0.461, 1.3412795e-6, 8.0008425e-7
-0.462, 1.3461113e-6, 8.6438195e-7
-0.463, 1.2919884e-6, 8.3910152e-7
-0.464, 1.3390367e-6, 8.7200067e-7
-0.465, 1.2740300e-6, 8.1111659e-7
-0.466, 1.3234035e-6, 8.3692470e-7
-0.467, 1.3055273e-6, 7.7749189e-7
-0.468, 1.2791916e-6, 7.4177279e-7
-0.469, 1.3191158e-6, 8.1551968e-7
-0.470, 1.2403392e-6, 8.3547354e-7
-0.471, 1.3068961e-6, 8.6352441e-7
-0.472, 1.2479909e-6, 8.2178616e-7
-0.473, 1.2825557e-6, 7.9607707e-7
-0.474, 1.2840069e-6, 7.6964227e-7
-0.475, 1.2236835e-6, 7.3585261e-7
-0.476, 1.2823248e-6, 7.7640345e-7
-0.477, 1.2017672e-6, 8.0077683e-7
-0.478, 1.2557746e-6, 8.6923023e-7
-0.479, 1.2275423e-6, 7.7660138e-7
-0.480, 1.2237824e-6, 7.5135392e-7
-0.481, 1.2501348e-6, 7.5658153e-7
-0.482, 1.1846828e-6, 7.0682876e-7
-0.483, 1.2289936e-6, 7.8544042e-7
-0.484, 1.1601940e-6, 7.6725104e-7
-0.485, 1.2004809e-6, 8.1782832e-7
-0.486, 1.1971498e-6, 8.2500191e-7
-0.487, 1.1716386e-6, 7.3126813e-7
-0.488, 1.1795541e-6, 7.2396273e-7
-0.489, 1.1435877e-6, 6.7473763e-7
-0.490, 1.1594848e-6, 7.7392980e-7
-0.491, 1.1326708e-6, 7.6053931e-7
-0.492, 1.1314670e-6, 7.5621875e-7
-0.493, 1.1527071e-6, 7.7562839e-7
-0.494, 1.1051641e-6, 7.2421005e-7
-0.495, 1.1462097e-6, 6.8961236e-7
-0.496, 1.0922023e-6, 6.5255750e-7
-0.497, 1.1196760e-6, 7.2430902e-7
-0.498, 1.0967702e-6, 7.3860656e-7
-0.499, 1.0781192e-6, 7.2475427e-7
-0.500, 1.1042900e-6, 7.2358341e-7
