Dec. 9, 2005   02:07:06
Square Wave Voltammetry
File: d:\ida_biofilms\11_28_18_blankidapyo\25um_transfer\25um_pyo_transfer_swv4_16.txt
Data Source:  Experiment
Instrument Model:  CHI760B
Header: 
Note: 

Init E (V) = 0.1
Final E (V) = -0.5
Incr E (V) = 0.001
Amplitude (V) = 0.025
Frequency (Hz) = 300
Quiet Time (sec) = 2
Sensitivity (A/V) = 1e-6
Sens 2 (A/V) = 1e-6

Potential/V, i1/A, i2/A

0.099, 7.0798313e-7, 3.8349361e-7
0.098, 6.6133066e-7, 5.0435472e-7
0.097, 6.6189136e-7, 4.7895890e-7
0.096, 6.8224097e-7, 4.6415013e-7
0.095, 6.3506081e-7, 4.4940737e-7
0.094, 6.7757412e-7, 4.1114868e-7
0.093, 6.2638662e-7, 3.9500418e-7
0.092, 6.5181547e-7, 4.5260657e-7
0.091, 6.5435506e-7, 4.8552215e-7
0.090, 6.1556864e-7, 4.4609268e-7
0.089, 6.3520923e-7, 4.6840478e-7
0.088, 5.9657128e-7, 4.1507349e-7
0.087, 6.4068416e-7, 4.3980970e-7
0.086, 6.1776188e-7, 3.7274160e-7
0.085, 6.0750466e-7, 4.0262293e-7
0.084, 6.2564459e-7, 4.6114883e-7
0.083, 5.6979013e-7, 4.4892911e-7
0.082, 6.2242884e-7, 4.8698990e-7
0.081, 5.7270910e-7, 4.1175883e-7
0.080, 6.2089521e-7, 3.9317371e-7
0.079, 6.0527839e-7, 3.6639264e-7
0.078, 5.5127106e-7, 3.3291633e-7
0.077, 6.0066100e-7, 3.9831883e-7
0.076, 5.3116878e-7, 4.0610252e-7
0.075, 5.8486279e-7, 4.3928202e-7
0.074, 5.5221096e-7, 4.2015267e-7
0.073, 5.4455927e-7, 3.6657406e-7
0.072, 5.9487274e-7, 3.5758657e-7
0.071, 5.1405129e-7, 3.1749741e-7
0.070, 5.8130081e-7, 3.7735902e-7
0.069, 5.2084550e-7, 3.6299554e-7
0.068, 5.4498810e-7, 4.0080897e-7
0.067, 5.5306850e-7, 4.4307490e-7
0.066, 5.1205586e-7, 3.8461499e-7
0.065, 5.5648218e-7, 3.5664658e-7
0.064, 4.8598395e-7, 3.1878369e-7
0.063, 5.3873799e-7, 3.5054501e-7
0.062, 5.0661396e-7, 3.6777789e-7
0.061, 4.9996817e-7, 3.3824284e-7
0.060, 5.3065753e-7, 4.3735258e-7
0.059, 4.7922271e-7, 3.7221389e-7
0.058, 5.3110284e-7, 3.3954564e-7
0.057, 4.7526493e-7, 3.3064060e-7
0.056, 5.1235276e-7, 2.9858248e-7
0.055, 5.1472745e-7, 3.6995465e-7
0.054, 4.7412706e-7, 3.4116169e-7
0.053, 5.0427229e-7, 3.6809121e-7
0.052, 4.5628400e-7, 4.0415659e-7
0.051, 5.0478343e-7, 3.1311089e-7
0.050, 4.7996480e-7, 3.3143215e-7
0.049, 4.9066733e-7, 2.7861211e-7
0.048, 4.7823329e-7, 3.0056134e-7
0.047, 4.3756700e-7, 3.3971054e-7
0.046, 4.8036054e-7, 3.3814391e-7
0.045, 4.3214149e-7, 3.3898493e-7
0.044, 4.7823329e-7, 3.4836819e-7
0.043, 4.6396875e-7, 3.2135625e-7
0.042, 4.6301227e-7, 3.0742154e-7
0.041, 4.8106972e-7, 2.5679478e-7
0.040, 4.2892577e-7, 3.3004693e-7
0.039, 4.7112573e-7, 3.1612868e-7
0.038, 4.3771536e-7, 3.3228969e-7
0.037, 4.4332228e-7, 3.4572966e-7
0.036, 4.7439090e-7, 3.3707198e-7
0.035, 4.3204253e-7, 2.8524141e-7
0.034, 4.5875763e-7, 2.5333171e-7
0.033, 4.0531094e-7, 2.3829209e-7
0.032, 4.5117187e-7, 3.3090447e-7
0.031, 4.3075624e-7, 3.3989193e-7
0.030, 4.4131036e-7, 3.4922573e-7
0.029, 4.4627410e-7, 3.5446982e-7
0.028, 4.1726679e-7, 2.9896177e-7
0.027, 4.5785060e-7, 2.9726320e-7
0.026, 4.0753719e-7, 2.4238182e-7
0.025, 4.4602672e-7, 3.1243474e-7
0.024, 4.2561112e-7, 3.2148819e-7
0.023, 4.0860911e-7, 3.1772828e-7
0.022, 4.4478992e-7, 3.0842747e-7
0.021, 3.9117833e-7, 2.6952566e-7
0.020, 4.4018898e-7, 3.0651455e-7
0.019, 4.2272524e-7, 2.2544575e-7
0.018, 4.0552533e-7, 2.6931127e-7
0.017, 4.3362564e-7, 3.2392882e-7
0.016, 3.8362555e-7, 3.1723357e-7
0.015, 4.4114546e-7, 3.4243152e-7
0.014, 3.8177859e-7, 2.6393531e-7
0.013, 4.2885983e-7, 2.8388916e-7
0.012, 4.2820017e-7, 2.8708837e-7
0.011, 3.8166314e-7, 2.2584155e-7
0.010, 4.3896870e-7, 2.7552832e-7
0.009, 3.5859250e-7, 2.7551181e-7
0.008, 4.2689743e-7, 3.3007990e-7
0.007, 3.8641249e-7, 2.9713129e-7
0.006, 3.9467437e-7, 2.4666943e-7
0.005, 4.3530773e-7, 2.8298217e-7
0.004, 3.7641905e-7, 2.0354597e-7
0.003, 4.2170279e-7, 2.8865500e-7
0.002, 3.7030097e-7, 2.8713785e-7
0.001, 4.1322653e-7, 3.1449611e-7
-0.000, 4.0509656e-7, 3.1914649e-7
-0.001, 3.9063414e-7, 2.5954873e-7
-0.002, 4.1621135e-7, 2.7618796e-7
-0.003, 3.6756347e-7, 2.1560076e-7
-0.004, 4.1278128e-7, 2.3789632e-7
-0.005, 3.7237879e-7, 2.8461474e-7
-0.006, 3.8891909e-7, 2.7308769e-7
-0.007, 4.0168294e-7, 3.5750412e-7
-0.008, 3.6563407e-7, 2.9147492e-7
-0.009, 4.0742177e-7, 2.7297224e-7
-0.010, 3.5926863e-7, 2.8779749e-7
-0.011, 4.0540988e-7, 2.1810735e-7
-0.012, 3.9858270e-7, 2.9981928e-7
-0.013, 3.7539661e-7, 2.6202235e-7
-0.014, 4.0859260e-7, 3.1541958e-7
-0.015, 3.6718421e-7, 2.8868800e-7
-0.016, 4.1756363e-7, 2.6993794e-7
-0.017, 3.8240523e-7, 2.6390231e-7
-0.018, 3.8852329e-7, 2.1687055e-7
-0.019, 4.1528784e-7, 2.9840106e-7
-0.020, 3.6398498e-7, 2.5512921e-7
-0.021, 4.2097719e-7, 2.9325594e-7
-0.022, 3.6347379e-7, 3.1096707e-7
-0.023, 4.0382679e-7, 2.6624400e-7
-0.024, 3.9520208e-7, 2.8204221e-7
-0.025, 3.8974360e-7, 1.9096348e-7
-0.026, 4.2148844e-7, 2.3890226e-7
-0.027, 3.5113865e-7, 2.8519196e-7
-0.028, 4.0626742e-7, 3.0385954e-7
-0.029, 3.7381352e-7, 3.1678832e-7
-0.030, 3.9060114e-7, 2.7894191e-7
-0.031, 4.1584855e-7, 2.8649472e-7
-0.032, 3.6987220e-7, 2.1477621e-7
-0.033, 4.1926216e-7, 2.2448928e-7
-0.034, 3.5941704e-7, 2.6950920e-7
-0.035, 3.9975353e-7, 2.7282383e-7
-0.036, 3.8621459e-7, 3.0201255e-7
-0.037, 3.9162359e-7, 2.4384951e-7
-0.038, 4.0862562e-7, 2.8947954e-7
-0.039, 3.6784382e-7, 2.4835151e-7
-0.040, 4.2435781e-7, 2.3393852e-7
-0.041, 3.8102002e-7, 2.7171896e-7
-0.042, 4.0320012e-7, 2.7943662e-7
-0.043, 4.2091125e-7, 3.1779427e-7
-0.044, 3.7729308e-7, 2.8913325e-7
-0.045, 4.1807482e-7, 2.5526114e-7
-0.046, 3.6784382e-7, 2.7063058e-7
-0.047, 4.2031758e-7, 2.3438378e-7
-0.048, 3.9708203e-7, 2.5555795e-7
-0.049, 3.7641905e-7, 2.7783705e-7
-0.050, 4.2900825e-7, 2.9190369e-7
-0.051, 3.6622777e-7, 3.2302182e-7
-0.052, 4.3811113e-7, 2.6508965e-7
-0.053, 3.7668292e-7, 2.5450254e-7
-0.054, 4.1726676e-7, 2.2867798e-7
-0.055, 4.2589147e-7, 2.5882315e-7
-0.056, 3.8665985e-7, 2.8045906e-7
-0.057, 4.2785388e-7, 2.9511941e-7
-0.058, 3.7808462e-7, 3.3108586e-7
-0.059, 4.2579254e-7, 3.0936746e-7
-0.060, 4.0334854e-7, 2.8116818e-7
-0.061, 4.1095080e-7, 2.4823606e-7
-0.062, 4.4262964e-7, 2.4661995e-7
-0.063, 3.8923241e-7, 2.7678163e-7
-0.064, 4.3618172e-7, 2.8510948e-7
-0.065, 3.9680168e-7, 3.1929491e-7
-0.066, 4.2989873e-7, 3.0425531e-7
-0.067, 4.2910716e-7, 2.9343732e-7
-0.068, 4.2358278e-7, 2.9079882e-7
-0.069, 4.4404786e-7, 2.3560409e-7
-0.070, 4.1063748e-7, 3.0164978e-7
-0.071, 4.5008346e-7, 2.8438387e-7
-0.072, 4.2010319e-7, 3.2912345e-7
-0.073, 4.4340470e-7, 3.0852644e-7
-0.074, 4.4934137e-7, 3.0056137e-7
-0.075, 4.0184787e-7, 2.8771504e-7
-0.076, 4.5872463e-7, 2.4891216e-7
-0.077, 4.0837824e-7, 2.9035357e-7
-0.078, 4.5714154e-7, 3.0695981e-7
-0.079, 4.5443704e-7, 3.3106937e-7
-0.080, 4.4784073e-7, 3.1349015e-7
-0.081, 4.6913033e-7, 2.9327242e-7
-0.082, 4.3009663e-7, 2.8946306e-7
-0.083, 4.9025510e-7, 2.4558102e-7
-0.084, 4.4132685e-7, 2.8558773e-7
-0.085, 4.6123125e-7, 3.1731602e-7
-0.086, 4.8438437e-7, 3.5481611e-7
-0.087, 4.4162368e-7, 3.5028114e-7
-0.088, 4.8369174e-7, 3.0552508e-7
-0.089, 4.2869490e-7, 2.9363522e-7
-0.090, 4.8179527e-7, 2.8227308e-7
-0.091, 4.6983945e-7, 2.8306462e-7
-0.092, 4.6936123e-7, 2.9935754e-7
-0.093, 4.9114556e-7, 3.7544612e-7
-0.094, 4.5448650e-7, 3.6667299e-7
-0.095, 5.0664693e-7, 3.4937412e-7
-0.096, 4.7704594e-7, 2.9930806e-7
-0.097, 5.0765289e-7, 2.7965103e-7
-0.098, 5.0910410e-7, 3.0242484e-7
-0.099, 4.8184478e-7, 3.1006005e-7
-0.100, 5.1665683e-7, 3.3827581e-7
-0.101, 4.6665673e-7, 3.3675866e-7
-0.102, 5.2508364e-7, 3.5892231e-7
-0.103, 5.1025842e-7, 3.2664980e-7
-0.104, 5.0951633e-7, 2.8289969e-7
-0.105, 5.3977692e-7, 2.9304155e-7
-0.106, 4.7749120e-7, 3.5344738e-7
-0.107, 5.3367535e-7, 3.4290974e-7
-0.108, 4.9098065e-7, 3.5326596e-7
-0.109, 5.4945707e-7, 3.6080226e-7
-0.110, 5.4604345e-7, 3.4935766e-7
-0.111, 5.0613573e-7, 3.5313406e-7
-0.112, 5.6822358e-7, 2.7970049e-7
-0.113, 4.9754397e-7, 3.6581548e-7
-0.114, 5.5798279e-7, 3.6675544e-7
-0.115, 5.3456586e-7, 3.8436764e-7
-0.116, 5.3748471e-7, 3.5806480e-7
-0.117, 5.7859631e-7, 3.5752061e-7
-0.118, 5.2730991e-7, 3.1042288e-7
-0.119, 5.7638653e-7, 2.9945647e-7
-0.120, 5.3672613e-7, 3.6550216e-7
-0.121, 5.6734956e-7, 3.5956546e-7
-0.122, 5.8294984e-7, 4.0750422e-7
-0.123, 5.4690099e-7, 3.6616180e-7
-0.124, 5.9576320e-7, 3.6255031e-7
-0.125, 5.4530136e-7, 3.6137942e-7
-0.126, 5.9018930e-7, 3.2100996e-7
-0.127, 5.6299598e-7, 3.6929504e-7
-0.128, 5.7754090e-7, 3.4823628e-7
-0.129, 5.9734634e-7, 4.1510646e-7
-0.130, 5.4873146e-7, 3.8941380e-7
-0.131, 6.0857656e-7, 3.6405095e-7
-0.132, 5.6721763e-7, 3.6688738e-7
-0.133, 6.0437139e-7, 3.2750734e-7
-0.134, 5.9739580e-7, 4.2143893e-7
-0.135, 5.8872166e-7, 3.7290653e-7
-0.136, 6.1634375e-7, 4.0417308e-7
-0.137, 5.7376451e-7, 4.1565070e-7
-0.138, 6.2757397e-7, 3.7129041e-7
-0.139, 5.9944068e-7, 3.7336827e-7
-0.140, 6.2138997e-7, 3.3169601e-7
-0.141, 6.3128437e-7, 4.0232612e-7
-0.142, 5.8283445e-7, 3.9333864e-7
-0.143, 6.3972772e-7, 4.2597389e-7
-0.144, 5.8471437e-7, 4.0883998e-7
-0.145, 6.3687480e-7, 4.0046265e-7
-0.146, 6.3029495e-7, 4.1769553e-7
-0.147, 6.2435828e-7, 3.0837799e-7
-0.148, 6.6108328e-7, 4.2387958e-7
-0.149, 5.9958910e-7, 3.9737887e-7
-0.150, 6.7259390e-7, 4.3974376e-7
-0.151, 6.1507393e-7, 4.2325291e-7
-0.152, 6.1647569e-7, 4.1078590e-7
-0.153, 6.6258394e-7, 4.3756694e-7
-0.154, 6.2167032e-7, 3.0634965e-7
-0.155, 6.7712887e-7, 4.0803195e-7
-0.156, 6.0659772e-7, 4.0151807e-7
-0.157, 6.6232008e-7, 4.4168962e-7
-0.158, 6.5290385e-7, 4.3278459e-7
-0.159, 6.3755090e-7, 3.8179505e-7
-0.160, 6.8118561e-7, 4.3492841e-7
-0.161, 6.3075674e-7, 3.5695990e-7
-0.162, 6.9797318e-7, 4.4160720e-7
-0.163, 6.3628113e-7, 4.1929516e-7
-0.164, 6.8121858e-7, 4.5321673e-7
-0.165, 6.7938811e-7, 4.6350698e-7
-0.166, 6.4309182e-7, 3.9785709e-7
-0.167, 6.9518626e-7, 4.0516255e-7
-0.168, 6.3567097e-7, 3.4507002e-7
-0.169, 6.9340524e-7, 4.4394889e-7
-0.170, 6.6855364e-7, 4.3886973e-7
-0.171, 6.6513996e-7, 4.3753397e-7
-0.172, 7.0376149e-7, 4.4688423e-7
-0.173, 6.4432862e-7, 4.1880043e-7
-0.174, 7.1472789e-7, 3.9897847e-7
-0.175, 6.5719144e-7, 3.6121452e-7
-0.176, 7.1286439e-7, 4.5658084e-7
-0.177, 7.0851081e-7, 4.4718109e-7
-0.178, 6.6076996e-7, 4.5567384e-7
-0.179, 7.2270939e-7, 4.4246471e-7
-0.180, 6.6924622e-7, 4.2772194e-7
-0.181, 7.1736639e-7, 4.4520220e-7
-0.182, 6.9508735e-7, 3.8362555e-7
-0.183, 7.0112299e-7, 4.2129054e-7
-0.184, 7.3013030e-7, 4.5705909e-7
-0.185, 6.7665059e-7, 4.6800898e-7
-0.186, 7.4286118e-7, 4.4775828e-7
-0.187, 7.0150224e-7, 4.2546270e-7
-0.188, 7.3834269e-7, 4.1071996e-7
-0.189, 7.2638687e-7, 4.1527139e-7
-0.190, 7.1166056e-7, 4.5387634e-7
-0.191, 7.3377475e-7, 4.7173592e-7
-0.192, 6.9520274e-7, 5.0169973e-7
-0.193, 7.5174972e-7, 4.7622137e-7
-0.194, 7.2890998e-7, 4.5597068e-7
-0.195, 7.5001822e-7, 3.8257014e-7
-0.196, 7.5849448e-7, 4.3288355e-7
-0.197, 7.0682881e-7, 4.6540345e-7
-0.198, 7.6037441e-7, 4.8652817e-7
-0.199, 7.2234661e-7, 5.1835536e-7
-0.200, 7.6558547e-7, 4.5669626e-7
-0.201, 7.6899909e-7, 4.9277816e-7
-0.202, 7.5183220e-7, 4.0966452e-7
-0.203, 7.8837581e-7, 4.4861579e-7
-0.204, 7.3583607e-7, 4.7833225e-7
-0.205, 8.0044708e-7, 5.0524523e-7
-0.206, 7.5158482e-7, 5.1185805e-7
-0.207, 7.7137378e-7, 4.7068050e-7
-0.208, 8.0963247e-7, 5.0250776e-7
-0.209, 7.5597137e-7, 4.0311767e-7
-0.210, 8.1027554e-7, 4.8534082e-7
-0.211, 7.5362965e-7, 4.6246808e-7
-0.212, 7.9805591e-7, 5.2615553e-7
-0.213, 8.1875186e-7, 5.3283429e-7
-0.214, 7.9985341e-7, 4.5453601e-7
-0.215, 8.3984355e-7, 5.2976702e-7
-0.216, 7.8052619e-7, 4.3342777e-7
-0.217, 8.5856072e-7, 5.1983955e-7
-0.218, 8.0577360e-7, 4.9286064e-7
-0.219, 8.4167408e-7, 5.4586206e-7
-0.220, 8.4477432e-7, 5.7374803e-7
-0.221, 8.1738312e-7, 4.5951617e-7
-0.222, 8.7541423e-7, 5.0554206e-7
-0.223, 8.1171027e-7, 4.3893570e-7
-0.224, 8.7216551e-7, 5.3273538e-7
-0.225, 8.5793397e-7, 5.2660079e-7
-0.226, 8.4729743e-7, 5.2503412e-7
-0.227, 8.8776585e-7, 5.7787065e-7
-0.228, 8.4733040e-7, 5.1504071e-7
-0.229, 9.0455353e-7, 5.3323009e-7
-0.230, 8.6495913e-7, 4.5887305e-7
-0.231, 9.1735035e-7, 5.3835873e-7
-0.232, 9.1500868e-7, 5.5814769e-7
-0.233, 8.7292415e-7, 6.0400862e-7
-0.234, 9.3375866e-7, 5.4086536e-7
-0.235, 8.7505146e-7, 5.2636994e-7
-0.236, 9.3029564e-7, 5.2699659e-7
-0.237, 9.1622900e-7, 4.9511988e-7
-0.238, 8.9642356e-7, 5.4746170e-7
-0.239, 9.5554310e-7, 5.7793665e-7
-0.240, 8.9688535e-7, 5.8900196e-7
-0.241, 9.5480095e-7, 5.8832586e-7
-0.242, 9.1025930e-7, 5.4831918e-7
-0.243, 9.5659846e-7, 5.0971420e-7
-0.244, 9.7653583e-7, 5.5249131e-7
-0.245, 9.2454036e-7, 5.5483304e-7
-0.246, 9.7627208e-7, 5.7209888e-7
-0.247, 9.1946117e-7, 6.2890973e-7
-0.248, 9.7927330e-7, 6.1477709e-7
-0.249, 9.6410179e-7, 5.8174601e-7
-0.250, 9.7670068e-7, 4.7343445e-7
-0.251, 9.9955707e-7, 5.6665692e-7
-0.252, 9.4065183e-7, 5.8463195e-7
-0.253, 1.0121724e-6, 6.2002118e-7
-0.254, 9.6495933e-7, 6.4980361e-7
-0.255, 9.9990336e-7, 5.8374144e-7
-0.256, 1.0142833e-6, 6.3248825e-7
-0.257, 1.0026408e-6, 4.9803873e-7
-0.258, 1.0279211e-6, 5.4902830e-7
-0.259, 9.8037822e-7, 5.9315767e-7
-0.260, 1.0277893e-6, 6.3743551e-7
-0.261, 1.0042734e-6, 6.3863934e-7
-0.262, 1.0055596e-6, 5.8410421e-7
-0.263, 1.0434885e-6, 6.2777184e-7
-0.264, 9.9195472e-7, 5.3135017e-7
-0.265, 1.0716053e-6, 6.1716833e-7
-0.266, 9.9213617e-7, 6.0067748e-7
-0.267, 1.0375848e-6, 6.4459243e-7
-0.268, 1.0447088e-6, 6.7910776e-7
-0.269, 1.0230069e-6, 5.6852036e-7
-0.270, 1.0784490e-6, 6.3027846e-7
-0.271, 1.0290261e-6, 5.4061798e-7
-0.272, 1.0850619e-6, 6.3857334e-7
-0.273, 1.0353421e-6, 6.1758055e-7
-0.274, 1.0373044e-6, 6.4325673e-7
-0.275, 1.0606719e-6, 6.9167373e-7
-0.276, 1.0238809e-6, 5.6474403e-7
-0.277, 1.0960282e-6, 5.9416362e-7
-0.278, 1.0179772e-6, 5.3319712e-7
-0.279, 1.0691812e-6, 6.4497175e-7
-0.280, 1.0580663e-6, 6.4975410e-7
-0.281, 1.0425321e-6, 6.1385367e-7
-0.282, 1.0796527e-6, 6.8525878e-7
-0.283, 1.0276739e-6, 6.3293351e-7
-0.284, 1.0960117e-6, 6.3794670e-7
-0.285, 1.0577696e-6, 5.4475720e-7
-0.286, 1.0837756e-6, 6.2892627e-7
-0.287, 1.0639866e-6, 6.6631088e-7
-0.288, 1.0372549e-6, 6.3143284e-7
-0.289, 1.0917736e-6, 6.3758392e-7
-0.290, 1.0430763e-6, 6.1967489e-7
-0.291, 1.0953027e-6, 6.1100076e-7
-0.292, 1.0679939e-6, 5.7363252e-7
-0.293, 1.0528553e-6, 6.2256078e-7
-0.294, 1.0802630e-6, 6.2834903e-7
-0.295, 1.0136401e-6, 6.7709584e-7
-0.296, 1.0798672e-6, 6.7317103e-7
-0.297, 1.0404542e-6, 6.1645915e-7
-0.298, 1.0901410e-6, 6.0331598e-7
-0.299, 1.0986173e-6, 5.8085550e-7
-0.300, 1.0326870e-6, 6.1982331e-7
-0.301, 1.0838085e-6, 6.0390971e-7
-0.302, 1.0227101e-6, 6.5362946e-7
-0.303, 1.0788613e-6, 6.6065451e-7
-0.304, 1.0609193e-6, 6.2772239e-7
-0.305, 1.0448407e-6, 5.7505076e-7
-0.306, 1.0903883e-6, 5.8197691e-7
-0.307, 1.0383434e-6, 6.4779169e-7
-0.308, 1.0606884e-6, 6.4426268e-7
-0.309, 1.0301804e-6, 6.9185512e-7
-0.310, 1.0721330e-6, 6.5834581e-7
-0.311, 1.0754642e-6, 6.5643292e-7
-0.312, 1.0410479e-6, 5.9000797e-7
-0.313, 1.0659160e-6, 5.5554216e-7
-0.314, 1.0193294e-6, 6.4492230e-7
-0.315, 1.0659819e-6, 6.2823358e-7
-0.316, 1.0474957e-6, 6.6398570e-7
-0.317, 1.0479575e-6, 6.2374812e-7
-0.318, 1.0635744e-6, 6.4497181e-7
-0.319, 1.0222977e-6, 6.0608647e-7
-0.320, 1.0742109e-6, 5.4483962e-7
-0.321, 1.0277728e-6, 6.3375808e-7
-0.322, 1.0477597e-6, 6.3923301e-7
-0.323, 1.0620572e-6, 6.8961242e-7
-0.324, 1.0305927e-6, 6.3621513e-7
-0.325, 1.0677466e-6, 6.2513334e-7
-0.326, 1.0197748e-6, 6.2326990e-7
-0.327, 1.0704345e-6, 5.7625459e-7
-0.328, 1.0443460e-6, 6.3446714e-7
-0.329, 1.0278388e-6, 6.3154823e-7
-0.330, 1.0670209e-6, 6.9134387e-7
-0.331, 1.0027562e-6, 6.4418020e-7
-0.332, 1.0668889e-6, 6.2130744e-7
-0.333, 1.0187853e-6, 5.8453298e-7
-0.334, 1.0486996e-6, 5.7816754e-7
-0.335, 1.0654708e-6, 6.6134714e-7
-0.336, 1.0242602e-6, 6.0958251e-7
-0.337, 1.0732709e-6, 6.9797318e-7
-0.338, 1.0140195e-6, 6.6347445e-7
-0.339, 1.0652399e-6, 6.3227384e-7
-0.340, 1.0490459e-6, 6.2866241e-7
-0.341, 1.0448572e-6, 5.5949994e-7
-0.342, 1.0658665e-6, 6.9414733e-7
-0.343, 1.0245901e-6, 6.1029164e-7
-0.344, 1.0720175e-6, 6.6878448e-7
-0.345, 1.0005795e-6, 6.6514008e-7
-0.346, 1.0619252e-6, 6.5244211e-7
-0.347, 1.0716053e-6, 6.4843482e-7
-0.348, 1.0453849e-6, 5.5423936e-7
-0.349, 1.0903059e-6, 6.8347777e-7
-0.350, 1.0200550e-6, 6.5079303e-7
-0.351, 1.0757281e-6, 6.7539736e-7
-0.352, 1.0545043e-6, 6.6698698e-7
-0.353, 1.0761073e-6, 6.4648890e-7
-0.354, 1.1034490e-6, 6.8271925e-7
-0.355, 1.0246725e-6, 5.8161413e-7
-0.356, 1.0936205e-6, 6.0519596e-7
-0.357, 1.0426145e-6, 6.6260043e-7
-0.358, 1.0871232e-6, 7.0085912e-7
-0.359, 1.0707313e-6, 7.0783472e-7
-0.360, 1.0545209e-6, 6.3484640e-7
-0.361, 1.1293725e-6, 6.6952657e-7
-0.362, 1.0492768e-6, 5.9398224e-7
-0.363, 1.1093363e-6, 6.4599419e-7
-0.364, 1.0593196e-6, 6.6452986e-7
-0.365, 1.0993923e-6, 6.9418036e-7
-0.366, 1.1190493e-6, 7.6126491e-7
-0.367, 1.0764206e-6, 6.8049297e-7
-0.368, 1.1330995e-6, 6.7236300e-7
-0.369, 1.0540426e-6, 6.1885032e-7
-0.370, 1.1224134e-6, 6.4925939e-7
-0.371, 1.0911964e-6, 6.8649564e-7
-0.372, 1.1025586e-6, 6.7061501e-7
-0.373, 1.1302302e-6, 7.7142329e-7
-0.374, 1.0952366e-6, 6.9449368e-7
-0.375, 1.1445277e-6, 6.8646261e-7
-0.376, 1.1060711e-6, 6.4355356e-7
-0.377, 1.1403720e-6, 6.3004762e-7
-0.378, 1.1382117e-6, 7.3441788e-7
-0.379, 1.1178786e-6, 7.0473442e-7
-0.380, 1.1478753e-6, 7.5969825e-7
-0.381, 1.1080830e-6, 7.3896933e-7
-0.382, 1.1790099e-6, 6.9686837e-7
-0.383, 1.1451049e-6, 6.7932211e-7
-0.384, 1.1512889e-6, 6.6286430e-7
-0.385, 1.1698410e-6, 7.5475111e-7
-0.386, 1.1219188e-6, 7.1842186e-7
-0.387, 1.1893826e-6, 7.8319772e-7
-0.388, 1.1461437e-6, 7.3006430e-7
-0.389, 1.1840891e-6, 7.3763363e-7
-0.390, 1.1953358e-6, 7.5529533e-7
-0.391, 1.1890528e-6, 6.5115580e-7
-0.392, 1.2073082e-6, 7.5209601e-7
-0.393, 1.1563681e-6, 7.3370882e-7
-0.394, 1.2262726e-6, 7.7472146e-7
-0.395, 1.1819288e-6, 7.5870884e-7
-0.396, 1.1935053e-6, 7.4305905e-7
-0.397, 1.2424665e-6, 7.8624851e-7
-0.398, 1.1900918e-6, 6.5509710e-7
-0.399, 1.2261077e-6, 7.6299648e-7
-0.400, 1.1645640e-6, 7.4775897e-7
-0.401, 1.2316486e-6, 8.2869576e-7
-0.402, 1.2238648e-6, 8.0382767e-7
-0.403, 1.2180931e-6, 7.1776219e-7
-0.404, 1.2574732e-6, 7.9094832e-7
-0.405, 1.2123708e-6, 6.9213547e-7
-0.406, 1.2700721e-6, 7.8090551e-7
-0.407, 1.2278722e-6, 7.4573063e-7
-0.408, 1.2590727e-6, 7.9309211e-7
-0.409, 1.2687858e-6, 8.4155863e-7
-0.410, 1.2254316e-6, 7.3131764e-7
-0.411, 1.2824567e-6, 7.6781174e-7
-0.412, 1.2361506e-6, 7.1527211e-7
-0.413, 1.2880306e-6, 7.9665421e-7
-0.414, 1.2562693e-6, 8.0206314e-7
-0.415, 1.2451380e-6, 7.8832636e-7
-0.416, 1.2849798e-6, 8.2912459e-7
-0.417, 1.2393662e-6, 7.6476096e-7
-0.418, 1.2996567e-6, 7.8624851e-7
-0.419, 1.2478096e-6, 7.1576676e-7
-0.420, 1.2857713e-6, 7.7458952e-7
-0.421, 1.2894982e-6, 8.0865948e-7
-0.422, 1.2462924e-6, 8.0758758e-7
-0.423, 1.3151415e-6, 8.3405536e-7
-0.424, 1.2431096e-6, 7.6824051e-7
-0.425, 1.3086111e-6, 8.1223800e-7
-0.426, 1.2782351e-6, 7.3690796e-7
-0.427, 1.2717046e-6, 7.6476096e-7
-0.428, 1.3076053e-6, 8.0720827e-7
-0.429, 1.2554283e-6, 8.1612984e-7
-0.430, 1.3176152e-6, 8.2470501e-7
-0.431, 1.2762232e-6, 7.8262048e-7
-0.432, 1.2940003e-6, 7.9254789e-7
-0.433, 1.3032516e-6, 7.5006767e-7
-0.434, 1.2680932e-6, 7.5005119e-7
-0.435, 1.2881791e-6, 7.7833289e-7
-0.436, 1.2521301e-6, 8.1988969e-7
-0.437, 1.2900259e-6, 8.5808244e-7
-0.438, 1.2615793e-6, 7.7988301e-7
-0.439, 1.2741289e-6, 7.4884730e-7
-0.440, 1.2801150e-6, 7.3751818e-7
-0.441, 1.2348643e-6, 7.3778199e-7
-0.442, 1.2767180e-6, 7.9088238e-7
-0.443, 1.2330833e-6, 8.2226438e-7
-0.444, 1.2725787e-6, 8.5153556e-7
-0.445, 1.2696104e-6, 8.3171363e-7
-0.446, 1.2540265e-6, 7.5440471e-7
-0.447, 1.2746401e-6, 6.9886369e-7
-0.448, 1.2222158e-6, 7.0836245e-7
-0.449, 1.2787958e-6, 7.9480719e-7
-0.450, 1.2262396e-6, 8.1175972e-7
-0.451, 1.2507284e-6, 8.3173012e-7
-0.452, 1.2559395e-6, 7.9223463e-7
-0.453, 1.2057416e-6, 7.5468506e-7
-0.454, 1.2577535e-6, 7.3105377e-7
-0.455, 1.1939836e-6, 6.9645603e-7
-0.456, 1.2326875e-6, 7.7800308e-7
-0.457, 1.2199071e-6, 7.7757431e-7
-0.458, 1.2094849e-6, 7.8832630e-7
-0.459, 1.2265364e-6, 7.8611652e-7
-0.460, 1.1753325e-6, 7.2965202e-7
-0.461, 1.2282514e-6, 7.4307559e-7
-0.462, 1.1903062e-6, 6.7988276e-7
-0.463, 1.2003985e-6, 7.3306558e-7
-0.464, 1.1837593e-6, 7.7973459e-7
-0.465, 1.1610020e-6, 7.3148254e-7
-0.466, 1.1945938e-6, 7.5590543e-7
-0.467, 1.1499532e-6, 7.0729050e-7
-0.468, 1.1846003e-6, 7.1875161e-7
-0.469, 1.1661141e-6, 6.6941112e-7
-0.470, 1.1546530e-6, 7.1250156e-7
-0.471, 1.1680106e-6, 7.5503141e-7
-0.472, 1.1162954e-6, 7.4269633e-7
-0.473, 1.1586274e-6, 7.5221152e-7
-0.474, 1.1107545e-6, 6.8713877e-7
-0.475, 1.1509426e-6, 7.0786774e-7
-0.476, 1.1340395e-6, 6.6307871e-7
-0.477, 1.0973474e-6, 6.9175621e-7
-0.478, 1.1345671e-6, 6.6667371e-7
-0.479, 1.0686535e-6, 7.1396931e-7
-0.480, 1.1222980e-6, 7.2947068e-7
-0.481, 1.0826872e-6, 6.9122848e-7
-0.482, 1.0719516e-6, 6.6274890e-7
-0.483, 1.1041418e-6, 6.2820061e-7
-0.484, 1.0416745e-6, 6.7486963e-7
-0.485, 1.0969846e-6, 6.7473769e-7
-0.486, 1.0329014e-6, 6.8308202e-7
-0.487, 1.0652399e-6, 7.1982350e-7
-0.488, 1.0653058e-6, 6.8920008e-7
-0.489, 1.0167239e-6, 6.5521255e-7
-0.490, 1.0632115e-6, 5.9876453e-7
-0.491, 1.0024429e-6, 6.2785432e-7
-0.492, 1.0277893e-6, 6.7261033e-7
-0.493, 1.0109686e-6, 6.7178581e-7
-0.494, 1.0066481e-6, 6.7641975e-7
-0.495, 1.0246230e-6, 6.8572058e-7
-0.496, 9.7391376e-7, 6.3115249e-7
-0.497, 1.0094020e-6, 5.8217483e-7
-0.498, 9.5955033e-7, 5.7162072e-7
-0.499, 9.9117972e-7, 6.3776531e-7
-0.500, 9.7696466e-7, 6.7171987e-7
