Dec. 9, 2005   02:09:07
Square Wave Voltammetry
File: d:\ida_biofilms\11_28_18_blankidapyo\25um_transfer\25um_pyo_transfer_swv4_30.txt
Data Source:  Experiment
Instrument Model:  CHI760B
Header: 
Note: 

Init E (V) = 0.1
Final E (V) = -0.5
Incr E (V) = 0.001
Amplitude (V) = 0.025
Frequency (Hz) = 300
Quiet Time (sec) = 2
Sensitivity (A/V) = 1e-6
Sens 2 (A/V) = 1e-6

Potential/V, i1/A, i2/A

0.099, 7.3273583e-7, 3.9015589e-7
0.098, 6.5013342e-7, 4.1167635e-7
0.097, 6.9406497e-7, 4.3209201e-7
0.096, 7.0171666e-7, 5.1802556e-7
0.095, 6.6062159e-7, 4.9782437e-7
0.094, 7.0583934e-7, 5.4429540e-7
0.093, 6.3827650e-7, 5.0503081e-7
0.092, 7.1451348e-7, 4.5394233e-7
0.091, 6.5442100e-7, 4.2356626e-7
0.090, 6.4343811e-7, 4.1810779e-7
0.089, 6.7231349e-7, 5.0981316e-7
0.088, 6.1321043e-7, 4.3670943e-7
0.087, 6.5191443e-7, 4.8891934e-7
0.086, 6.0666366e-7, 4.5715802e-7
0.085, 6.5447045e-7, 4.5433811e-7
0.084, 6.4924291e-7, 4.2724372e-7
0.083, 6.2010366e-7, 3.5587152e-7
0.082, 6.5511358e-7, 4.9081575e-7
0.081, 5.8238913e-7, 4.4020547e-7
0.080, 6.4272899e-7, 4.6241860e-7
0.079, 6.0296969e-7, 4.3565402e-7
0.078, 6.0717491e-7, 4.1078590e-7
0.077, 6.1551918e-7, 4.5880714e-7
0.076, 5.7280806e-7, 3.0704226e-7
0.075, 6.1599746e-7, 4.0240857e-7
0.074, 5.5188121e-7, 4.0702599e-7
0.073, 5.9149204e-7, 4.4889612e-7
0.072, 5.7394584e-7, 4.6650831e-7
0.071, 5.6574993e-7, 3.6405095e-7
0.070, 6.0278830e-7, 4.0288677e-7
0.069, 5.3712193e-7, 3.3741830e-7
0.068, 5.8016292e-7, 3.3344404e-7
0.067, 5.2290687e-7, 3.9241513e-7
0.066, 5.7429224e-7, 4.0829576e-7
0.065, 5.7477041e-7, 4.5763628e-7
0.064, 5.1167660e-7, 3.9429511e-7
0.063, 5.8398882e-7, 3.6433130e-7
0.062, 5.0066075e-7, 3.8115195e-7
0.061, 5.5832913e-7, 3.2536354e-7
0.060, 5.2810151e-7, 3.8995802e-7
0.059, 5.0836195e-7, 3.5791635e-7
0.058, 5.5968133e-7, 4.4599375e-7
0.057, 4.8365871e-7, 3.8008005e-7
0.056, 5.4205270e-7, 3.5664658e-7
0.055, 4.9981975e-7, 3.5056149e-7
0.054, 5.1886661e-7, 3.0628368e-7
0.053, 5.3911731e-7, 3.9658732e-7
0.052, 5.0438769e-7, 3.4474022e-7
0.051, 5.2674920e-7, 3.8469744e-7
0.050, 4.6469432e-7, 4.0044614e-7
0.049, 5.1339168e-7, 3.5465121e-7
0.048, 4.8402154e-7, 3.4952257e-7
0.047, 4.8850706e-7, 2.4980267e-7
0.046, 4.9520236e-7, 3.4894538e-7
0.045, 4.5456898e-7, 3.4569669e-7
0.044, 4.9937449e-7, 3.6914662e-7
0.043, 4.5262306e-7, 3.9475682e-7
0.042, 4.9582900e-7, 3.2417620e-7
0.041, 4.8745164e-7, 3.5493156e-7
0.040, 4.6484274e-7, 2.6190693e-7
0.039, 4.8535730e-7, 2.7389572e-7
0.038, 4.3692381e-7, 3.4475673e-7
0.037, 4.8913370e-7, 3.2453897e-7
0.036, 4.5169958e-7, 3.7043287e-7
0.035, 4.6565077e-7, 3.1248419e-7
0.034, 4.8581904e-7, 3.3494470e-7
0.033, 4.3463160e-7, 2.9678495e-7
0.032, 4.7994831e-7, 2.6827237e-7
0.031, 4.1525487e-7, 3.3840774e-7
0.030, 4.5625103e-7, 3.2996448e-7
0.029, 4.5324970e-7, 3.6088471e-7
0.028, 4.3646207e-7, 3.1759635e-7
0.027, 4.7049909e-7, 3.2018542e-7
0.026, 4.1939410e-7, 3.1720060e-7
0.025, 4.6975700e-7, 2.5262258e-7
0.024, 4.2351678e-7, 3.0056137e-7
0.023, 4.3661049e-7, 3.1040639e-7
0.022, 4.6197334e-7, 3.7129041e-7
0.021, 4.0460185e-7, 2.9196966e-7
0.020, 4.5227677e-7, 2.8718733e-7
0.019, 3.9864867e-7, 2.8878691e-7
0.018, 4.4165665e-7, 2.6695312e-7
0.017, 4.3451615e-7, 3.1095055e-7
0.016, 4.2448977e-7, 2.7631989e-7
0.015, 4.4352012e-7, 3.5791638e-7
0.014, 3.9934127e-7, 3.6035701e-7
0.013, 4.5108942e-7, 3.3040973e-7
0.012, 4.1853656e-7, 2.8588457e-7
0.011, 4.4371802e-7, 2.5478289e-7
0.010, 4.4521869e-7, 3.1034040e-7
0.009, 3.9579575e-7, 2.8349336e-7
0.008, 4.4023847e-7, 2.8062399e-7
0.007, 3.9071659e-7, 3.3758323e-7
0.006, 4.3346074e-7, 3.2790314e-7
0.005, 4.2386310e-7, 2.8021171e-7
0.004, 4.1009329e-7, 2.4224988e-7
0.003, 4.3372461e-7, 2.3764896e-7
0.002, 3.8189401e-7, 3.0471705e-7
0.001, 4.3796274e-7, 2.8405407e-7
-0.000, 3.7432471e-7, 3.0008317e-7
-0.001, 4.1870146e-7, 3.0016560e-7
-0.002, 4.2462167e-7, 3.0009960e-7
-0.003, 3.9650487e-7, 2.6939375e-7
-0.004, 4.3933147e-7, 2.2279075e-7
-0.005, 3.7153777e-7, 2.9142547e-7
-0.006, 4.2257682e-7, 3.0826257e-7
-0.007, 3.8130037e-7, 3.4114524e-7
-0.008, 3.8969415e-7, 2.9681794e-7
-0.009, 4.2674901e-7, 2.9347032e-7
-0.010, 3.6772838e-7, 2.7874404e-7
-0.011, 4.2533077e-7, 2.3657705e-7
-0.012, 3.8209191e-7, 2.8675856e-7
-0.013, 4.0540988e-7, 2.8101977e-7
-0.014, 4.1451281e-7, 3.2854626e-7
-0.015, 3.9210181e-7, 3.1525468e-7
-0.016, 4.1570016e-7, 2.5839438e-7
-0.017, 3.7602325e-7, 2.7252699e-7
-0.018, 4.1637628e-7, 2.3934751e-7
-0.019, 3.8718755e-7, 2.8334495e-7
-0.020, 3.9622452e-7, 2.6027433e-7
-0.021, 4.1042310e-7, 3.1142883e-7
-0.022, 3.7252721e-7, 3.1304489e-7
-0.023, 4.2173576e-7, 2.6716748e-7
-0.024, 3.7335178e-7, 2.5847683e-7
-0.025, 4.0750422e-7, 2.2346688e-7
-0.026, 3.9978653e-7, 2.5898805e-7
-0.027, 3.9978653e-7, 2.5892211e-7
-0.028, 4.1093432e-7, 3.0176520e-7
-0.029, 3.6880030e-7, 3.2321972e-7
-0.030, 4.3008015e-7, 2.7336804e-7
-0.031, 3.8527463e-7, 2.8672559e-7
-0.032, 4.0138610e-7, 2.5879018e-7
-0.033, 4.1248444e-7, 2.5217736e-7
-0.034, 3.7836497e-7, 2.8382320e-7
-0.035, 4.1372124e-7, 2.9398154e-7
-0.036, 3.6132997e-7, 3.1978962e-7
-0.037, 4.1413352e-7, 3.0747103e-7
-0.038, 4.0735580e-7, 2.8440039e-7
-0.039, 4.0206228e-7, 2.2635277e-7
-0.040, 4.2907419e-7, 2.4873077e-7
-0.041, 3.7274162e-7, 2.7719389e-7
-0.042, 4.1850359e-7, 2.9037005e-7
-0.043, 3.8199295e-7, 2.8380671e-7
-0.044, 4.1233605e-7, 2.9779090e-7
-0.045, 4.2099370e-7, 3.0895518e-7
-0.046, 3.9587820e-7, 2.3237189e-7
-0.047, 4.2603989e-7, 2.3261926e-7
-0.048, 3.6901469e-7, 2.8444984e-7
-0.049, 4.0430501e-7, 3.0117153e-7
-0.050, 4.2145547e-7, 3.1126388e-7
-0.051, 4.0506359e-7, 2.8106922e-7
-0.052, 4.3535721e-7, 3.1721709e-7
-0.053, 3.8809452e-7, 2.7767214e-7
-0.054, 4.3900167e-7, 2.3816017e-7
-0.055, 3.8609915e-7, 2.8784694e-7
-0.056, 4.2810120e-7, 2.9157388e-7
-0.057, 4.3220746e-7, 3.2655089e-7
-0.058, 3.9520211e-7, 3.0572301e-7
-0.059, 4.5039678e-7, 2.6512262e-7
-0.060, 3.8385642e-7, 2.8745120e-7
-0.061, 4.4406431e-7, 2.4704872e-7
-0.062, 4.2965138e-7, 3.0341425e-7
-0.063, 4.1218760e-7, 2.8506000e-7
-0.064, 4.5196342e-7, 3.3296578e-7
-0.065, 3.9765922e-7, 3.0638262e-7
-0.066, 4.5372792e-7, 2.8148150e-7
-0.067, 3.9856621e-7, 2.7844720e-7
-0.068, 4.4498782e-7, 2.3469710e-7
-0.069, 4.5344757e-7, 2.9482260e-7
-0.070, 4.2105967e-7, 2.9668604e-7
-0.071, 4.5783418e-7, 3.0661349e-7
-0.072, 4.0263944e-7, 3.3740181e-7
-0.073, 4.6637638e-7, 3.1881669e-7
-0.074, 4.3539018e-7, 2.9134301e-7
-0.075, 4.5160061e-7, 2.1494111e-7
-0.076, 4.5948320e-7, 2.8398813e-7
-0.077, 4.0821334e-7, 3.1353963e-7
-0.078, 4.6995490e-7, 3.2308782e-7
-0.079, 4.2521532e-7, 3.3227317e-7
-0.080, 4.5915340e-7, 3.2643544e-7
-0.081, 4.6888294e-7, 3.2476987e-7
-0.082, 4.5183151e-7, 3.1030743e-7
-0.083, 4.8545621e-7, 2.6447950e-7
-0.084, 4.2978328e-7, 3.1360560e-7
-0.085, 4.6870159e-7, 3.1259967e-7
-0.086, 4.5183151e-7, 3.8319678e-7
-0.087, 4.6823988e-7, 3.1677183e-7
-0.088, 4.8083882e-7, 3.2795259e-7
-0.089, 4.3723713e-7, 3.0791625e-7
-0.090, 5.0181512e-7, 2.5981259e-7
-0.091, 4.4259664e-7, 3.0606930e-7
-0.092, 4.8227355e-7, 3.2221379e-7
-0.093, 4.8017921e-7, 3.6098368e-7
-0.094, 4.6509007e-7, 3.2874414e-7
-0.095, 5.0280454e-7, 3.3430155e-7
-0.096, 4.5346411e-7, 3.1756338e-7
-0.097, 5.1728352e-7, 2.6934427e-7
-0.098, 4.8266929e-7, 3.3309772e-7
-0.099, 4.8647871e-7, 3.3418610e-7
-0.100, 5.1189102e-7, 3.9736238e-7
-0.101, 4.7872800e-7, 3.4408060e-7
-0.102, 5.2473735e-7, 3.1287999e-7
-0.103, 4.5869166e-7, 3.2104293e-7
-0.104, 5.1578280e-7, 2.8275130e-7
-0.105, 5.1146225e-7, 3.1398488e-7
-0.106, 5.0259018e-7, 3.1786021e-7
-0.107, 5.3334554e-7, 3.9601014e-7
-0.108, 4.8220755e-7, 4.0722387e-7
-0.109, 5.3928227e-7, 3.3106934e-7
-0.110, 5.0425581e-7, 3.2307133e-7
-0.111, 5.3827625e-7, 3.0456863e-7
-0.112, 5.5128748e-7, 3.2894204e-7
-0.113, 5.1177557e-7, 3.3563731e-7
-0.114, 5.4869849e-7, 3.4723035e-7
-0.115, 5.0133690e-7, 3.9104640e-7
-0.116, 5.5536077e-7, 3.8205891e-7
-0.117, 5.4604345e-7, 3.4442689e-7
-0.118, 5.3649524e-7, 3.2531406e-7
-0.119, 5.6703630e-7, 3.1426521e-7
-0.120, 5.2077951e-7, 3.5822970e-7
-0.121, 5.6157779e-7, 3.6055491e-7
-0.122, 5.3014634e-7, 3.7190057e-7
-0.123, 5.8075659e-7, 3.6959187e-7
-0.124, 5.8657781e-7, 3.6639267e-7
-0.125, 5.3961202e-7, 3.6443026e-7
-0.126, 5.9357001e-7, 3.0448618e-7
-0.127, 5.4162388e-7, 3.7259321e-7
-0.128, 5.9106333e-7, 3.9277793e-7
-0.129, 5.5610286e-7, 3.9726342e-7
-0.130, 5.6086867e-7, 3.9663678e-7
-0.131, 6.0958251e-7, 3.7752392e-7
-0.132, 5.5496497e-7, 3.6217099e-7
-0.133, 5.9653826e-7, 3.2599019e-7
-0.134, 5.6507383e-7, 3.4610898e-7
-0.135, 5.9330608e-7, 3.8929838e-7
-0.136, 6.0455284e-7, 4.1246795e-7
-0.137, 5.8075659e-7, 4.1431491e-7
-0.138, 6.2429228e-7, 3.8585179e-7
-0.139, 5.6596434e-7, 3.6599687e-7
-0.140, 6.1551918e-7, 3.4142559e-7
-0.141, 5.8824344e-7, 3.4055157e-7
-0.142, 5.9340505e-7, 3.5643222e-7
-0.143, 6.0808190e-7, 4.2044948e-7
-0.144, 5.7170314e-7, 4.3113553e-7
-0.145, 6.2815116e-7, 4.1673906e-7
-0.146, 5.9338856e-7, 3.8181156e-7
-0.147, 6.2529824e-7, 3.9546592e-7
-0.148, 6.1128105e-7, 3.6851995e-7
-0.149, 6.1601395e-7, 3.9912686e-7
-0.150, 6.1388664e-7, 4.0219419e-7
-0.151, 5.9368540e-7, 4.4299247e-7
-0.152, 6.4671985e-7, 4.1436437e-7
-0.153, 6.0722437e-7, 3.9221726e-7
-0.154, 6.2920657e-7, 4.0094091e-7
-0.155, 6.4500477e-7, 3.6149487e-7
-0.156, 5.9525200e-7, 3.9464140e-7
-0.157, 6.5386030e-7, 4.0738880e-7
-0.158, 5.9823685e-7, 4.2363223e-7
-0.159, 6.5231018e-7, 4.5725693e-7
-0.160, 6.5113932e-7, 4.1042310e-7
-0.161, 6.3605023e-7, 3.8075615e-7
-0.162, 6.6009386e-7, 3.5300212e-7
-0.163, 6.0689456e-7, 3.9007344e-7
-0.164, 6.6838874e-7, 4.2539673e-7
-0.165, 6.1723426e-7, 4.2660059e-7
-0.166, 6.3840844e-7, 4.7620492e-7
-0.167, 6.6667371e-7, 4.8271875e-7
-0.168, 6.3139987e-7, 3.8454903e-7
-0.169, 6.7117571e-7, 3.6444675e-7
-0.170, 6.1799284e-7, 3.4727981e-7
-0.171, 6.6733332e-7, 4.4299242e-7
-0.172, 6.6012683e-7, 4.2874439e-7
-0.173, 6.6004429e-7, 4.1588154e-7
-0.174, 6.8398901e-7, 4.5087504e-7
-0.175, 6.4185502e-7, 4.2460519e-7
-0.176, 6.9736302e-7, 4.0466779e-7
-0.177, 6.5531151e-7, 3.5582207e-7
-0.178, 6.9381758e-7, 4.3913357e-7
-0.179, 6.8034456e-7, 4.6390278e-7
-0.180, 6.5902191e-7, 4.2234598e-7
-0.181, 7.0387694e-7, 4.5313428e-7
-0.182, 6.4124481e-7, 4.0926875e-7
-0.183, 7.1009401e-7, 4.4772528e-7
-0.184, 6.9924300e-7, 3.8451606e-7
-0.185, 6.7820076e-7, 4.1744818e-7
-0.186, 7.2264345e-7, 4.4342119e-7
-0.187, 6.5089193e-7, 4.6034074e-7
-0.188, 7.2247849e-7, 4.7252746e-7
-0.189, 6.6581617e-7, 4.1510646e-7
-0.190, 7.1761372e-7, 4.2979980e-7
-0.191, 7.3641331e-7, 4.0049565e-7
-0.192, 6.8712222e-7, 4.3613224e-7
-0.193, 7.4737966e-7, 4.4131036e-7
-0.194, 6.8072382e-7, 4.6853668e-7
-0.195, 7.2364941e-7, 5.3539043e-7
-0.196, 7.2643638e-7, 4.6210525e-7
-0.197, 7.1512363e-7, 4.3637959e-7
-0.198, 7.6659143e-7, 4.0509656e-7
-0.199, 7.0514670e-7, 4.1860250e-7
-0.200, 7.5080970e-7, 4.6660728e-7
-0.201, 6.9731357e-7, 4.5255709e-7
-0.202, 7.5117254e-7, 5.2269252e-7
-0.203, 7.5714217e-7, 5.0714164e-7
-0.204, 7.3270286e-7, 4.3895218e-7
-0.205, 7.7318782e-7, 4.2345084e-7
-0.206, 7.1139675e-7, 4.0893889e-7
-0.207, 7.7759080e-7, 4.9261325e-7
-0.208, 7.3755109e-7, 4.7625434e-7
-0.209, 7.6246874e-7, 4.8468121e-7
-0.210, 7.8565483e-7, 5.0992855e-7
-0.211, 7.4399907e-7, 4.7348391e-7
-0.212, 8.0615291e-7, 4.6868507e-7
-0.213, 7.5798323e-7, 4.1400159e-7
-0.214, 7.9708298e-7, 4.9762644e-7
-0.215, 7.7821744e-7, 5.1850384e-7
-0.216, 7.9300969e-7, 5.1756382e-7
-0.217, 8.0611989e-7, 5.2384684e-7
-0.218, 7.6853735e-7, 4.8731971e-7
-0.219, 8.3458298e-7, 4.8405457e-7
-0.220, 7.8984351e-7, 4.3321336e-7
-0.221, 8.0936854e-7, 5.0831250e-7
-0.222, 8.3466546e-7, 5.3801244e-7
-0.223, 7.9683559e-7, 5.1878413e-7
-0.224, 8.5956657e-7, 5.5166680e-7
-0.225, 7.9300969e-7, 4.8545621e-7
-0.226, 8.4324063e-7, 5.1487586e-7
-0.227, 8.3915097e-7, 4.8641272e-7
-0.228, 8.4281191e-7, 4.9317396e-7
-0.229, 8.5376183e-7, 5.3845770e-7
-0.230, 8.2294059e-7, 5.3519250e-7
-0.231, 8.7996574e-7, 5.9258048e-7
-0.232, 8.3097154e-7, 5.0247479e-7
-0.233, 8.5504809e-7, 5.2221424e-7
-0.234, 8.9782520e-7, 5.1626108e-7
-0.235, 8.5689510e-7, 4.7645227e-7
-0.236, 8.9533512e-7, 5.3883696e-7
-0.237, 8.3962925e-7, 5.5262331e-7
-0.238, 8.9014054e-7, 6.1141299e-7
-0.239, 8.9106402e-7, 5.5262331e-7
-0.240, 8.8898616e-7, 4.9864889e-7
-0.241, 9.2907533e-7, 5.1700317e-7
-0.242, 8.7120907e-7, 5.4254741e-7
-0.243, 9.2927320e-7, 5.7914048e-7
-0.244, 8.9581340e-7, 5.6934493e-7
-0.245, 9.3280232e-7, 5.9139313e-7
-0.246, 9.4583004e-7, 5.9223419e-7
-0.247, 9.0021638e-7, 5.2625450e-7
-0.248, 9.6049030e-7, 4.7965148e-7
-0.249, 9.0237671e-7, 5.2411070e-7
-0.250, 9.4160833e-7, 5.8746832e-7
-0.251, 9.4078382e-7, 6.0694401e-7
-0.252, 9.3656217e-7, 6.2117556e-7
-0.253, 9.7229770e-7, 5.7890963e-7
-0.254, 9.1392030e-7, 5.6632717e-7
-0.255, 9.9540125e-7, 5.2280791e-7
-0.256, 9.2790447e-7, 5.0385995e-7
-0.257, 9.7722852e-7, 5.7854680e-7
-0.258, 9.9187230e-7, 6.4556548e-7
-0.259, 9.3295068e-7, 6.3428570e-7
-0.260, 1.0052464e-6, 6.0602054e-7
-0.261, 9.4550012e-7, 5.6461209e-7
-0.262, 9.9891383e-7, 5.4985287e-7
-0.263, 9.7554641e-7, 5.3929875e-7
-0.264, 9.6804308e-7, 5.6929548e-7
-0.265, 1.0113810e-6, 6.3367554e-7
-0.266, 9.5597181e-7, 6.5600415e-7
-0.267, 1.0195274e-6, 5.9502116e-7
-0.268, 9.8126873e-7, 5.8511012e-7
-0.269, 1.0017502e-6, 5.7914053e-7
-0.270, 1.0150584e-6, 5.6802571e-7
-0.271, 9.8250553e-7, 5.9187141e-7
-0.272, 1.0235676e-6, 6.1619534e-7
-0.273, 9.8049361e-7, 6.6293023e-7
-0.274, 1.0225287e-6, 6.4241567e-7
-0.275, 1.0098307e-6, 6.1075332e-7
-0.276, 1.0207807e-6, 5.2666678e-7
-0.277, 1.0356719e-6, 5.5478358e-7
-0.278, 9.6954375e-7, 6.2267623e-7
-0.279, 1.0208796e-6, 6.1840507e-7
-0.280, 9.9881493e-7, 6.5496522e-7
-0.281, 1.0326376e-6, 6.1012668e-7
-0.282, 1.0386402e-6, 6.3929895e-7
-0.283, 1.0212094e-6, 5.6721763e-7
-0.284, 1.0436864e-6, 5.3849067e-7
-0.285, 9.9449437e-7, 6.2480353e-7
-0.286, 1.0472648e-6, 6.2975073e-7
-0.287, 1.0216711e-6, 6.5531151e-7
-0.288, 1.0218525e-6, 6.5272246e-7
-0.289, 1.0536799e-6, 6.5056213e-7
-0.290, 1.0080498e-6, 6.0216166e-7
-0.291, 1.0547022e-6, 5.5512987e-7
-0.292, 9.9977137e-7, 5.9986945e-7
-0.293, 1.0315492e-6, 6.2590840e-7
-0.294, 1.0469681e-6, 6.6888344e-7
-0.295, 1.0306917e-6, 5.9856666e-7
-0.296, 1.0580663e-6, 6.6133066e-7
-0.297, 1.0154541e-6, 5.7559498e-7
-0.298, 1.0697420e-6, 5.6705272e-7
-0.299, 1.0336764e-6, 6.2206607e-7
-0.300, 1.0166909e-6, 6.1159437e-7
-0.301, 1.0488810e-6, 6.9502141e-7
-0.302, 9.9738020e-7, 6.2297306e-7
-0.303, 1.0537128e-6, 6.0504755e-7
-0.304, 1.0084125e-6, 6.0287078e-7
-0.305, 1.0438018e-6, 5.4785744e-7
-0.306, 1.0432906e-6, 6.2914063e-7
-0.307, 1.0244416e-6, 6.0006732e-7
-0.308, 1.0580004e-6, 6.9075020e-7
-0.309, 9.9210320e-7, 6.4386688e-7
-0.310, 1.0469516e-6, 6.2467160e-7
-0.311, 1.0088248e-6, 5.7772229e-7
-0.312, 1.0509094e-6, 5.6446368e-7
-0.313, 1.0748705e-6, 6.6546988e-7
-0.314, 9.9505496e-7, 6.2094472e-7
-0.315, 1.0536963e-6, 6.4922642e-7
-0.316, 1.0024759e-6, 6.3733654e-7
-0.317, 1.0420374e-6, 6.4655489e-7
-0.318, 1.0350782e-6, 6.4066768e-7
-0.319, 1.0000188e-6, 5.4732971e-7
-0.320, 1.0657676e-6, 6.3939791e-7
-0.321, 9.8324756e-7, 6.1566760e-7
-0.322, 1.0499034e-6, 6.4917697e-7
-0.323, 9.8817827e-7, 6.3380753e-7
-0.324, 1.0261401e-6, 6.1530488e-7
-0.325, 1.0540921e-6, 6.5087551e-7
-0.326, 9.9637430e-7, 5.4088184e-7
-0.327, 1.0589240e-6, 6.2143943e-7
-0.328, 9.7769021e-7, 6.3123491e-7
-0.329, 1.0360841e-6, 6.6040712e-7
-0.330, 1.0133929e-6, 6.7668361e-7
-0.331, 1.0198737e-6, 5.8520914e-7
-0.332, 1.0624035e-6, 6.5201334e-7
-0.333, 9.9070144e-7, 5.5798273e-7
-0.334, 1.0444944e-6, 6.2727713e-7
-0.335, 1.0178948e-6, 6.1746516e-7
-0.336, 1.0289601e-6, 6.4967162e-7
-0.337, 1.0513546e-6, 6.8750160e-7
-0.338, 1.0141349e-6, 6.1227053e-7
-0.339, 1.0492273e-6, 6.3283454e-7
-0.340, 1.0008928e-6, 5.6604677e-7
-0.341, 1.0509094e-6, 6.3227384e-7
-0.342, 1.0243922e-6, 6.5079303e-7
-0.343, 1.0382444e-6, 6.5102392e-7
-0.344, 1.0501838e-6, 6.9729708e-7
-0.345, 9.8283533e-7, 6.3524215e-7
-0.346, 1.0727762e-6, 6.2948692e-7
-0.347, 1.0038611e-6, 5.6098412e-7
-0.348, 1.0461270e-6, 6.5432204e-7
-0.349, 1.0405531e-6, 6.7320406e-7
-0.350, 1.0331653e-6, 6.4825343e-7
-0.351, 1.0586270e-6, 6.8638013e-7
-0.352, 1.0233367e-6, 6.3974420e-7
-0.353, 1.0807082e-6, 6.4028836e-7
-0.354, 1.0412292e-6, 5.7148878e-7
-0.355, 1.0421197e-6, 6.4370198e-7
-0.356, 1.0730236e-6, 6.9465852e-7
-0.357, 1.0271297e-6, 6.6858661e-7
-0.358, 1.0761898e-6, 7.1921340e-7
-0.359, 1.0179608e-6, 6.3751793e-7
-0.360, 1.0380136e-6, 6.9202002e-7
-0.361, 1.0843858e-6, 6.1677247e-7
-0.362, 1.0575222e-6, 6.0323356e-7
-0.363, 1.0876179e-6, 7.0250820e-7
-0.364, 1.0350122e-6, 6.8839211e-7
-0.365, 1.1049992e-6, 7.2059856e-7
-0.366, 1.0678289e-6, 6.7165388e-7
-0.367, 1.0904213e-6, 6.5303578e-7
-0.368, 1.0985677e-6, 6.5460239e-7
-0.369, 1.0659985e-6, 5.7930538e-7
-0.370, 1.1091548e-6, 6.7755764e-7
-0.371, 1.0562688e-6, 6.9696728e-7
-0.372, 1.1079676e-6, 7.3697402e-7
-0.373, 1.1063514e-6, 7.1255107e-7
-0.374, 1.0885908e-6, 6.5478378e-7
-0.375, 1.1385415e-6, 6.7353386e-7
-0.376, 1.0712920e-6, 6.6354045e-7
-0.377, 1.1384095e-6, 6.9358668e-7
-0.378, 1.0834787e-6, 6.7825022e-7
-0.379, 1.1266021e-6, 7.5529522e-7
-0.380, 1.1530040e-6, 7.3806234e-7
-0.381, 1.0991780e-6, 6.8728718e-7
-0.382, 1.1659657e-6, 6.5470135e-7
-0.383, 1.0921858e-6, 6.4673634e-7
-0.384, 1.1629314e-6, 7.3196077e-7
-0.385, 1.1195771e-6, 7.0938484e-7
-0.386, 1.1203522e-6, 7.5587241e-7
-0.387, 1.1774432e-6, 7.6185859e-7
-0.388, 1.1288779e-6, 6.9889671e-7
-0.389, 1.1775917e-6, 7.1960915e-7
-0.390, 1.1413284e-6, 6.4711560e-7
-0.391, 1.1721168e-6, 7.3669361e-7
-0.392, 1.1847982e-6, 7.4406501e-7
-0.393, 1.1503489e-6, 7.6637707e-7
-0.394, 1.1990792e-6, 7.4538428e-7
-0.395, 1.1478259e-6, 7.1583281e-7
-0.396, 1.1983702e-6, 7.3547329e-7
-0.397, 1.1790264e-6, 6.7566117e-7
-0.398, 1.1868431e-6, 7.1482680e-7
-0.399, 1.2003655e-6, 7.7233022e-7
-0.400, 1.1672355e-6, 7.6509082e-7
-0.401, 1.2069123e-6, 7.6296340e-7
-0.402, 1.1845179e-6, 7.3977742e-7
-0.403, 1.2102764e-6, 7.4540077e-7
-0.404, 1.2188682e-6, 7.1777868e-7
-0.405, 1.1964407e-6, 7.4838556e-7
-0.406, 1.2190991e-6, 7.3357683e-7
-0.407, 1.1810052e-6, 8.0044708e-7
-0.408, 1.2308076e-6, 7.7379798e-7
-0.409, 1.2090396e-6, 7.5214552e-7
-0.410, 1.2242112e-6, 7.3989281e-7
-0.411, 1.2453525e-6, 7.1438160e-7
-0.412, 1.2023775e-6, 7.5623518e-7
-0.413, 1.2452864e-6, 7.5168379e-7
-0.414, 1.1997058e-6, 7.8141665e-7
-0.415, 1.2378326e-6, 7.9388371e-7
-0.416, 1.2426315e-6, 7.8164754e-7
-0.417, 1.2356724e-6, 7.2091188e-7
-0.418, 1.2478590e-6, 7.0827997e-7
-0.419, 1.2107052e-6, 7.8278538e-7
-0.420, 1.2518663e-6, 7.8026233e-7
-0.421, 1.2289606e-6, 8.0702694e-7
-0.422, 1.2230898e-6, 7.8517655e-7
-0.423, 1.2585122e-6, 7.8502813e-7
-0.424, 1.2204678e-6, 7.2722787e-7
-0.425, 1.2572423e-6, 7.1360648e-7
-0.426, 1.2086934e-6, 7.4099773e-7
-0.427, 1.2317640e-6, 7.8489632e-7
-0.428, 1.2459791e-6, 8.0986331e-7
-0.429, 1.2325390e-6, 7.5854393e-7
-0.430, 1.2608538e-6, 7.7912443e-7
-0.431, 1.1928292e-6, 7.8347807e-7
-0.432, 1.2572093e-6, 7.1121531e-7
-0.433, 1.2312198e-6, 7.6293043e-7
-0.434, 1.2429778e-6, 7.7373193e-7
-0.435, 1.2458471e-6, 8.2231384e-7
-0.436, 1.1991617e-6, 7.5369564e-7
-0.437, 1.2475952e-6, 7.4734669e-7
-0.438, 1.1990297e-6, 7.5367916e-7
-0.439, 1.2259592e-6, 7.0306885e-7
-0.440, 1.2223973e-6, 7.6593182e-7
-0.441, 1.1961109e-6, 7.4051945e-7
-0.442, 1.2474468e-6, 7.8082303e-7
-0.443, 1.1710283e-6, 8.0305256e-7
-0.444, 1.2191321e-6, 7.4225102e-7
-0.445, 1.1753655e-6, 7.3591855e-7
-0.446, 1.2111010e-6, 6.8623177e-7
-0.447, 1.2320772e-6, 7.3563820e-7
-0.448, 1.1520475e-6, 7.2117581e-7
-0.449, 1.2148114e-6, 7.4286118e-7
-0.450, 1.1438185e-6, 7.7874518e-7
-0.451, 1.2062527e-6, 7.3519300e-7
-0.452, 1.1756293e-6, 7.3052604e-7
-0.453, 1.1527401e-6, 6.5371188e-7
-0.454, 1.1919387e-6, 6.8309851e-7
-0.455, 1.1424663e-6, 7.1487625e-7
-0.456, 1.1731557e-6, 7.4093180e-7
-0.457, 1.1349960e-6, 7.7049981e-7
-0.458, 1.1509261e-6, 7.0107347e-7
-0.459, 1.1612493e-6, 7.3456636e-7
-0.460, 1.1336107e-6, 6.3849086e-7
-0.461, 1.1543727e-6, 6.5255750e-7
-0.462, 1.0971991e-6, 7.1566785e-7
-0.463, 1.1422684e-6, 7.3062500e-7
-0.464, 1.1078026e-6, 7.5344826e-7
-0.465, 1.1135085e-6, 6.8443421e-7
-0.466, 1.1206655e-6, 6.9322385e-7
-0.467, 1.0674166e-6, 6.2925602e-7
-0.468, 1.1190989e-6, 6.3070723e-7
-0.469, 1.0770473e-6, 6.7984985e-7
-0.470, 1.0904379e-6, 6.7994870e-7
-0.471, 1.1002828e-6, 7.4114610e-7
-0.472, 1.0638546e-6, 6.4376798e-7
-0.473, 1.0899926e-6, 6.6962554e-7
-0.474, 1.0328025e-6, 6.4028836e-7
-0.475, 1.0893330e-6, 6.2894276e-7
-0.476, 1.0417734e-6, 6.7264335e-7
-0.477, 1.0261072e-6, 6.6436496e-7
-0.478, 1.0586270e-6, 7.3318108e-7
-0.479, 1.0128321e-6, 6.6233656e-7
-0.480, 1.0525584e-6, 6.4055223e-7
-0.481, 9.9075089e-7, 6.4023891e-7
-0.482, 1.0312358e-6, 5.9724738e-7
-0.483, 1.0138216e-6, 6.6495863e-7
-0.484, 9.9492308e-7, 6.0979687e-7
-0.485, 1.0249694e-6, 6.8078981e-7
-0.486, 9.6250221e-7, 6.4515319e-7
-0.487, 1.0194780e-6, 6.3740248e-7
-0.488, 9.7655243e-7, 5.8873815e-7
-0.489, 9.7872908e-7, 5.5834562e-7
-0.490, 9.9401609e-7, 6.6794343e-7
-0.491, 9.3072435e-7, 5.9464185e-7
-0.492, 9.8550686e-7, 6.3041034e-7
-0.493, 9.2356743e-7, 6.1581602e-7
-0.494, 9.5460314e-7, 6.0857656e-7
-0.495, 9.5963287e-7, 6.0747169e-7
-0.496, 9.2640380e-7, 5.1202289e-7
-0.497, 9.5293751e-7, 6.4142625e-7
-0.498, 8.8212596e-7, 5.8674277e-7
-0.499, 9.3786491e-7, 6.3351069e-7
-0.500, 8.8644663e-7, 5.8278499e-7
