Dec. 9, 2005   02:35:31
Square Wave Voltammetry
File: d:\ida_biofilms\11_28_18_blankidapyo\50um_transfer\50um_pyo_transfer_swv_50.txt
Data Source:  Experiment
Instrument Model:  CHI760B
Header: 
Note: 

Init E (V) = 0.1
Final E (V) = -0.5
Incr E (V) = 0.001
Amplitude (V) = 0.025
Frequency (Hz) = 300
Quiet Time (sec) = 2
Sensitivity (A/V) = 1e-6
Sens 2 (A/V) = 1e-6

Potential/V, i1/A, i2/A

0.099, 7.0636708e-7, 3.3850671e-7
0.098, 6.0043010e-7, 3.5941704e-7
0.097, 6.6741575e-7, 4.6291331e-7
0.096, 6.4312479e-7, 4.4734603e-7
0.095, 6.3166374e-7, 4.3857290e-7
0.094, 6.6354039e-7, 5.0385995e-7
0.093, 6.0237596e-7, 4.2277469e-7
0.092, 6.6062159e-7, 4.3517579e-7
0.091, 6.1772892e-7, 3.3877055e-7
0.090, 6.2641959e-7, 4.2928855e-7
0.089, 6.2445724e-7, 4.4991856e-7
0.088, 5.8812799e-7, 4.2613880e-7
0.087, 6.2239582e-7, 4.3027802e-7
0.086, 5.7373154e-7, 3.8877067e-7
0.085, 6.0938464e-7, 4.1926216e-7
0.084, 5.9190438e-7, 3.4330554e-7
0.083, 5.8981004e-7, 3.7333530e-7
0.082, 6.0831269e-7, 4.3019557e-7
0.081, 5.3116878e-7, 4.2264276e-7
0.080, 5.8905147e-7, 4.4747793e-7
0.079, 5.4350392e-7, 3.6889924e-7
0.078, 5.9206934e-7, 3.9525156e-7
0.077, 5.8370847e-7, 3.4609246e-7
0.076, 5.3821032e-7, 3.6329237e-7
0.075, 5.8019589e-7, 3.5981282e-7
0.074, 5.0516280e-7, 3.9864867e-7
0.073, 5.6349074e-7, 4.5470091e-7
0.072, 5.3514304e-7, 3.8461499e-7
0.071, 5.2963514e-7, 3.5108920e-7
0.070, 5.7025193e-7, 3.2209834e-7
0.069, 5.1203938e-7, 3.0324935e-7
0.068, 5.4719783e-7, 3.6807472e-7
0.067, 4.9495492e-7, 3.8032738e-7
0.066, 5.3098734e-7, 4.0385976e-7
0.065, 5.2214830e-7, 3.9632346e-7
0.064, 5.0273860e-7, 3.4155750e-7
0.063, 5.2592469e-7, 3.0709174e-7
0.062, 4.7480319e-7, 3.1871775e-7
0.061, 5.1767927e-7, 3.6190715e-7
0.060, 4.7922271e-7, 3.4830222e-7
0.059, 4.9291009e-7, 3.7002064e-7
0.058, 5.1497477e-7, 3.7145531e-7
0.057, 4.6876755e-7, 3.2485235e-7
0.056, 5.2163705e-7, 2.9968737e-7
0.055, 4.6640935e-7, 2.8101977e-7
0.054, 4.9342128e-7, 3.4086486e-7
0.053, 4.7501754e-7, 3.5240845e-7
0.052, 4.7571018e-7, 3.4586162e-7
0.051, 4.8438437e-7, 3.5173233e-7
0.050, 4.5869166e-7, 3.1454556e-7
0.049, 4.9617529e-7, 3.2191696e-7
0.048, 4.6304524e-7, 2.6619455e-7
0.047, 4.7035067e-7, 3.2645193e-7
0.046, 4.7135660e-7, 3.4032070e-7
0.045, 4.3812764e-7, 3.6320995e-7
0.044, 4.8257039e-7, 3.3062412e-7
0.043, 4.3525824e-7, 3.0183116e-7
0.042, 4.7691401e-7, 3.1029094e-7
0.041, 4.5926888e-7, 2.6868466e-7
0.040, 4.5194696e-7, 2.9394857e-7
0.039, 4.7740872e-7, 3.1200597e-7
0.038, 4.2315401e-7, 3.2538003e-7
0.037, 4.7518247e-7, 3.3761620e-7
0.036, 4.2884332e-7, 2.7279083e-7
0.035, 4.4309138e-7, 3.0468408e-7
0.034, 4.4640603e-7, 2.7044916e-7
0.033, 4.2948648e-7, 2.7635286e-7
0.032, 4.5344763e-7, 3.0433779e-7
0.031, 4.0925227e-7, 3.0601984e-7
0.030, 4.4535062e-7, 3.3136621e-7
0.029, 4.3342777e-7, 2.7946965e-7
0.028, 4.3153130e-7, 2.6299531e-7
0.027, 4.4744496e-7, 2.6423211e-7
0.026, 4.0016585e-7, 3.1144529e-7
0.025, 4.3956234e-7, 3.0537666e-7
0.024, 4.1314408e-7, 3.0963130e-7
0.023, 4.5334866e-7, 3.4144207e-7
0.022, 4.4795615e-7, 2.9139247e-7
0.021, 4.0803192e-7, 2.6347357e-7
0.020, 4.4793967e-7, 2.2241144e-7
0.019, 3.8886961e-7, 2.7734231e-7
0.018, 4.2282417e-7, 3.0095714e-7
0.017, 4.0818034e-7, 3.1820650e-7
0.016, 4.1113219e-7, 2.9704881e-7
0.015, 4.4173913e-7, 2.6772818e-7
0.014, 3.8352658e-7, 2.6723345e-7
0.013, 4.3581895e-7, 2.2824921e-7
0.012, 3.8100350e-7, 2.1569971e-7
0.011, 4.1812430e-7, 2.8162992e-7
0.010, 4.2833210e-7, 3.2602316e-7
0.009, 3.9347054e-7, 3.2091103e-7
0.008, 4.3949638e-7, 2.4859884e-7
0.007, 3.7379704e-7, 2.5961469e-7
0.006, 4.2519883e-7, 2.4645504e-7
0.005, 3.8463145e-7, 2.3840752e-7
0.004, 4.0415659e-7, 2.5539305e-7
0.003, 4.1040659e-7, 3.1426521e-7
0.002, 3.7072977e-7, 3.1640906e-7
0.001, 4.2173579e-7, 2.9231597e-7
-0.000, 3.9068362e-7, 2.5539305e-7
-0.001, 4.1487561e-7, 2.2384614e-7
-0.002, 4.0306819e-7, 2.3291611e-7
-0.003, 3.9445999e-7, 2.8486212e-7
-0.004, 3.9472383e-7, 2.7173542e-7
-0.005, 3.7114199e-7, 3.2227973e-7
-0.006, 4.1939410e-7, 2.5728951e-7
-0.007, 3.8667633e-7, 2.6281393e-7
-0.008, 4.0836176e-7, 2.4348668e-7
-0.009, 4.0252399e-7, 2.4065028e-7
-0.010, 3.6268221e-7, 2.8736872e-7
-0.011, 4.0702599e-7, 2.6067011e-7
-0.012, 3.5755357e-7, 3.1462801e-7
-0.013, 4.0722389e-7, 2.8771504e-7
-0.014, 4.0305170e-7, 2.8657718e-7
-0.015, 3.8870471e-7, 2.4539963e-7
-0.016, 4.2140596e-7, 2.1883295e-7
-0.017, 3.6134645e-7, 2.7015233e-7
-0.018, 4.1157745e-7, 2.6177500e-7
-0.019, 3.8578582e-7, 2.7851317e-7
-0.020, 3.9511963e-7, 2.8801185e-7
-0.021, 4.2185124e-7, 2.9168933e-7
-0.022, 3.8522515e-7, 2.2110868e-7
-0.023, 4.1480962e-7, 2.3134947e-7
-0.024, 3.6563409e-7, 2.7275789e-7
-0.025, 3.9612559e-7, 2.8740169e-7
-0.026, 3.9983601e-7, 2.9696636e-7
-0.027, 3.9154111e-7, 2.7096036e-7
-0.028, 4.2561112e-7, 2.8449932e-7
-0.029, 3.7168618e-7, 2.6858572e-7
-0.030, 4.1743166e-7, 2.3144841e-7
-0.031, 3.8126734e-7, 2.5758635e-7
-0.032, 4.1797588e-7, 2.8275130e-7
-0.033, 4.0717441e-7, 3.2310430e-7
-0.034, 3.8446657e-7, 2.5860874e-7
-0.035, 4.2887629e-7, 2.5143527e-7
-0.036, 3.6708525e-7, 2.5572285e-7
-0.037, 4.1588154e-7, 2.3064037e-7
-0.038, 4.0344747e-7, 2.9991821e-7
-0.039, 3.8928189e-7, 2.6434756e-7
-0.040, 4.3228988e-7, 3.1452907e-7
-0.041, 3.7902461e-7, 3.0341425e-7
-0.042, 4.2528131e-7, 2.6888256e-7
-0.043, 3.8479638e-7, 2.6611207e-7
-0.044, 4.2950290e-7, 2.0893847e-7
-0.045, 4.2791982e-7, 2.6154413e-7
-0.046, 3.8309781e-7, 2.8449932e-7
-0.047, 4.3482947e-7, 3.0430476e-7
-0.048, 3.7697976e-7, 2.9706530e-7
-0.049, 4.3253726e-7, 2.8253692e-7
-0.050, 3.9612559e-7, 2.7961806e-7
-0.051, 4.1370475e-7, 1.9826892e-7
-0.052, 4.4319034e-7, 2.8519196e-7
-0.053, 3.9417964e-7, 2.8126712e-7
-0.054, 4.3905112e-7, 3.1469398e-7
-0.055, 4.0226016e-7, 3.2867817e-7
-0.056, 4.3425229e-7, 2.9962141e-7
-0.057, 4.3515928e-7, 2.9952244e-7
-0.058, 4.2178527e-7, 2.2440683e-7
-0.059, 4.4980317e-7, 2.7199931e-7
-0.060, 3.9544943e-7, 2.8599999e-7
-0.061, 4.3731961e-7, 2.9813722e-7
-0.062, 4.0491517e-7, 3.3108583e-7
-0.063, 4.3517579e-7, 2.7852965e-7
-0.064, 4.4614217e-7, 2.9213459e-7
-0.065, 4.0498111e-7, 2.4376703e-7
-0.066, 4.5003401e-7, 2.4098011e-7
-0.067, 4.1261637e-7, 3.0097362e-7
-0.068, 4.3812764e-7, 3.0931798e-7
-0.069, 4.4177210e-7, 3.6165977e-7
-0.070, 4.4020547e-7, 2.9302507e-7
-0.071, 4.6175893e-7, 2.9521834e-7
-0.072, 4.1744818e-7, 2.8982583e-7
-0.073, 4.7152150e-7, 2.7913981e-7
-0.074, 4.3116853e-7, 3.2068016e-7
-0.075, 4.4132685e-7, 2.9511941e-7
-0.076, 4.7290675e-7, 3.7788675e-7
-0.077, 4.2643563e-7, 3.0829557e-7
-0.078, 4.8281771e-7, 2.9528431e-7
-0.079, 4.2615531e-7, 2.9711478e-7
-0.080, 4.7411058e-7, 2.6421563e-7
-0.081, 4.6495819e-7, 3.3044267e-7
-0.082, 4.6052213e-7, 2.8880342e-7
-0.083, 4.9116210e-7, 3.4975341e-7
-0.084, 4.3571998e-7, 3.1273157e-7
-0.085, 5.0475046e-7, 3.1777776e-7
-0.086, 4.6103335e-7, 3.0377709e-7
-0.087, 4.7963499e-7, 2.5702565e-7
-0.088, 4.9483953e-7, 3.5169936e-7
-0.089, 4.5113887e-7, 2.9694991e-7
-0.090, 5.0191409e-7, 3.7460507e-7
-0.091, 4.5136974e-7, 3.2684770e-7
-0.092, 5.0379401e-7, 3.1830547e-7
-0.093, 4.9807170e-7, 3.1866830e-7
-0.094, 4.8771545e-7, 2.4879674e-7
-0.095, 5.1815749e-7, 3.6004371e-7
-0.096, 4.5425566e-7, 3.3177847e-7
-0.097, 5.2439100e-7, 3.5229300e-7
-0.098, 4.8052550e-7, 3.4714787e-7
-0.099, 5.2848071e-7, 3.1281402e-7
-0.100, 5.2607311e-7, 3.3974351e-7
-0.101, 4.9079927e-7, 2.6794254e-7
-0.102, 5.4835220e-7, 3.1787670e-7
-0.103, 4.8044302e-7, 3.2382988e-7
-0.104, 5.3261994e-7, 3.6903120e-7
-0.105, 5.0811457e-7, 3.8631356e-7
-0.106, 5.0880720e-7, 3.1121442e-7
-0.107, 5.5519581e-7, 3.5907073e-7
-0.108, 4.9695035e-7, 2.6992146e-7
-0.109, 5.5478358e-7, 3.3065709e-7
-0.110, 4.9454269e-7, 3.3069006e-7
-0.111, 5.4939107e-7, 3.7440719e-7
-0.112, 5.5651515e-7, 4.1919620e-7
-0.113, 5.2162056e-7, 3.2574280e-7
-0.114, 5.7508373e-7, 3.4441041e-7
-0.115, 5.1131383e-7, 2.8952903e-7
-0.116, 5.7010357e-7, 3.4711491e-7
-0.117, 5.2935479e-7, 3.6873433e-7
-0.118, 5.5336534e-7, 3.6045594e-7
-0.119, 5.6441422e-7, 4.2030109e-7
-0.120, 5.2633698e-7, 3.4840119e-7
-0.121, 5.8471437e-7, 3.5465121e-7
-0.122, 5.4332247e-7, 3.0057785e-7
-0.123, 5.8393931e-7, 3.1495784e-7
-0.124, 5.7015302e-7, 3.8799561e-7
-0.125, 5.6903161e-7, 3.8021196e-7
-0.126, 5.9328960e-7, 4.1936113e-7
-0.127, 5.4780799e-7, 3.5643220e-7
-0.128, 5.9911088e-7, 3.6200609e-7
-0.129, 5.7147224e-7, 3.4788997e-7
-0.130, 5.8285093e-7, 3.2350007e-7
-0.131, 5.9695060e-7, 4.0277138e-7
-0.132, 5.4533433e-7, 4.0196329e-7
-0.133, 6.1324351e-7, 4.0966449e-7
-0.134, 5.6012664e-7, 3.9431157e-7
-0.135, 6.1784442e-7, 3.6860240e-7
-0.136, 6.0242553e-7, 3.6786031e-7
-0.137, 5.9276192e-7, 3.1309440e-7
-0.138, 6.3260370e-7, 3.8639601e-7
-0.139, 5.6192408e-7, 3.8804507e-7
-0.140, 6.3517621e-7, 4.2350032e-7
-0.141, 5.9233309e-7, 3.7320336e-7
-0.142, 6.0191428e-7, 3.9498769e-7
-0.143, 6.3027846e-7, 3.8672579e-7
-0.144, 5.9172299e-7, 3.0714119e-7
-0.145, 6.4386688e-7, 4.0801541e-7
-0.146, 5.7298939e-7, 3.6960836e-7
-0.147, 6.3407134e-7, 4.3212498e-7
-0.148, 6.2376461e-7, 4.2879384e-7
-0.149, 6.1410100e-7, 3.6983920e-7
-0.150, 6.4465848e-7, 4.4460853e-7
-0.151, 5.9134368e-7, 3.5748761e-7
-0.152, 6.5283791e-7, 4.2318698e-7
-0.153, 6.1040703e-7, 3.9790655e-7
-0.154, 6.5194740e-7, 4.2915664e-7
-0.155, 6.4802259e-7, 4.5681170e-7
-0.156, 6.1886681e-7, 3.6861888e-7
-0.157, 6.7165388e-7, 3.7007010e-7
-0.158, 6.1260027e-7, 3.4345396e-7
-0.159, 6.6626143e-7, 4.3515928e-7
-0.160, 6.4096452e-7, 4.1888291e-7
-0.161, 6.3779828e-7, 4.2148844e-7
-0.162, 6.7440783e-7, 4.2236243e-7
-0.163, 6.1617880e-7, 4.0834524e-7
-0.164, 6.7280826e-7, 4.1210512e-7
-0.165, 6.3669336e-7, 3.4081540e-7
-0.166, 6.7768951e-7, 4.2186770e-7
-0.167, 6.7994876e-7, 4.3862238e-7
-0.168, 6.2768947e-7, 4.2826613e-7
-0.169, 6.8699035e-7, 4.2851349e-7
-0.170, 6.3542359e-7, 4.0077595e-7
-0.171, 6.9109655e-7, 4.3407090e-7
-0.172, 6.5476729e-7, 3.6269870e-7
-0.173, 6.6187488e-7, 4.0511307e-7
-0.174, 6.9513681e-7, 4.4373451e-7
-0.175, 6.4061817e-7, 4.3896870e-7
-0.176, 7.0804913e-7, 4.5369495e-7
-0.177, 6.5765323e-7, 4.1052203e-7
-0.178, 7.0456952e-7, 4.2988225e-7
-0.179, 6.8987629e-7, 4.0011633e-7
-0.180, 6.7650217e-7, 4.0763615e-7
-0.181, 7.0122189e-7, 4.4828596e-7
-0.182, 6.6037421e-7, 4.4901157e-7
-0.183, 7.2711248e-7, 4.8598395e-7
-0.184, 6.8171335e-7, 4.2099370e-7
-0.185, 7.0488284e-7, 4.0600358e-7
-0.186, 7.1611305e-7, 4.0362886e-7
-0.187, 6.7023569e-7, 4.2561112e-7
-0.188, 7.2818438e-7, 4.5847730e-7
-0.189, 6.8238944e-7, 4.6118180e-7
-0.190, 7.2825037e-7, 5.0153477e-7
-0.191, 7.1791055e-7, 4.9168978e-7
-0.192, 7.1481031e-7, 4.3992512e-7
-0.193, 7.3891988e-7, 3.9627398e-7
-0.194, 7.0273904e-7, 4.2331891e-7
-0.195, 7.5277217e-7, 4.7778803e-7
-0.196, 7.0999505e-7, 4.8466467e-7
-0.197, 7.3192780e-7, 5.0476700e-7
-0.198, 7.6807561e-7, 5.1927890e-7
-0.199, 7.2355044e-7, 4.5128729e-7
-0.200, 7.8397272e-7, 4.1030768e-7
-0.201, 7.1482680e-7, 4.0414011e-7
-0.202, 7.7031837e-7, 4.7762313e-7
-0.203, 7.5509735e-7, 5.2853022e-7
-0.204, 7.5821413e-7, 5.1974064e-7
-0.205, 7.9005781e-7, 5.3916676e-7
-0.206, 7.4378465e-7, 4.7966796e-7
-0.207, 8.1167730e-7, 4.5442056e-7
-0.208, 7.7320431e-7, 4.4234929e-7
-0.209, 7.9472477e-7, 4.8797938e-7
-0.210, 7.9983693e-7, 5.2150517e-7
-0.211, 7.7485333e-7, 5.1692069e-7
-0.212, 8.2663445e-7, 5.2363248e-7
-0.213, 7.7574384e-7, 4.6838824e-7
-0.214, 8.2101110e-7, 4.9012317e-7
-0.215, 8.1086921e-7, 4.4276155e-7
-0.216, 8.0506453e-7, 4.8656113e-7
-0.217, 8.5067802e-7, 5.3608301e-7
-0.218, 7.8979400e-7, 5.4831918e-7
-0.219, 8.5770318e-7, 5.3854018e-7
-0.220, 8.3977761e-7, 4.9511988e-7
-0.221, 8.8044391e-7, 5.1208889e-7
-0.222, 8.7521641e-7, 4.8032757e-7
-0.223, 8.2041743e-7, 5.2630401e-7
-0.224, 8.8314846e-7, 5.0305192e-7
-0.225, 8.3130135e-7, 5.7016950e-7
-0.226, 8.8534171e-7, 5.7577637e-7
-0.227, 8.8252182e-7, 5.4065094e-7
-0.228, 8.7795388e-7, 5.0900513e-7
-0.229, 9.2394663e-7, 4.9274519e-7
-0.230, 8.5217869e-7, 5.3891944e-7
-0.231, 9.1969207e-7, 5.4183829e-7
-0.232, 8.6972489e-7, 5.5829616e-7
-0.233, 9.1871908e-7, 5.8347757e-7
-0.234, 9.3105427e-7, 5.8275197e-7
-0.235, 8.8865636e-7, 5.4368525e-7
-0.236, 9.4883131e-7, 4.8501101e-7
-0.237, 8.9358707e-7, 5.5400852e-7
-0.238, 9.5209646e-7, 5.7223087e-7
-0.239, 9.1039124e-7, 5.8647890e-7
-0.240, 9.2544735e-7, 5.6200656e-7
-0.241, 9.6119936e-7, 6.0113922e-7
-0.242, 9.1830685e-7, 5.5742214e-7
-0.243, 9.7270993e-7, 5.1319375e-7
-0.244, 9.4101466e-7, 5.3367535e-7
-0.245, 9.7388079e-7, 5.8105343e-7
-0.246, 9.7792099e-7, 6.3601726e-7
-0.247, 9.7239672e-7, 6.2956940e-7
-0.248, 9.9170734e-7, 5.7676584e-7
-0.249, 9.5227790e-7, 5.8189443e-7
-0.250, 1.0127661e-6, 5.5145244e-7
-0.251, 9.7757481e-7, 5.5113912e-7
-0.252, 9.9117972e-7, 5.9686806e-7
-0.253, 1.0158994e-6, 6.4845131e-7
-0.254, 9.6702070e-7, 6.6266637e-7
-0.255, 1.0315327e-6, 6.3832596e-7
-0.256, 9.8573764e-7, 5.9531794e-7
-0.257, 1.0317470e-6, 5.9446046e-7
-0.258, 1.0486007e-6, 5.7409432e-7
-0.259, 1.0148934e-6, 5.9106333e-7
-0.260, 1.0434720e-6, 6.2724416e-7
-0.261, 9.9235058e-7, 6.5565780e-7
-0.262, 1.0708302e-6, 6.4732995e-7
-0.263, 1.0224627e-6, 6.1152844e-7
-0.264, 1.0326211e-6, 6.1985628e-7
-0.265, 1.0714569e-6, 5.9939123e-7
-0.266, 1.0282511e-6, 6.0295326e-7
-0.267, 1.0678784e-6, 6.4096452e-7
-0.268, 1.0148605e-6, 6.4474091e-7
-0.269, 1.0689998e-6, 6.9249825e-7
-0.270, 1.0765525e-6, 6.4404827e-7
-0.271, 1.0568626e-6, 6.0239256e-7
-0.272, 1.0963580e-6, 6.0918671e-7
-0.273, 1.0396461e-6, 6.3080620e-7
-0.274, 1.0915262e-6, 6.5386030e-7
-0.275, 1.0658335e-6, 6.6217171e-7
-0.276, 1.0878653e-6, 7.0001806e-7
-0.277, 1.0939009e-6, 6.7651865e-7
-0.278, 1.0532840e-6, 6.0631737e-7
-0.279, 1.1120243e-6, 5.7175259e-7
-0.280, 1.0403388e-6, 5.7653494e-7
-0.281, 1.0974794e-6, 6.7955295e-7
-0.282, 1.0833468e-6, 6.8535775e-7
-0.283, 1.0717868e-6, 6.9470804e-7
-0.284, 1.1149926e-6, 6.9632415e-7
-0.285, 1.0456324e-6, 6.5254108e-7
-0.286, 1.1164933e-6, 6.5565786e-7
-0.287, 1.0603256e-6, 5.7877770e-7
-0.288, 1.1010909e-6, 6.5954964e-7
-0.289, 1.1033337e-6, 6.7204968e-7
-0.290, 1.0583632e-6, 6.9622519e-7
-0.291, 1.1211107e-6, 6.8266979e-7
-0.292, 1.0467702e-6, 6.5084248e-7
-0.293, 1.1093692e-6, 6.8252132e-7
-0.294, 1.0762888e-6, 6.1725075e-7
-0.295, 1.0785644e-6, 6.3324683e-7
-0.296, 1.1176476e-6, 6.6858661e-7
-0.297, 1.0586930e-6, 6.8532484e-7
-0.298, 1.1163283e-6, 7.1256761e-7
-0.299, 1.0687689e-6, 6.3854031e-7
-0.300, 1.1057248e-6, 6.5019935e-7
-0.301, 1.0982051e-6, 6.2663401e-7
-0.302, 1.0762886e-6, 6.2261023e-7
-0.303, 1.1043066e-6, 6.6504106e-7
-0.304, 1.0562524e-6, 6.8563810e-7
-0.305, 1.0959787e-6, 7.3128467e-7
-0.306, 1.0774761e-6, 6.7043356e-7
-0.307, 1.0969187e-6, 6.1713530e-7
-0.308, 1.1081984e-6, 6.2076327e-7
-0.309, 1.0456654e-6, 5.9963855e-7
-0.310, 1.0922023e-6, 6.7613939e-7
-0.311, 1.0550486e-6, 6.7068095e-7
-0.312, 1.0954345e-6, 7.2063153e-7
-0.313, 1.0951871e-6, 6.8159784e-7
-0.314, 1.0749364e-6, 6.1845458e-7
-0.315, 1.1081654e-6, 6.2829957e-7
-0.316, 1.0550156e-6, 5.8240568e-7
-0.317, 1.1091879e-6, 6.8045995e-7
-0.318, 1.0586766e-6, 6.5697714e-7
-0.319, 1.0761569e-6, 6.9164071e-7
-0.320, 1.0895968e-6, 7.2515002e-7
-0.321, 1.0445440e-6, 6.5386030e-7
-0.322, 1.1138053e-6, 6.7117566e-7
-0.323, 1.0342208e-6, 5.8903498e-7
-0.324, 1.1012393e-6, 6.6786100e-7
-0.325, 1.0910644e-6, 6.8837556e-7
-0.326, 1.0784820e-6, 6.6914731e-7
-0.327, 1.1040593e-6, 7.2597459e-7
-0.328, 1.0553454e-6, 6.5351401e-7
-0.329, 1.1158336e-6, 6.7237949e-7
-0.330, 1.0760414e-6, 5.7897557e-7
-0.331, 1.0955664e-6, 6.6279836e-7
-0.332, 1.1087261e-6, 7.1382090e-7
-0.333, 1.0624859e-6, 6.7115917e-7
-0.334, 1.1117604e-6, 7.1537102e-7
-0.335, 1.0535314e-6, 6.2724416e-7
-0.336, 1.1033997e-6, 6.8115264e-7
-0.337, 1.1025586e-6, 6.0813130e-7
-0.338, 1.0789438e-6, 6.2973425e-7
-0.339, 1.1139703e-6, 7.0771927e-7
-0.340, 1.0457808e-6, 6.9267969e-7
-0.341, 1.1137722e-6, 7.3197725e-7
-0.342, 1.0663282e-6, 6.9889671e-7
-0.343, 1.1221662e-6, 6.7607345e-7
-0.344, 1.1165098e-6, 6.5171650e-7
-0.345, 1.0607708e-6, 6.0724079e-7
-0.346, 1.1200389e-6, 6.8031153e-7
-0.347, 1.0578356e-6, 6.9566448e-7
-0.348, 1.1159491e-6, 7.5933553e-7
-0.349, 1.1040428e-6, 7.1095144e-7
-0.350, 1.0999200e-6, 6.6268291e-7
-0.351, 1.1432578e-6, 6.9726411e-7
-0.352, 1.0752992e-6, 6.3649549e-7
-0.353, 1.1181753e-6, 6.9670341e-7
-0.354, 1.0767340e-6, 6.7475412e-7
-0.355, 1.1104742e-6, 7.5237642e-7
-0.356, 1.1368594e-6, 7.4157492e-7
-0.357, 1.0979741e-6, 6.6866909e-7
-0.358, 1.1531688e-6, 6.8954648e-7
-0.359, 1.0746066e-6, 6.2270919e-7
-0.360, 1.1394320e-6, 7.0356361e-7
-0.361, 1.1135579e-6, 7.1030831e-7
-0.362, 1.1156853e-6, 6.9983662e-7
-0.363, 1.1469353e-6, 7.5633420e-7
-0.364, 1.1086437e-6, 6.9152532e-7
-0.365, 1.1551148e-6, 7.0550948e-7
-0.366, 1.1134096e-6, 6.4449358e-7
-0.367, 1.1616121e-6, 7.1949370e-7
-0.368, 1.1501675e-6, 7.4520290e-7
-0.369, 1.1378158e-6, 7.2754125e-7
-0.370, 1.1626346e-6, 7.5501487e-7
-0.371, 1.1223805e-6, 7.1405179e-7
-0.372, 1.1817804e-6, 7.0795011e-7
-0.373, 1.1430435e-6, 6.7425947e-7
-0.374, 1.1680106e-6, 7.1027534e-7
-0.375, 1.1784492e-6, 7.5575701e-7
-0.376, 1.1311865e-6, 7.5546018e-7
-0.377, 1.1950884e-6, 8.0199720e-7
-0.378, 1.1512889e-6, 7.1863622e-7
-0.379, 1.1947916e-6, 7.3484659e-7
-0.380, 1.1964902e-6, 7.1232023e-7
-0.381, 1.1736174e-6, 7.0933538e-7
-0.382, 1.2172851e-6, 7.6957627e-7
-0.383, 1.1574235e-6, 7.7765679e-7
-0.384, 1.2323081e-6, 8.0511393e-7
-0.385, 1.1935383e-6, 7.3840863e-7
-0.386, 1.1979414e-6, 7.4368575e-7
-0.387, 1.2311043e-6, 7.3547324e-7
-0.388, 1.1843199e-6, 6.7058198e-7
-0.389, 1.2382943e-6, 7.6904860e-7
-0.390, 1.1741616e-6, 7.7257755e-7
-0.391, 1.2275424e-6, 8.3092203e-7
-0.392, 1.2292739e-6, 7.6367257e-7
-0.393, 1.2278392e-6, 7.4696743e-7
-0.394, 1.2623544e-6, 7.6208943e-7
-0.395, 1.2001180e-6, 7.2325361e-7
-0.396, 1.2664772e-6, 8.0395961e-7
-0.397, 1.2316816e-6, 7.9258092e-7
-0.398, 1.2689013e-6, 8.3586929e-7
-0.399, 1.2810549e-6, 8.2698079e-7
-0.400, 1.2374204e-6, 7.6520621e-7
-0.401, 1.2789442e-6, 7.3577019e-7
-0.402, 1.2316156e-6, 7.1748184e-7
-0.403, 1.2754647e-6, 8.1218849e-7
-0.404, 1.2656692e-6, 7.9314168e-7
-0.405, 1.2568465e-6, 7.9978741e-7
-0.406, 1.2981725e-6, 8.0344842e-7
-0.407, 1.2472818e-6, 7.8967855e-7
-0.408, 1.3118928e-6, 7.6901557e-7
-0.409, 1.2574897e-6, 7.2834928e-7
-0.410, 1.2994587e-6, 8.1072079e-7
-0.411, 1.3045213e-6, 8.1497546e-7
-0.412, 1.2678623e-6, 8.1314499e-7
-0.413, 1.3092379e-6, 8.1665746e-7
-0.414, 1.2515035e-6, 7.9060203e-7
-0.415, 1.3184891e-6, 8.2205003e-7
-0.416, 1.2858703e-6, 7.5153537e-7
-0.417, 1.2840894e-6, 7.9088238e-7
-0.418, 1.3138222e-6, 8.2549661e-7
-0.419, 1.2775261e-6, 8.1415089e-7
-0.420, 1.3160485e-6, 8.3436868e-7
-0.421, 1.2784990e-6, 7.9864958e-7
-0.422, 1.3182912e-6, 7.8415411e-7
-0.423, 1.3161805e-6, 7.7848131e-7
-0.424, 1.2952866e-6, 8.0254136e-7
-0.425, 1.3128823e-6, 8.1124858e-7
-0.426, 1.2680932e-6, 8.4056916e-7
-0.427, 1.3207814e-6, 8.4436215e-7
-0.428, 1.2893333e-6, 8.0290420e-7
-0.429, 1.3058572e-6, 7.8796347e-7
-0.430, 1.3153724e-6, 7.6391996e-7
-0.431, 1.2548181e-6, 8.1335941e-7
-0.432, 1.3136573e-6, 8.0846155e-7
-0.433, 1.2738980e-6, 8.4792407e-7
-0.434, 1.2962760e-6, 8.4220176e-7
-0.435, 1.2980406e-6, 8.2364966e-7
-0.436, 1.2902569e-6, 7.9315816e-7
-0.437, 1.3108538e-6, 7.4248192e-7
-0.438, 1.2652898e-6, 7.8614954e-7
-0.439, 1.3154219e-6, 8.1083624e-7
-0.440, 1.2752338e-6, 8.1949389e-7
-0.441, 1.2786309e-6, 8.6899934e-7
-0.442, 1.3000524e-6, 8.3008104e-7
-0.443, 1.2540265e-6, 7.8085600e-7
-0.444, 1.3015696e-6, 7.3492907e-7
-0.445, 1.2436208e-6, 7.5504795e-7
-0.446, 1.2676315e-6, 7.9653876e-7
-0.447, 1.2700557e-6, 8.2237989e-7
-0.448, 1.2610517e-6, 8.2092856e-7
-0.449, 1.2864145e-6, 8.1375515e-7
-0.450, 1.2356393e-6, 7.7864621e-7
-0.451, 1.2876843e-6, 7.2919033e-7
-0.452, 1.2361340e-6, 7.2208275e-7
-0.453, 1.2537462e-6, 7.7867924e-7
-0.454, 1.2579349e-6, 8.2671693e-7
-0.455, 1.2189341e-6, 7.9777556e-7
-0.456, 1.2544224e-6, 7.9812190e-7
-0.457, 1.2158833e-6, 7.4823720e-7
-0.458, 1.2438188e-6, 7.3214221e-7
-0.459, 1.2257779e-6, 7.3636375e-7
-0.460, 1.2126346e-6, 7.4294366e-7
-0.461, 1.2294553e-6, 7.8263696e-7
-0.462, 1.1788779e-6, 8.1797680e-7
-0.463, 1.2274269e-6, 7.6497543e-7
-0.464, 1.1953193e-6, 7.2475427e-7
-0.465, 1.2204183e-6, 6.9178918e-7
-0.466, 1.2147950e-6, 7.0936835e-7
-0.467, 1.1623542e-6, 7.4264682e-7
-0.468, 1.2037461e-6, 7.1606360e-7
-0.469, 1.1486338e-6, 7.9540092e-7
-0.470, 1.1859031e-6, 7.5964886e-7
-0.471, 1.1572915e-6, 7.2599107e-7
-0.472, 1.1620079e-6, 6.8082278e-7
-0.473, 1.1902072e-6, 6.9172324e-7
-0.474, 1.1179609e-6, 7.1627801e-7
-0.475, 1.1494419e-6, 7.1314474e-7
-0.476, 1.1168726e-6, 7.6078669e-7
-0.477, 1.1334294e-6, 7.1609657e-7
-0.478, 1.1490627e-6, 7.1200691e-7
-0.479, 1.1051311e-6, 6.7562814e-7
-0.480, 1.1269815e-6, 6.2622172e-7
-0.481, 1.0794549e-6, 6.9469155e-7
-0.482, 1.1181918e-6, 6.9413085e-7
-0.483, 1.0831819e-6, 7.2272593e-7
-0.484, 1.0762227e-6, 6.7632084e-7
-0.485, 1.0993264e-6, 6.8725421e-7
-0.486, 1.0490294e-6, 6.7076337e-7
-0.487, 1.0873375e-6, 5.9734634e-7
-0.488, 1.0478255e-6, 6.6199027e-7
-0.489, 1.0482709e-6, 6.6584914e-7
-0.490, 1.0431587e-6, 7.3078991e-7
-0.491, 1.0300321e-6, 6.7005425e-7
-0.492, 1.0537458e-6, 6.4220131e-7
-0.493, 1.0077365e-6, 6.3481343e-7
-0.494, 1.0372714e-6, 5.8832586e-7
-0.495, 1.0007279e-6, 6.5021584e-7
-0.496, 1.0036138e-6, 6.2739258e-7
-0.497, 1.0176805e-6, 6.7645271e-7
-0.498, 9.4362019e-7, 6.5044674e-7
-0.499, 1.0091712e-6, 6.1677247e-7
-0.500, 9.5130486e-7, 6.1406797e-7
