Dec. 9, 2005   02:30:28
Square Wave Voltammetry
File: d:\ida_biofilms\11_28_18_blankidapyo\50um_transfer\50um_pyo_transfer_swv_15.txt
Data Source:  Experiment
Instrument Model:  CHI760B
Header: 
Note: 

Init E (V) = 0.1
Final E (V) = -0.5
Incr E (V) = 0.001
Amplitude (V) = 0.025
Frequency (Hz) = 300
Quiet Time (sec) = 2
Sensitivity (A/V) = 1e-6
Sens 2 (A/V) = 1e-6

Potential/V, i1/A, i2/A

0.099, 6.1410100e-7, 3.1819005e-7
0.098, 6.1695391e-7, 3.8784719e-7
0.097, 5.9812146e-7, 4.4495482e-7
0.096, 6.0331604e-7, 3.8101999e-7
0.095, 6.2317088e-7, 4.2584199e-7
0.094, 5.6288059e-7, 3.7915652e-7
0.093, 6.2003767e-7, 3.6024159e-7
0.092, 5.7007054e-7, 3.9370141e-7
0.091, 5.9836873e-7, 3.8382345e-7
0.090, 5.8781461e-7, 4.5234270e-7
0.089, 5.7096105e-7, 3.8443358e-7
0.088, 5.9927578e-7, 3.6927855e-7
0.087, 5.3705594e-7, 3.1053833e-7
0.086, 5.9050268e-7, 3.2364849e-7
0.085, 5.3908434e-7, 3.6886627e-7
0.084, 5.4459224e-7, 3.8375748e-7
0.083, 5.6114902e-7, 4.4436115e-7
0.082, 5.1830591e-7, 3.5608588e-7
0.081, 5.6042342e-7, 3.5544275e-7
0.080, 4.9729664e-7, 2.9478957e-7
0.079, 5.5357975e-7, 3.4361884e-7
0.078, 5.3997485e-7, 3.7373104e-7
0.077, 5.2379733e-7, 3.5123762e-7
0.076, 5.4823670e-7, 3.7951932e-7
0.075, 4.8835864e-7, 3.3111883e-7
0.074, 5.5044649e-7, 3.4043615e-7
0.073, 4.9930850e-7, 2.6675522e-7
0.072, 5.1550251e-7, 3.4383325e-7
0.071, 5.0643257e-7, 3.8375748e-7
0.070, 4.8339496e-7, 3.2317027e-7
0.069, 5.1606321e-7, 3.4782403e-7
0.068, 4.6334208e-7, 3.1314386e-7
0.067, 5.0080916e-7, 3.3024480e-7
0.066, 5.0323331e-7, 2.6207181e-7
0.065, 4.8623133e-7, 3.0084172e-7
0.064, 5.0667990e-7, 3.4102979e-7
0.063, 4.5381040e-7, 3.4807135e-7
0.062, 4.9998459e-7, 3.3555486e-7
0.061, 4.6457887e-7, 2.9924212e-7
0.060, 4.9109610e-7, 2.8331198e-7
0.059, 4.8824319e-7, 2.7912330e-7
0.058, 4.4624113e-7, 3.0705874e-7
0.057, 4.8403803e-7, 2.9975331e-7
0.056, 4.3560453e-7, 3.3971054e-7
0.055, 4.7904132e-7, 3.2922239e-7
0.054, 4.5273848e-7, 2.9206859e-7
0.053, 4.4543307e-7, 2.3661005e-7
0.052, 4.7313762e-7, 2.4737852e-7
0.051, 4.1716783e-7, 2.8870448e-7
0.050, 4.6865213e-7, 3.1556800e-7
0.049, 4.1969093e-7, 3.2100996e-7
0.048, 4.6002742e-7, 2.7961806e-7
0.047, 4.6184144e-7, 3.0537669e-7
0.046, 4.1500752e-7, 2.2994774e-7
0.045, 4.6842126e-7, 2.4381652e-7
0.044, 4.0414011e-7, 2.9056793e-7
0.043, 4.6009339e-7, 3.2800207e-7
0.042, 4.1596400e-7, 3.1466101e-7
0.041, 4.2547919e-7, 2.4929145e-7
0.040, 4.4419625e-7, 3.0222694e-7
0.039, 3.9846725e-7, 2.2249390e-7
0.038, 4.5931830e-7, 2.7885949e-7
0.037, 3.9017237e-7, 2.8873745e-7
0.036, 4.3351019e-7, 2.8954554e-7
0.035, 4.2313752e-7, 3.1449611e-7
0.034, 4.1748115e-7, 2.6358899e-7
0.033, 4.2584199e-7, 2.7895842e-7
0.032, 3.8314730e-7, 2.1121420e-7
0.031, 4.3397196e-7, 2.8482916e-7
0.030, 3.8718755e-7, 2.7933771e-7
0.029, 4.1360582e-7, 3.1510626e-7
0.028, 4.2043303e-7, 3.1734902e-7
0.027, 3.7249424e-7, 2.5852631e-7
0.026, 4.3633014e-7, 2.5682775e-7
0.025, 3.7358265e-7, 1.9563041e-7
0.024, 4.1083536e-7, 2.8083838e-7
0.023, 4.0260647e-7, 2.8174537e-7
0.022, 3.9559785e-7, 3.2003700e-7
0.021, 4.1555171e-7, 2.7648480e-7
0.020, 3.7745798e-7, 2.6020837e-7
0.019, 4.2966786e-7, 2.3563709e-7
0.018, 3.8322975e-7, 2.3172876e-7
0.017, 3.8829245e-7, 2.7231260e-7
0.016, 4.1123116e-7, 2.9581201e-7
0.015, 3.7592434e-7, 2.8877045e-7
0.014, 4.2450623e-7, 2.7968403e-7
0.013, 3.5540978e-7, 2.5415625e-7
0.012, 4.1197325e-7, 2.2198270e-7
0.011, 3.8910048e-7, 2.5966418e-7
0.010, 3.8306484e-7, 2.4281059e-7
0.009, 4.1439739e-7, 3.0649807e-7
0.008, 3.7059780e-7, 3.0343077e-7
0.007, 4.1185780e-7, 2.5423873e-7
0.006, 3.8115192e-7, 2.4904409e-7
0.005, 4.0686109e-7, 2.0219372e-7
0.004, 4.0552533e-7, 2.9345381e-7
0.003, 3.6292960e-7, 2.3982574e-7
0.002, 4.2013619e-7, 2.7559429e-7
0.001, 3.5427192e-7, 2.5918595e-7
-0.000, 4.0595410e-7, 2.6602962e-7
-0.001, 3.8174556e-7, 2.3354274e-7
-0.002, 3.8169611e-7, 1.7354920e-7
-0.003, 4.1126412e-7, 2.7216421e-7
-0.004, 3.5450279e-7, 2.4792274e-7
-0.005, 4.1251741e-7, 2.9135950e-7
-0.006, 3.5075936e-7, 2.4676837e-7
-0.007, 4.0293628e-7, 2.4477299e-7
-0.008, 4.0733931e-7, 2.4602627e-7
-0.009, 3.6612880e-7, 1.9226627e-7
-0.010, 4.1388617e-7, 2.5923543e-7
-0.011, 3.4584508e-7, 2.6307777e-7
-0.012, 4.0862562e-7, 3.1273157e-7
-0.013, 3.6645861e-7, 2.5166614e-7
-0.014, 3.7988212e-7, 2.2877690e-7
-0.015, 4.0715793e-7, 2.4297549e-7
-0.016, 3.5451927e-7, 2.0590416e-7
-0.017, 4.0760318e-7, 2.6042275e-7
-0.018, 3.5621781e-7, 2.8006332e-7
-0.019, 4.0839473e-7, 3.0410689e-7
-0.020, 3.9409719e-7, 2.8646173e-7
-0.021, 3.8441709e-7, 2.4863184e-7
-0.022, 4.0770212e-7, 1.9553144e-7
-0.023, 3.6187419e-7, 2.0418912e-7
-0.024, 4.0537691e-7, 2.6545246e-7
-0.025, 3.7043287e-7, 2.7897491e-7
-0.026, 4.0390921e-7, 3.0031401e-7
-0.027, 4.0064401e-7, 2.5941682e-7
-0.028, 3.5448630e-7, 2.6800853e-7
-0.029, 4.1060451e-7, 2.1569969e-7
-0.030, 3.6540320e-7, 2.3682441e-7
-0.031, 4.0755370e-7, 2.6047223e-7
-0.032, 3.9327267e-7, 2.9881335e-7
-0.033, 3.8487883e-7, 2.7605603e-7
-0.034, 4.1228657e-7, 2.4525121e-7
-0.035, 3.6934449e-7, 2.4147482e-7
-0.036, 4.2175228e-7, 2.0793252e-7
-0.037, 3.8646195e-7, 2.4561402e-7
-0.038, 3.8845735e-7, 2.6428160e-7
-0.039, 4.1871795e-7, 3.0869131e-7
-0.040, 3.8077263e-7, 2.8985883e-7
-0.041, 4.2336836e-7, 2.6071959e-7
-0.042, 3.7726008e-7, 2.4386597e-7
-0.043, 4.1461175e-7, 2.2727625e-7
-0.044, 4.1418301e-7, 2.7885946e-7
-0.045, 4.0334851e-7, 2.4368458e-7
-0.046, 4.2666653e-7, 3.4620791e-7
-0.047, 3.8261959e-7, 2.8299866e-7
-0.048, 4.4358609e-7, 2.5801512e-7
-0.049, 4.0498111e-7, 2.4808764e-7
-0.050, 4.3421932e-7, 2.2218057e-7
-0.051, 4.3984269e-7, 3.0000069e-7
-0.052, 3.9828586e-7, 2.4185411e-7
-0.053, 4.4193700e-7, 2.9098021e-7
-0.054, 3.8703911e-7, 2.8220711e-7
-0.055, 4.3664349e-7, 2.7415959e-7
-0.056, 4.2874439e-7, 2.8065696e-7
-0.057, 4.2152141e-7, 2.1005984e-7
-0.058, 4.5590474e-7, 3.0760293e-7
-0.059, 3.8979312e-7, 2.7272489e-7
-0.060, 4.5193042e-7, 3.2750734e-7
-0.061, 4.0661371e-7, 2.8133309e-7
-0.062, 4.6251751e-7, 2.6334163e-7
-0.063, 4.5936781e-7, 2.9309103e-7
-0.064, 4.2394555e-7, 2.2694643e-7
-0.065, 4.7722733e-7, 2.7897491e-7
-0.066, 4.0511304e-7, 2.8547228e-7
-0.067, 4.6812443e-7, 3.2096051e-7
-0.068, 4.3176220e-7, 3.0895518e-7
-0.069, 4.4360257e-7, 2.6944321e-7
-0.070, 4.8144898e-7, 2.9782387e-7
-0.071, 4.1799237e-7, 2.4251375e-7
-0.072, 4.8586855e-7, 3.1347366e-7
-0.073, 4.2277469e-7, 2.8350988e-7
-0.074, 4.8116863e-7, 3.4563072e-7
-0.075, 4.7859606e-7, 3.1754689e-7
-0.076, 4.5776818e-7, 2.8131660e-7
-0.077, 4.9356970e-7, 2.8306462e-7
-0.078, 4.3720414e-7, 2.4432774e-7
-0.079, 4.8388961e-7, 3.1190703e-7
-0.080, 4.4975366e-7, 3.0471705e-7
-0.081, 4.7910726e-7, 3.1911350e-7
-0.082, 4.9544963e-7, 3.3191040e-7
-0.083, 4.4967118e-7, 3.0420583e-7
-0.084, 5.1078609e-7, 2.7819985e-7
-0.085, 4.6227018e-7, 2.8392213e-7
-0.086, 5.0026500e-7, 3.1972368e-7
-0.087, 4.8685797e-7, 3.3042619e-7
-0.088, 4.9183819e-7, 3.4909380e-7
-0.089, 5.1649192e-7, 3.3172898e-7
-0.090, 4.8111917e-7, 3.0775135e-7
-0.091, 5.3243855e-7, 2.8835817e-7
-0.092, 4.8471418e-7, 2.7595709e-7
-0.093, 5.1124789e-7, 3.3847374e-7
-0.094, 5.2538047e-7, 3.6743160e-7
-0.095, 4.9739560e-7, 3.6990519e-7
-0.096, 5.4739570e-7, 3.5174881e-7
-0.097, 4.9490546e-7, 3.1700267e-7
-0.098, 5.5301905e-7, 2.9221701e-7
-0.099, 5.3469773e-7, 3.1713463e-7
-0.100, 5.2516606e-7, 3.1810757e-7
-0.101, 5.5821363e-7, 3.6350673e-7
-0.102, 5.1334223e-7, 3.7963477e-7
-0.103, 5.7605672e-7, 3.5979633e-7
-0.104, 5.3550582e-7, 3.2071313e-7
-0.105, 5.6655801e-7, 2.8004681e-7
-0.106, 5.6476051e-7, 3.3646185e-7
-0.107, 5.4098081e-7, 3.2394533e-7
-0.108, 5.8540695e-7, 3.6588142e-7
-0.109, 5.3326306e-7, 3.7808462e-7
-0.110, 5.8924934e-7, 3.7026800e-7
-0.111, 5.7140630e-7, 3.6230293e-7
-0.112, 5.7719461e-7, 2.7693005e-7
-0.113, 6.0729030e-7, 3.6837156e-7
-0.114, 5.5529483e-7, 3.5681148e-7
-0.115, 6.1614583e-7, 3.8326277e-7
-0.116, 5.7961870e-7, 3.9353651e-7
-0.117, 6.0897236e-7, 3.4914325e-7
-0.118, 6.1505750e-7, 3.8712159e-7
-0.119, 5.7940434e-7, 3.0819660e-7
-0.120, 6.4337212e-7, 3.5545924e-7
-0.121, 5.6998806e-7, 3.6347376e-7
-0.122, 6.3666039e-7, 4.2087825e-7
-0.123, 6.0628435e-7, 4.0529446e-7
-0.124, 6.0435491e-7, 3.6001072e-7
-0.125, 6.5653182e-7, 3.9675220e-7
-0.126, 5.9886349e-7, 3.0890573e-7
-0.127, 6.5057861e-7, 3.8167963e-7
-0.128, 5.9525200e-7, 3.7213144e-7
-0.129, 6.5221127e-7, 4.0448640e-7
-0.130, 6.4582929e-7, 4.2767249e-7
-0.131, 6.1865245e-7, 3.7201602e-7
-0.132, 6.7284122e-7, 3.8080560e-7
-0.133, 6.1362277e-7, 3.3199282e-7
-0.134, 6.7440783e-7, 3.9869815e-7
-0.135, 6.2800268e-7, 4.0305170e-7
-0.136, 6.6022579e-7, 3.8436764e-7
-0.137, 6.6218820e-7, 4.4460853e-7
-0.138, 6.2351728e-7, 3.8408729e-7
-0.139, 6.8110313e-7, 4.1393562e-7
-0.140, 6.4182200e-7, 3.4295923e-7
-0.141, 6.8614929e-7, 4.1078590e-7
-0.142, 6.6007732e-7, 4.3814413e-7
-0.143, 6.7315455e-7, 4.1034062e-7
-0.144, 6.8567107e-7, 4.2729317e-7
-0.145, 6.4864923e-7, 4.0333208e-7
-0.146, 7.1020941e-7, 3.9063411e-7
-0.147, 6.6444744e-7, 3.5882337e-7
-0.148, 6.9711569e-7, 4.1932810e-7
-0.149, 6.9652202e-7, 4.4493834e-7
-0.150, 6.6560176e-7, 4.4058476e-7
-0.151, 7.0862626e-7, 4.5649841e-7
-0.152, 6.5504764e-7, 4.1349040e-7
-0.153, 7.2482021e-7, 4.3290009e-7
-0.154, 7.0582286e-7, 3.9511963e-7
-0.155, 6.9266321e-7, 4.0506359e-7
-0.156, 7.1652534e-7, 4.3255375e-7
-0.157, 6.7653514e-7, 4.5798257e-7
-0.158, 7.2867908e-7, 4.3585192e-7
-0.159, 6.9109655e-7, 4.2201614e-7
-0.160, 7.1228726e-7, 3.9947318e-7
-0.161, 7.3158151e-7, 4.1664009e-7
-0.162, 6.8629771e-7, 4.0254048e-7
-0.163, 7.3365931e-7, 4.5672925e-7
-0.164, 6.8324687e-7, 4.7518245e-7
-0.165, 7.2521601e-7, 4.8628078e-7
-0.166, 7.3799640e-7, 4.3217443e-7
-0.167, 7.2262696e-7, 3.6349027e-7
-0.168, 7.4805575e-7, 4.2744159e-7
-0.169, 6.9518626e-7, 4.4889612e-7
-0.170, 7.5701030e-7, 4.6480974e-7
-0.171, 7.2122526e-7, 4.8430184e-7
-0.172, 7.5051292e-7, 4.4188752e-7
-0.173, 7.6499185e-7, 4.7076293e-7
-0.174, 7.1931231e-7, 3.7028448e-7
-0.175, 7.7604068e-7, 4.3370807e-7
-0.176, 7.1070411e-7, 4.4272855e-7
-0.177, 7.6365609e-7, 4.9200310e-7
-0.178, 7.4573057e-7, 4.9291009e-7
-0.179, 7.4084926e-7, 4.3763293e-7
-0.180, 7.8878804e-7, 4.6657425e-7
-0.181, 7.3647925e-7, 3.8667633e-7
-0.182, 7.9559874e-7, 4.6509012e-7
-0.183, 7.3316460e-7, 4.5009995e-7
-0.184, 7.8733683e-7, 4.8786387e-7
-0.185, 7.9296024e-7, 5.2280791e-7
-0.186, 7.5593834e-7, 4.4762635e-7
-0.187, 8.0486666e-7, 4.5648193e-7
-0.188, 7.5813170e-7, 4.0351347e-7
-0.189, 8.0795041e-7, 5.0209547e-7
-0.190, 7.8037772e-7, 4.7333552e-7
-0.191, 7.9403213e-7, 5.1518919e-7
-0.192, 8.2234686e-7, 5.2628747e-7
-0.193, 7.6240275e-7, 4.7239553e-7
-0.194, 8.3019648e-7, 4.8550572e-7
-0.195, 7.8798001e-7, 4.1721728e-7
-0.196, 8.4088254e-7, 4.8712184e-7
-0.197, 8.1566805e-7, 5.2114234e-7
-0.198, 8.1891676e-7, 5.1642598e-7
-0.199, 8.4432907e-7, 5.2816745e-7
-0.200, 8.0217859e-7, 4.8994173e-7
-0.201, 8.6662465e-7, 5.0038045e-7
-0.202, 8.3967871e-7, 4.7816729e-7
-0.203, 8.4111332e-7, 4.9325638e-7
-0.204, 8.6055604e-7, 5.1952622e-7
-0.205, 8.1787783e-7, 5.5979677e-7
-0.206, 8.8174670e-7, 5.3296628e-7
-0.207, 8.2351767e-7, 5.1589825e-7
-0.208, 8.8558909e-7, 4.6685460e-7
-0.209, 8.9139382e-7, 4.8364222e-7
-0.210, 8.7073090e-7, 5.1574983e-7
-0.211, 9.0122234e-7, 5.5066090e-7
-0.212, 8.6814180e-7, 5.7417674e-7
-0.213, 9.2671712e-7, 5.6723411e-7
-0.214, 8.9244929e-7, 5.2787061e-7
-0.215, 8.9891364e-7, 4.9574652e-7
-0.216, 9.3245592e-7, 5.6192414e-7
-0.217, 8.9940841e-7, 5.1538706e-7
-0.218, 9.4835309e-7, 5.7343465e-7
-0.219, 8.9403238e-7, 5.7777174e-7
-0.220, 9.5214597e-7, 5.7653494e-7
-0.221, 9.5470205e-7, 5.6161076e-7
-0.222, 9.4988673e-7, 4.5658084e-7
-0.223, 9.8534201e-7, 5.9094793e-7
-0.224, 9.2729431e-7, 5.6471106e-7
-0.225, 1.0141018e-6, 6.0981336e-7
-0.226, 9.6147983e-7, 6.0806536e-7
-0.227, 9.8738678e-7, 5.7188458e-7
-0.228, 1.0207642e-6, 6.1006074e-7
-0.229, 9.6550343e-7, 4.7478667e-7
-0.230, 1.0441481e-6, 5.7168666e-7
-0.231, 9.6096846e-7, 5.7867874e-7
-0.232, 1.0277728e-6, 6.3019604e-7
-0.233, 1.0129311e-6, 6.2953643e-7
-0.234, 9.9579711e-7, 5.6672292e-7
-0.235, 1.0680762e-6, 6.0672960e-7
-0.236, 9.9137753e-7, 5.3360941e-7
-0.237, 1.0630631e-6, 6.1439783e-7
-0.238, 1.0232708e-6, 5.9756070e-7
-0.239, 1.0780037e-6, 6.3110303e-7
-0.240, 1.0860678e-6, 6.8872191e-7
-0.241, 1.0409655e-6, 5.9892943e-7
-0.242, 1.1176312e-6, 6.0816433e-7
-0.243, 1.0574067e-6, 5.4884686e-7
-0.244, 1.1011733e-6, 6.4540058e-7
-0.245, 1.0845176e-6, 6.4719802e-7
-0.246, 1.0823409e-6, 6.4365253e-7
-0.247, 1.1299333e-6, 6.8877137e-7
-0.248, 1.0725782e-6, 6.1960895e-7
-0.249, 1.1496562e-6, 6.0968148e-7
-0.250, 1.1124037e-6, 5.4798932e-7
-0.251, 1.1414438e-6, 6.6006083e-7
-0.252, 1.1337262e-6, 6.7772248e-7
-0.253, 1.1136403e-6, 6.6279830e-7
-0.254, 1.1657019e-6, 6.8748511e-7
-0.255, 1.1171529e-6, 6.4230028e-7
-0.256, 1.1685712e-6, 6.6583266e-7
-0.257, 1.1548839e-6, 5.9073352e-7
-0.258, 1.1604084e-6, 6.5104041e-7
-0.259, 1.1715726e-6, 6.7833264e-7
-0.260, 1.1195276e-6, 6.9314137e-7
-0.261, 1.2011242e-6, 6.9815462e-7
-0.262, 1.1557249e-6, 6.5036431e-7
-0.263, 1.1987164e-6, 6.5486626e-7
-0.264, 1.1907018e-6, 6.4201993e-7
-0.265, 1.1742111e-6, 6.7453976e-7
-0.266, 1.1996399e-6, 6.8944746e-7
-0.267, 1.1532184e-6, 7.3616593e-7
-0.268, 1.2403887e-6, 7.2185190e-7
-0.269, 1.1945112e-6, 6.8163081e-7
-0.270, 1.1934889e-6, 6.3139981e-7
-0.271, 1.2173181e-6, 6.6718485e-7
-0.272, 1.1796695e-6, 6.8072382e-7
-0.273, 1.2197917e-6, 6.9798972e-7
-0.274, 1.1769156e-6, 7.3590206e-7
-0.275, 1.2211110e-6, 7.0229385e-7
-0.276, 1.2330833e-6, 7.0125492e-7
-0.277, 1.2091220e-6, 6.1670653e-7
-0.278, 1.2334295e-6, 6.6893290e-7
-0.279, 1.1862494e-6, 7.1739942e-7
-0.280, 1.2362166e-6, 7.1396926e-7
-0.281, 1.2111999e-6, 7.4955642e-7
-0.282, 1.2343860e-6, 7.1372193e-7
-0.283, 1.2443795e-6, 7.3692445e-7
-0.284, 1.1984691e-6, 5.7879419e-7
-0.285, 1.2354579e-6, 6.1937806e-7
-0.286, 1.1834459e-6, 7.0125492e-7
-0.287, 1.2274929e-6, 7.2734338e-7
-0.288, 1.2229084e-6, 7.8600112e-7
-0.289, 1.1989638e-6, 6.7556221e-7
-0.290, 1.2556591e-6, 7.2989940e-7
-0.291, 1.1868431e-6, 6.3166368e-7
-0.292, 1.2354744e-6, 6.6852067e-7
-0.293, 1.1864803e-6, 6.9643954e-7
-0.294, 1.2024764e-6, 7.4672005e-7
-0.295, 1.2396631e-6, 7.7615607e-7
-0.296, 1.1607876e-6, 6.8687490e-7
-0.297, 1.2441981e-6, 6.8131749e-7
-0.298, 1.1668396e-6, 6.2294009e-7
-0.299, 1.2120246e-6, 6.9033797e-7
-0.300, 1.1911636e-6, 7.0992905e-7
-0.301, 1.1728094e-6, 7.0750491e-7
-0.302, 1.2400589e-6, 7.7556240e-7
-0.303, 1.1685217e-6, 6.8214206e-7
-0.304, 1.2101941e-6, 6.9601083e-7
-0.305, 1.1761405e-6, 6.2420986e-7
-0.306, 1.2096003e-6, 6.8614929e-7
-0.307, 1.2049170e-6, 7.3390669e-7
-0.308, 1.1617770e-6, 7.1289742e-7
-0.309, 1.2047850e-6, 7.2729392e-7
-0.310, 1.1365296e-6, 6.8814467e-7
-0.311, 1.1972488e-6, 6.9093164e-7
-0.312, 1.1615626e-6, 6.4173958e-7
-0.313, 1.1754314e-6, 6.6357342e-7
-0.314, 1.1856228e-6, 7.1202339e-7
-0.315, 1.1352104e-6, 7.1969163e-7
-0.316, 1.1948412e-6, 7.1891657e-7
-0.317, 1.1404379e-6, 6.7790393e-7
-0.318, 1.1715890e-6, 6.8783140e-7
-0.319, 1.1679116e-6, 6.6452986e-7
-0.320, 1.1759262e-6, 6.7267632e-7
-0.321, 1.1716551e-6, 6.7544681e-7
-0.322, 1.1245409e-6, 7.5575696e-7
-0.323, 1.1794552e-6, 7.2308870e-7
-0.324, 1.1412790e-6, 6.8916711e-7
-0.325, 1.1486338e-6, 6.6922973e-7
-0.326, 1.1761075e-6, 6.5547641e-7
-0.327, 1.1344189e-6, 6.9780833e-7
-0.328, 1.1636239e-6, 6.8773244e-7
-0.329, 1.1043066e-6, 7.1060515e-7
-0.330, 1.1483866e-6, 7.3128467e-7
-0.331, 1.1580337e-6, 7.0852735e-7
-0.332, 1.1369749e-6, 6.4248167e-7
-0.333, 1.1666914e-6, 6.8369218e-7
-0.334, 1.1190989e-6, 6.9848443e-7
-0.335, 1.1615791e-6, 6.9304247e-7
-0.336, 1.1409657e-6, 7.2122521e-7
-0.337, 1.1430765e-6, 7.1563488e-7
-0.338, 1.1677632e-6, 7.0925296e-7
-0.339, 1.1203687e-6, 5.8858973e-7
-0.340, 1.1698576e-6, 6.2340177e-7
-0.341, 1.1100288e-6, 6.6682207e-7
-0.342, 1.1448080e-6, 7.3417050e-7
-0.343, 1.1468528e-6, 7.6614617e-7
-0.344, 1.1389868e-6, 6.9282805e-7
-0.345, 1.1766682e-6, 7.2739283e-7
-0.346, 1.1231721e-6, 6.2420986e-7
-0.347, 1.1722157e-6, 6.6342500e-7
-0.348, 1.1374366e-6, 6.9779179e-7
-0.349, 1.1632117e-6, 7.4479055e-7
-0.350, 1.1708470e-6, 7.5959935e-7
-0.351, 1.1172353e-6, 6.9676940e-7
-0.352, 1.1838417e-6, 6.8473111e-7
-0.353, 1.1322420e-6, 6.3916701e-7
-0.354, 1.1866946e-6, 7.2660123e-7
-0.355, 1.1454841e-6, 7.1664078e-7
-0.356, 1.1283502e-6, 7.2511705e-7
-0.357, 1.1964572e-6, 7.6243577e-7
-0.358, 1.1382776e-6, 6.8179577e-7
-0.359, 1.1998213e-6, 7.1619559e-7
-0.360, 1.1479577e-6, 6.4172309e-7
-0.361, 1.1842210e-6, 7.2120872e-7
-0.362, 1.1899103e-6, 7.4259731e-7
-0.363, 1.1558733e-6, 7.2643638e-7
-0.364, 1.2110186e-6, 7.4815472e-7
-0.365, 1.1490956e-6, 7.2757416e-7
-0.366, 1.2070113e-6, 7.1029183e-7
-0.367, 1.1785976e-6, 6.6927925e-7
-0.368, 1.1946762e-6, 7.0414080e-7
-0.369, 1.2020146e-6, 7.7788764e-7
-0.370, 1.1524762e-6, 7.8443452e-7
-0.371, 1.2367773e-6, 7.6411783e-7
-0.372, 1.1942969e-6, 7.4452680e-7
-0.373, 1.2196102e-6, 6.8283470e-7
-0.374, 1.2192475e-6, 7.3738624e-7
-0.375, 1.2182910e-6, 7.3369227e-7
-0.376, 1.2374863e-6, 7.8181245e-7
-0.377, 1.2000522e-6, 8.2670044e-7
-0.378, 1.2507779e-6, 7.5580647e-7
-0.379, 1.2305106e-6, 7.7275899e-7
-0.380, 1.2417080e-6, 7.0331623e-7
-0.381, 1.2737991e-6, 8.0046357e-7
-0.382, 1.2232053e-6, 7.7475443e-7
-0.383, 1.2708142e-6, 8.0841215e-7
-0.384, 1.2241617e-6, 8.0069435e-7
-0.385, 1.2811209e-6, 7.8552290e-7
-0.386, 1.2821764e-6, 8.0089234e-7
-0.387, 1.2755966e-6, 6.9228389e-7
-0.388, 1.3239146e-6, 7.8572077e-7
-0.389, 1.2484857e-6, 7.9609345e-7
-0.390, 1.3142345e-6, 8.3133432e-7
-0.391, 1.2877504e-6, 8.1560211e-7
-0.392, 1.3058572e-6, 8.0118917e-7
-0.393, 1.3265530e-6, 8.2234681e-7
-0.394, 1.2875854e-6, 7.3184538e-7
-0.395, 1.3396633e-6, 8.1093515e-7
-0.396, 1.3021468e-6, 8.0788436e-7
-0.397, 1.3427800e-6, 8.8001525e-7
-0.398, 1.3429120e-6, 8.4726446e-7
-0.399, 1.3339575e-6, 7.8624845e-7
-0.400, 1.3692313e-6, 7.9319113e-7
-0.401, 1.3182748e-6, 8.0684549e-7
-0.402, 1.3668072e-6, 8.3540760e-7
-0.403, 1.3431099e-6, 8.5056257e-7
-0.404, 1.3838421e-6, 8.6291425e-7
-0.405, 1.3653889e-6, 8.6794387e-7
-0.406, 1.3436540e-6, 8.3943132e-7
-0.407, 1.3954682e-6, 7.7523259e-7
-0.408, 1.3592710e-6, 8.3489630e-7
-0.409, 1.3859694e-6, 8.5201384e-7
-0.410, 1.3782519e-6, 8.9368609e-7
-0.411, 1.3750525e-6, 8.6182581e-7
-0.412, 1.4238819e-6, 8.5120575e-7
-0.413, 1.3787301e-6, 8.0740620e-7
-0.414, 1.4248549e-6, 7.8844175e-7
-0.415, 1.3745907e-6, 8.5712600e-7
-0.416, 1.4074241e-6, 8.5755471e-7
-0.417, 1.4268996e-6, 9.3860695e-7
-0.418, 1.3912960e-6, 8.8008119e-7
-0.419, 1.4353100e-6, 8.5412466e-7
-0.420, 1.3821931e-6, 8.1758100e-7
-0.421, 1.4346998e-6, 8.1269974e-7
-0.422, 1.4067643e-6, 8.7566156e-7
-0.423, 1.4050494e-6, 8.6217210e-7
-0.424, 1.4448747e-6, 9.5607083e-7
-0.425, 1.3929946e-6, 8.6833973e-7
-0.426, 1.4470844e-6, 8.7376520e-7
-0.427, 1.4133936e-6, 8.3156522e-7
-0.428, 1.4497559e-6, 8.7524933e-7
-0.429, 1.4427968e-6, 9.0151923e-7
-0.430, 1.4279221e-6, 8.9594528e-7
-0.431, 1.4584796e-6, 9.0198091e-7
-0.432, 1.4007783e-6, 8.7421040e-7
-0.433, 1.4599308e-6, 8.8232395e-7
-0.434, 1.4160322e-6, 8.3283498e-7
-0.435, 1.4348813e-6, 8.8516032e-7
-0.436, 1.4461609e-6, 8.9843547e-7
-0.437, 1.3986344e-6, 8.9827051e-7
-0.438, 1.4444623e-6, 9.1111679e-7
-0.439, 1.4030211e-6, 8.7544720e-7
-0.440, 1.4538291e-6, 8.8042748e-7
-0.441, 1.4469030e-6, 8.4907845e-7
-0.442, 1.4167908e-6, 8.6751515e-7
-0.443, 1.4425000e-6, 8.8466555e-7
-0.444, 1.4006134e-6, 9.3484709e-7
-0.445, 1.4501187e-6, 8.9515368e-7
-0.446, 1.4236674e-6, 8.7237993e-7
-0.447, 1.4049834e-6, 8.2658499e-7
-0.448, 1.4436214e-6, 8.7074739e-7
-0.449, 1.3978264e-6, 8.4348807e-7
-0.450, 1.4365303e-6, 8.9521973e-7
-0.451, 1.3797854e-6, 9.2361688e-7
-0.452, 1.4183245e-6, 8.6609697e-7
-0.453, 1.4317644e-6, 8.6985688e-7
-0.454, 1.3981562e-6, 7.7574384e-7
-0.455, 1.4182749e-6, 8.9604418e-7
-0.456, 1.3710123e-6, 8.6027569e-7
-0.457, 1.4143832e-6, 9.0913795e-7
-0.458, 1.3780705e-6, 8.6674004e-7
-0.459, 1.4012729e-6, 8.4884755e-7
-0.460, 1.4137399e-6, 8.5130472e-7
-0.461, 1.3590895e-6, 7.5877483e-7
-0.462, 1.4078528e-6, 8.3288450e-7
-0.463, 1.3315498e-6, 8.3214240e-7
-0.464, 1.3772789e-6, 8.7882790e-7
-0.465, 1.3604088e-6, 8.6550335e-7
-0.466, 1.3488982e-6, 8.0875839e-7
-0.467, 1.3849965e-6, 7.9325707e-7
-0.468, 1.3075393e-6, 7.6733352e-7
-0.469, 1.3646634e-6, 8.4084957e-7
-0.470, 1.3152076e-6, 8.2449060e-7
-0.471, 1.3402240e-6, 8.6294716e-7
-0.472, 1.3422523e-6, 8.3539112e-7
-0.473, 1.2873051e-6, 8.0320103e-7
-0.474, 1.3331660e-6, 7.3606697e-7
-0.475, 1.2743103e-6, 7.9515354e-7
-0.476, 1.3200392e-6, 8.1865295e-7
-0.477, 1.2771302e-6, 8.3786472e-7
-0.478, 1.2720016e-6, 7.8852418e-7
-0.479, 1.3013222e-6, 7.9032168e-7
-0.480, 1.2467376e-6, 7.8981054e-7
-0.481, 1.2804778e-6, 7.2892647e-7
-0.482, 1.2524600e-6, 7.7641999e-7
-0.483, 1.2583141e-6, 7.8191141e-7
-0.484, 1.2471170e-6, 8.1599785e-7
-0.485, 1.2261901e-6, 7.7905844e-7
-0.486, 1.2496400e-6, 7.5819764e-7
-0.487, 1.2093366e-6, 7.3659464e-7
-0.488, 1.2281689e-6, 7.1296336e-7
-0.489, 1.1990792e-6, 7.6405183e-7
-0.490, 1.2088417e-6, 7.2191790e-7
-0.491, 1.2029875e-6, 8.1474462e-7
-0.492, 1.1479577e-6, 7.6715213e-7
-0.493, 1.1978095e-6, 7.1960915e-7
-0.494, 1.1255303e-6, 6.5235963e-7
-0.495, 1.1712427e-6, 7.0229379e-7
-0.496, 1.1577038e-6, 7.4632425e-7
-0.497, 1.1433239e-6, 7.2579320e-7
-0.498, 1.1505138e-6, 7.5747209e-7
-0.499, 1.0955006e-6, 7.0151873e-7
-0.500, 1.1557249e-6, 7.0112293e-7
