Dec. 9, 2005   02:34:56
Square Wave Voltammetry
File: d:\ida_biofilms\11_28_18_blankidapyo\50um_transfer\50um_pyo_transfer_swv_46.txt
Data Source:  Experiment
Instrument Model:  CHI760B
Header: 
Note: 

Init E (V) = 0.1
Final E (V) = -0.5
Incr E (V) = 0.001
Amplitude (V) = 0.025
Frequency (Hz) = 300
Quiet Time (sec) = 2
Sensitivity (A/V) = 1e-6
Sens 2 (A/V) = 1e-6

Potential/V, i1/A, i2/A

0.099, 6.7069743e-7, 3.4442689e-7
0.098, 6.5885700e-7, 4.4018901e-7
0.097, 5.9968806e-7, 4.8176230e-7
0.096, 6.7117566e-7, 4.6710198e-7
0.095, 6.1443080e-7, 4.1602999e-7
0.094, 6.5852726e-7, 4.2376416e-7
0.093, 6.5638346e-7, 3.8672579e-7
0.092, 6.0260692e-7, 4.1692047e-7
0.091, 6.5425610e-7, 4.0074301e-7
0.090, 5.7735951e-7, 4.6495813e-7
0.089, 6.2364916e-7, 4.5671277e-7
0.088, 5.9650529e-7, 4.0356292e-7
0.087, 6.0171641e-7, 3.8463148e-7
0.086, 6.1743214e-7, 3.6098368e-7
0.085, 5.8242222e-7, 3.9427857e-7
0.084, 5.9546636e-7, 3.9719748e-7
0.083, 5.6065431e-7, 4.2509993e-7
0.082, 6.0052906e-7, 4.4594429e-7
0.081, 5.8731990e-7, 3.9868164e-7
0.080, 5.5912062e-7, 3.7173567e-7
0.079, 5.8375792e-7, 3.3248756e-7
0.078, 5.4348737e-7, 3.7968422e-7
0.077, 5.7760690e-7, 3.9292638e-7
0.076, 5.3980989e-7, 4.0315064e-7
0.075, 5.5895578e-7, 3.7158725e-7
0.074, 5.5737263e-7, 3.7023500e-7
0.073, 5.2091150e-7, 3.6598038e-7
0.072, 5.6057183e-7, 3.1076917e-7
0.071, 5.2157111e-7, 3.4727981e-7
0.070, 5.3565424e-7, 3.6523829e-7
0.069, 5.3105327e-7, 4.0991188e-7
0.068, 5.2252756e-7, 3.9406422e-7
0.067, 5.3713836e-7, 3.4449286e-7
0.066, 4.9035401e-7, 3.5956546e-7
0.065, 5.5298608e-7, 3.0686084e-7
0.064, 5.0501433e-7, 3.4582862e-7
0.063, 5.0359614e-7, 3.5298564e-7
0.062, 5.1149522e-7, 4.0442046e-7
0.061, 4.7735927e-7, 3.6192364e-7
0.060, 5.2829932e-7, 3.2501725e-7
0.059, 4.6731634e-7, 3.2986551e-7
0.058, 5.0184809e-7, 2.7958507e-7
0.057, 5.0564103e-7, 3.2852975e-7
0.056, 4.7829923e-7, 3.1246773e-7
0.055, 5.1533755e-7, 3.6386956e-7
0.054, 4.5905449e-7, 3.6800876e-7
0.053, 5.0672941e-7, 3.3741830e-7
0.052, 4.6700302e-7, 3.1027446e-7
0.051, 4.8306509e-7, 2.6622752e-7
0.050, 4.8941405e-7, 3.4511953e-7
0.049, 4.5041330e-7, 2.9617485e-7
0.048, 4.7808487e-7, 3.4383322e-7
0.047, 4.3796274e-7, 3.2918939e-7
0.046, 4.7600702e-7, 3.2044929e-7
0.045, 4.6421607e-7, 3.1400137e-7
0.044, 4.5356305e-7, 2.2791940e-7
0.043, 4.8210859e-7, 3.1756338e-7
0.042, 4.1576612e-7, 3.1002708e-7
0.041, 4.7594108e-7, 3.3395526e-7
0.040, 4.2369817e-7, 3.4614192e-7
0.039, 4.6916333e-7, 2.8227305e-7
0.038, 4.6893246e-7, 3.1725006e-7
0.037, 4.2467116e-7, 2.3995767e-7
0.036, 4.7148853e-7, 2.8007980e-7
0.035, 4.0626742e-7, 2.9102966e-7
0.034, 4.5986252e-7, 3.4266236e-7
0.033, 4.3715468e-7, 3.2331866e-7
0.032, 4.2419293e-7, 2.8202570e-7
0.031, 4.6479329e-7, 2.9652111e-7
0.030, 3.9403125e-7, 2.4419580e-7
0.029, 4.7114224e-7, 2.7521500e-7
0.028, 3.9558137e-7, 2.8303165e-7
0.027, 4.4977014e-7, 3.1525468e-7
0.026, 4.4915998e-7, 3.5605291e-7
0.025, 4.0387624e-7, 2.5783368e-7
0.024, 4.4502079e-7, 2.8540632e-7
0.023, 3.8496128e-7, 2.3021161e-7
0.022, 4.3557156e-7, 3.0153433e-7
0.021, 4.0324960e-7, 2.9584498e-7
0.020, 4.1078590e-7, 2.8126712e-7
0.019, 4.2660059e-7, 3.4327255e-7
0.018, 3.8689072e-7, 2.6654084e-7
0.017, 4.4231632e-7, 2.7325262e-7
0.016, 3.9164007e-7, 2.2434088e-7
0.015, 4.3440070e-7, 2.6002698e-7
0.014, 3.9467437e-7, 3.0521176e-7
0.013, 4.0537691e-7, 3.0382654e-7
0.012, 4.1159393e-7, 3.3593415e-7
0.011, 3.7282408e-7, 2.7232912e-7
0.010, 4.3128395e-7, 2.6284690e-7
0.009, 3.8626405e-7, 2.2430790e-7
0.008, 4.0913682e-7, 2.7704547e-7
0.007, 4.1505700e-7, 3.0077575e-7
0.006, 3.6075278e-7, 3.0103959e-7
0.005, 4.2508341e-7, 2.9259633e-7
0.004, 3.6901469e-7, 2.5725652e-7
0.003, 4.2458868e-7, 2.6543594e-7
0.002, 4.0296925e-7, 2.3535674e-7
0.001, 4.0283732e-7, 2.5384293e-7
-0.000, 4.1401810e-7, 2.7602306e-7
-0.001, 3.6957539e-7, 2.8946306e-7
-0.002, 4.2176873e-7, 3.2013594e-7
-0.003, 3.7193357e-7, 2.6434756e-7
-0.004, 3.9823638e-7, 2.7008633e-7
-0.005, 4.1329250e-7, 2.5349661e-7
-0.006, 3.8718753e-7, 2.5852631e-7
-0.007, 4.1373775e-7, 2.7961806e-7
-0.008, 3.5537681e-7, 2.8783046e-7
-0.009, 4.0885647e-7, 2.9678498e-7
-0.010, 3.9497121e-7, 2.7267544e-7
-0.011, 4.0275486e-7, 2.3834156e-7
-0.012, 4.1886636e-7, 2.4228288e-7
-0.013, 3.7237879e-7, 2.6921236e-7
-0.014, 4.0671264e-7, 2.7058110e-7
-0.015, 3.7211495e-7, 2.7660022e-7
-0.016, 4.0704248e-7, 3.0422234e-7
-0.017, 4.2620479e-7, 2.7816685e-7
-0.018, 3.8065718e-7, 2.3967732e-7
-0.019, 4.1941058e-7, 2.2910672e-7
-0.020, 3.7585835e-7, 2.5841086e-7
-0.021, 4.1248444e-7, 2.8258637e-7
-0.022, 3.9419615e-7, 2.9627375e-7
-0.023, 3.9464140e-7, 2.7394520e-7
-0.024, 4.2102667e-7, 2.8530738e-7
-0.025, 3.6601335e-7, 2.5623410e-7
-0.026, 4.1771202e-7, 2.1800841e-7
-0.027, 3.8171260e-7, 2.7280734e-7
-0.028, 4.1510648e-7, 2.5649794e-7
-0.029, 4.2343433e-7, 3.0644858e-7
-0.030, 3.7232934e-7, 2.9477309e-7
-0.031, 4.2942048e-7, 2.5024792e-7
-0.032, 3.6124752e-7, 2.6634294e-7
-0.033, 4.1904781e-7, 2.4109551e-7
-0.034, 3.9975353e-7, 2.8146502e-7
-0.035, 3.8238872e-7, 2.6921236e-7
-0.036, 4.3797922e-7, 3.3877055e-7
-0.037, 3.7971722e-7, 2.7348347e-7
-0.038, 4.3116853e-7, 2.5991153e-7
-0.039, 3.8718753e-7, 2.4637259e-7
-0.040, 4.2932152e-7, 2.1647475e-7
-0.041, 4.2242840e-7, 2.9241491e-7
-0.042, 3.8604969e-7, 2.6116484e-7
-0.043, 4.2727669e-7, 2.9091424e-7
-0.044, 3.7120799e-7, 2.7666619e-7
-0.045, 4.3341123e-7, 2.8149799e-7
-0.046, 3.9688416e-7, 2.6606261e-7
-0.047, 4.0973046e-7, 2.0123727e-7
-0.048, 4.2785388e-7, 2.8934761e-7
-0.049, 3.7542961e-7, 2.8563719e-7
-0.050, 4.3994163e-7, 3.2597370e-7
-0.051, 3.8817700e-7, 2.8374075e-7
-0.052, 4.3026154e-7, 2.7260944e-7
-0.053, 4.1561771e-7, 3.1194003e-7
-0.054, 4.1594751e-7, 2.1650774e-7
-0.055, 4.3062431e-7, 2.8692347e-7
-0.056, 3.8573637e-7, 2.7539642e-7
-0.057, 4.4475695e-7, 2.9690040e-7
-0.058, 4.0214471e-7, 3.1408382e-7
-0.059, 4.3670940e-7, 2.7452239e-7
-0.060, 4.4083214e-7, 3.0481601e-7
-0.061, 3.9724694e-7, 2.4975319e-7
-0.062, 4.5654787e-7, 2.9257981e-7
-0.063, 3.9391580e-7, 2.7511607e-7
-0.064, 4.4475695e-7, 3.3519206e-7
-0.065, 4.4325628e-7, 3.3083847e-7
-0.066, 4.3509334e-7, 2.5994450e-7
-0.067, 4.7260991e-7, 2.9246436e-7
-0.068, 4.0989539e-7, 2.4239830e-7
-0.069, 4.6754721e-7, 3.1179161e-7
-0.070, 4.2462167e-7, 2.8730278e-7
-0.071, 4.3781432e-7, 3.1883314e-7
-0.072, 4.5366198e-7, 3.4986886e-7
-0.073, 4.2864542e-7, 2.6741486e-7
-0.074, 4.7437445e-7, 3.0160029e-7
-0.075, 4.1006030e-7, 2.4203553e-7
-0.076, 4.6395223e-7, 3.2608912e-7
-0.077, 4.5125432e-7, 3.0753699e-7
-0.078, 4.5249112e-7, 3.3604960e-7
-0.079, 4.7105976e-7, 3.4826925e-7
-0.080, 4.4200300e-7, 2.9117808e-7
-0.081, 4.8420293e-7, 3.0539317e-7
-0.082, 4.4343767e-7, 2.4162324e-7
-0.083, 4.7993183e-7, 3.1537010e-7
-0.084, 4.8487908e-7, 3.3210827e-7
-0.085, 4.5176552e-7, 3.1675535e-7
-0.086, 4.9078278e-7, 3.2193344e-7
-0.087, 4.5229325e-7, 3.0608578e-7
-0.088, 5.0585538e-7, 3.2612209e-7
-0.089, 4.8100372e-7, 2.6949269e-7
-0.090, 4.8077288e-7, 3.0641559e-7
-0.091, 5.0216141e-7, 3.4530092e-7
-0.092, 4.5608613e-7, 3.6451272e-7
-0.093, 5.1751442e-7, 3.4742823e-7
-0.094, 4.7112570e-7, 2.9995121e-7
-0.095, 5.1426571e-7, 3.2242818e-7
-0.096, 5.1499126e-7, 2.8665963e-7
-0.097, 4.7381374e-7, 3.2346711e-7
-0.098, 5.3520898e-7, 3.0559107e-7
-0.099, 4.7711188e-7, 3.3812742e-7
-0.100, 5.2303881e-7, 3.5987875e-7
-0.101, 4.9114556e-7, 3.2699612e-7
-0.102, 5.0382698e-7, 3.1578236e-7
-0.103, 5.3542340e-7, 2.9991821e-7
-0.104, 4.9554865e-7, 3.4037015e-7
-0.105, 5.3484621e-7, 3.4503705e-7
-0.106, 4.9935801e-7, 3.8105298e-7
-0.107, 5.4843463e-7, 3.5912021e-7
-0.108, 5.4716486e-7, 3.5001727e-7
-0.109, 5.3398867e-7, 3.2773821e-7
-0.110, 5.5613583e-7, 3.0438724e-7
-0.111, 5.2137318e-7, 3.5018218e-7
-0.112, 5.6316094e-7, 3.5875743e-7
-0.113, 5.2752432e-7, 3.6779437e-7
-0.114, 5.5425585e-7, 3.3804497e-7
-0.115, 5.6408442e-7, 3.5357931e-7
-0.116, 5.2430858e-7, 3.4856612e-7
-0.117, 5.7364906e-7, 3.0033050e-7
-0.118, 5.3979346e-7, 3.6327589e-7
-0.119, 5.6284756e-7, 3.6418288e-7
-0.120, 5.6779481e-7, 4.1837166e-7
-0.121, 5.5945048e-7, 3.7086167e-7
-0.122, 5.7684827e-7, 3.4925870e-7
-0.123, 5.4612593e-7, 3.6327589e-7
-0.124, 5.9243212e-7, 3.1922895e-7
-0.125, 5.6673940e-7, 3.6870136e-7
-0.126, 5.7915696e-7, 3.7394545e-7
-0.127, 6.0054555e-7, 4.1515594e-7
-0.128, 5.5321698e-7, 3.8746794e-7
-0.129, 6.2073030e-7, 3.5329896e-7
-0.130, 5.5714179e-7, 3.7442368e-7
-0.131, 6.0865904e-7, 3.2100996e-7
-0.132, 6.0028174e-7, 3.9352003e-7
-0.133, 5.8229023e-7, 3.5026466e-7
-0.134, 6.1916364e-7, 4.4350364e-7
-0.135, 5.7155472e-7, 3.8491180e-7
-0.136, 6.2706272e-7, 3.9299232e-7
-0.137, 5.9126126e-7, 3.7000413e-7
-0.138, 5.9843472e-7, 3.3665972e-7
-0.139, 6.3753441e-7, 4.2955241e-7
-0.140, 5.8875463e-7, 3.6058788e-7
-0.141, 6.3638004e-7, 4.1174235e-7
-0.142, 5.7290697e-7, 3.9503715e-7
-0.143, 6.3801264e-7, 3.9521859e-7
-0.144, 6.3095456e-7, 3.8477990e-7
-0.145, 6.0798288e-7, 3.0733909e-7
-0.146, 6.4899552e-7, 4.3502735e-7
-0.147, 5.8616558e-7, 4.0803192e-7
-0.148, 6.5100744e-7, 4.5410724e-7
-0.149, 6.0915374e-7, 4.0288683e-7
-0.150, 6.4836888e-7, 3.9182149e-7
-0.151, 6.4650544e-7, 4.2147190e-7
-0.152, 6.1385367e-7, 3.2501723e-7
-0.153, 6.6998837e-7, 4.0414011e-7
-0.154, 6.1382065e-7, 3.8801210e-7
-0.155, 6.6223765e-7, 4.4187104e-7
-0.156, 6.4688470e-7, 4.3214152e-7
-0.157, 6.4274548e-7, 3.8590127e-7
-0.158, 6.7945405e-7, 4.0945014e-7
-0.159, 6.0862607e-7, 3.5880686e-7
-0.160, 6.8572058e-7, 4.2343436e-7
-0.161, 6.2018609e-7, 3.9850022e-7
-0.162, 6.6210566e-7, 4.5197993e-7
-0.163, 6.7378119e-7, 4.4676881e-7
-0.164, 6.3751793e-7, 3.9437754e-7
-0.165, 6.9696728e-7, 4.0155106e-7
-0.166, 6.1857003e-7, 3.6100016e-7
-0.167, 6.9287756e-7, 4.4206894e-7
-0.168, 6.3985965e-7, 4.1980636e-7
-0.169, 6.5028183e-7, 4.1510648e-7
-0.170, 6.9093164e-7, 4.6974048e-7
-0.171, 6.3507730e-7, 4.0336505e-7
-0.172, 6.9775882e-7, 4.1878394e-7
-0.173, 6.4945726e-7, 3.6022510e-7
-0.174, 6.9983668e-7, 4.3354319e-7
-0.175, 6.7569414e-7, 4.5865869e-7
-0.176, 6.7282474e-7, 4.4388293e-7
-0.177, 6.9386704e-7, 4.5798254e-7
-0.178, 6.5900542e-7, 4.1121464e-7
-0.179, 7.0795011e-7, 4.4107952e-7
-0.180, 6.7683197e-7, 3.7632012e-7
-0.181, 7.0725753e-7, 4.0221067e-7
-0.182, 7.0946726e-7, 4.6215473e-7
-0.183, 6.5572380e-7, 4.6911384e-7
-0.184, 7.2849770e-7, 4.9939098e-7
-0.185, 6.7792041e-7, 4.3301549e-7
-0.186, 7.1890008e-7, 4.4112895e-7
-0.187, 7.1584930e-7, 4.1443036e-7
-0.188, 7.1040728e-7, 4.1289670e-7
-0.189, 7.3766660e-7, 4.4929192e-7
-0.190, 6.8385708e-7, 4.6314420e-7
-0.191, 7.4986974e-7, 5.1736595e-7
-0.192, 7.1645945e-7, 4.5577281e-7
-0.193, 7.4383411e-7, 4.4751093e-7
-0.194, 7.5308549e-7, 4.2946999e-7
-0.195, 7.0829651e-7, 4.0054510e-7
-0.196, 7.7524908e-7, 4.6456239e-7
-0.197, 6.8268628e-7, 4.7079592e-7
-0.198, 7.6556898e-7, 5.3177894e-7
-0.199, 7.5303603e-7, 4.7158750e-7
-0.200, 7.6476101e-7, 4.4037040e-7
-0.201, 7.8461585e-7, 4.7706243e-7
-0.202, 7.2486972e-7, 4.2305504e-7
-0.203, 7.9683559e-7, 4.9681842e-7
-0.204, 7.6388699e-7, 4.4653794e-7
-0.205, 7.8715550e-7, 5.3039366e-7
-0.206, 8.0115615e-7, 5.4559820e-7
-0.207, 7.6614617e-7, 4.4536711e-7
-0.208, 8.2180259e-7, 4.9211855e-7
-0.209, 7.6203997e-7, 4.0509659e-7
-0.210, 8.0861003e-7, 5.2028480e-7
-0.211, 8.0235998e-7, 5.0384347e-7
-0.212, 7.9172344e-7, 5.0356317e-7
-0.213, 8.2874527e-7, 5.4297618e-7
-0.214, 7.8098788e-7, 4.8865547e-7
-0.215, 8.5931924e-7, 4.7617192e-7
-0.216, 8.1833957e-7, 4.3412038e-7
-0.217, 8.6383773e-7, 5.2168650e-7
-0.218, 8.5143665e-7, 5.4124462e-7
-0.219, 8.1096823e-7, 5.3219117e-7
-0.220, 8.6832318e-7, 5.3532438e-7
-0.221, 8.1070436e-7, 5.1111596e-7
-0.222, 8.8059238e-7, 5.3951311e-7
-0.223, 8.6837269e-7, 4.4930840e-7
-0.224, 8.4296028e-7, 5.0067723e-7
-0.225, 9.0567488e-7, 5.5181522e-7
-0.226, 8.3689167e-7, 5.6057183e-7
-0.227, 9.0404228e-7, 5.7640307e-7
-0.228, 8.5750526e-7, 5.2452299e-7
-0.229, 9.2783853e-7, 5.3042663e-7
-0.230, 9.3079035e-7, 5.1017594e-7
-0.231, 8.8324742e-7, 5.0506378e-7
-0.232, 9.5186567e-7, 5.5150190e-7
-0.233, 8.6575062e-7, 5.7117541e-7
-0.234, 9.3234053e-7, 6.2336881e-7
-0.235, 9.1802644e-7, 5.8196042e-7
-0.236, 9.4065183e-7, 5.4098081e-7
-0.237, 9.5081020e-7, 5.3224068e-7
-0.238, 9.0417416e-7, 5.2638643e-7
-0.239, 9.6644351e-7, 5.6236934e-7
-0.240, 9.2165448e-7, 5.7505076e-7
-0.241, 9.5907217e-7, 6.3837547e-7
-0.242, 9.6645999e-7, 6.3224087e-7
-0.243, 9.6682277e-7, 5.7211543e-7
-0.244, 9.8977796e-7, 5.3291677e-7
-0.245, 9.4207007e-7, 5.3054208e-7
-0.246, 1.0059720e-6, 6.0252444e-7
-0.247, 9.7754173e-7, 5.9609306e-7
-0.248, 9.8590272e-7, 6.3408783e-7
-0.249, 1.0102596e-6, 6.5613602e-7
-0.250, 9.5668099e-7, 5.8357648e-7
-0.251, 1.0244252e-6, 5.8511017e-7
-0.252, 9.7963618e-7, 5.2425912e-7
-0.253, 1.0260742e-6, 6.1881735e-7
-0.254, 1.0119910e-6, 6.4066768e-7
-0.255, 1.0052958e-6, 6.4177254e-7
-0.256, 1.0569615e-6, 6.4528513e-7
-0.257, 9.9630824e-7, 6.0580612e-7
-0.258, 1.0589239e-6, 6.1779491e-7
-0.259, 1.0224462e-6, 5.3365886e-7
-0.260, 1.0324727e-6, 6.3854037e-7
-0.261, 1.0540756e-6, 6.6495863e-7
-0.262, 1.0214898e-6, 6.2063134e-7
-0.263, 1.0773936e-6, 6.5809849e-7
-0.264, 1.0175155e-6, 5.8799606e-7
-0.265, 1.0619747e-6, 6.4822046e-7
-0.266, 1.0651245e-6, 5.7455600e-7
-0.267, 1.0668230e-6, 6.0539384e-7
-0.268, 1.0937194e-6, 6.9843497e-7
-0.269, 1.0341217e-6, 6.9708273e-7
-0.270, 1.0952531e-6, 6.7397912e-7
-0.271, 1.0728916e-6, 6.2477056e-7
-0.272, 1.0778389e-6, 6.4010703e-7
-0.273, 1.0970341e-6, 6.2138997e-7
-0.274, 1.0616943e-6, 6.0298623e-7
-0.275, 1.0934885e-6, 6.4404827e-7
-0.276, 1.0478091e-6, 6.8139997e-7
-0.277, 1.0920375e-6, 7.0468496e-7
-0.278, 1.1033007e-6, 6.3227390e-7
-0.279, 1.0754477e-6, 6.2763996e-7
-0.280, 1.1156523e-6, 6.1814126e-7
-0.281, 1.0609853e-6, 6.5626796e-7
-0.282, 1.1077697e-6, 6.5735640e-7
-0.283, 1.0698902e-6, 6.8085575e-7
-0.284, 1.1159326e-6, 6.7679900e-7
-0.285, 1.1206985e-6, 6.6840522e-7
-0.286, 1.0728586e-6, 6.4599419e-7
-0.287, 1.1302136e-6, 5.7519918e-7
-0.288, 1.0746561e-6, 6.4624157e-7
-0.289, 1.1178950e-6, 6.8525878e-7
-0.290, 1.0827201e-6, 6.9886369e-7
-0.291, 1.0830005e-6, 6.9012356e-7
-0.292, 1.1373377e-6, 6.6307871e-7
-0.293, 1.0612986e-6, 6.4960568e-7
-0.294, 1.1332314e-6, 6.0023223e-7
-0.295, 1.0805104e-6, 6.3585242e-7
-0.296, 1.1189339e-6, 6.7298964e-7
-0.297, 1.1238317e-6, 7.0926939e-7
-0.298, 1.0820770e-6, 6.8646261e-7
-0.299, 1.1216219e-6, 6.5074357e-7
-0.300, 1.0631620e-6, 6.6316113e-7
-0.301, 1.1142010e-6, 6.0343149e-7
-0.302, 1.0952531e-6, 6.3741902e-7
-0.303, 1.0742604e-6, 6.2678242e-7
-0.304, 1.1167737e-6, 7.0417377e-7
-0.305, 1.0618922e-6, 7.0752139e-7
-0.306, 1.1022123e-6, 6.6657469e-7
-0.307, 1.0790097e-6, 6.5402526e-7
-0.308, 1.0957808e-6, 5.9234964e-7
-0.309, 1.1056424e-6, 6.7125808e-7
-0.310, 1.0879312e-6, 6.4358653e-7
-0.311, 1.0942307e-6, 6.8092174e-7
-0.312, 1.0688514e-6, 7.0905503e-7
-0.313, 1.1025585e-6, 6.7383064e-7
-0.314, 1.0924662e-6, 6.4800611e-7
-0.315, 1.0893000e-6, 5.9167348e-7
-0.316, 1.1150421e-6, 6.5221127e-7
-0.317, 1.0508104e-6, 6.5842829e-7
-0.318, 1.0927631e-6, 7.0671331e-7
-0.319, 1.0596989e-6, 7.3095481e-7
-0.320, 1.0882775e-6, 6.4897904e-7
-0.321, 1.0994913e-6, 6.9347118e-7
-0.322, 1.0781522e-6, 5.7559498e-7
-0.323, 1.1120243e-6, 6.5054564e-7
-0.324, 1.0557083e-6, 6.5968158e-7
-0.325, 1.1076047e-6, 7.0379451e-7
-0.326, 1.0790427e-6, 7.1291390e-7
-0.327, 1.0651904e-6, 6.5600409e-7
-0.328, 1.1115626e-6, 7.1124833e-7
-0.329, 1.0584786e-6, 5.6734962e-7
-0.330, 1.1046694e-6, 6.3107001e-7
-0.331, 1.0509094e-6, 6.5275543e-7
-0.332, 1.1005797e-6, 7.0583928e-7
-0.333, 1.0997881e-6, 7.3179581e-7
-0.334, 1.0708137e-6, 6.3885369e-7
-0.335, 1.1152235e-6, 6.9736302e-7
-0.336, 1.0623540e-6, 6.2115907e-7
-0.337, 1.1048178e-6, 6.6142962e-7
-0.338, 1.0709457e-6, 6.7543027e-7
-0.339, 1.1010413e-6, 7.0837893e-7
-0.340, 1.1068297e-6, 7.7013698e-7
-0.341, 1.0735182e-6, 6.7381416e-7
-0.342, 1.1184887e-6, 6.6588211e-7
-0.343, 1.0747221e-6, 6.1624479e-7
-0.344, 1.1183567e-6, 6.2412738e-7
-0.345, 1.0940329e-6, 6.8763347e-7
-0.346, 1.0724793e-6, 6.8168026e-7
-0.347, 1.1214900e-6, 7.5425635e-7
-0.348, 1.0630466e-6, 6.6784452e-7
-0.349, 1.1351608e-6, 6.7528185e-7
-0.350, 1.0779708e-6, 6.2242884e-7
-0.351, 1.1257611e-6, 6.2463863e-7
-0.352, 1.1342374e-6, 7.2312167e-7
-0.353, 1.0770967e-6, 7.0214537e-7
-0.354, 1.1478918e-6, 7.3327999e-7
-0.355, 1.0821429e-6, 7.1416719e-7
-0.356, 1.1413449e-6, 7.0788417e-7
-0.357, 1.0929609e-6, 6.5377787e-7
-0.358, 1.1119913e-6, 6.0028174e-7
-0.359, 1.1437691e-6, 7.3008084e-7
-0.360, 1.0880797e-6, 7.0423971e-7
-0.361, 1.1563681e-6, 7.7384738e-7
-0.362, 1.1160316e-6, 6.8989277e-7
-0.363, 1.1360679e-6, 6.9464210e-7
-0.364, 1.1506293e-6, 6.8041049e-7
-0.365, 1.1244420e-6, 6.4261360e-7
-0.366, 1.1499367e-6, 7.2890998e-7
-0.367, 1.1122552e-6, 7.5268974e-7
-0.368, 1.1642671e-6, 7.7872869e-7
-0.369, 1.1466715e-6, 7.2915736e-7
-0.370, 1.1657513e-6, 6.9418036e-7
-0.371, 1.1553620e-6, 6.8494546e-7
-0.372, 1.1304940e-6, 6.6810838e-7
-0.373, 1.1777731e-6, 7.2341857e-7
-0.374, 1.1458469e-6, 7.5788432e-7
-0.375, 1.1756788e-6, 7.7848131e-7
-0.376, 1.1924169e-6, 7.5255775e-7
-0.377, 1.1780370e-6, 7.2821734e-7
-0.378, 1.1963582e-6, 6.6235310e-7
-0.379, 1.1655534e-6, 7.1274894e-7
-0.380, 1.2131788e-6, 7.6067124e-7
-0.381, 1.1792079e-6, 7.7218181e-7
-0.382, 1.1922025e-6, 7.8662777e-7
-0.383, 1.2207811e-6, 7.7942133e-7
-0.384, 1.1728589e-6, 7.4559864e-7
-0.385, 1.2373544e-6, 6.8702332e-7
-0.386, 1.1882283e-6, 7.1805903e-7
-0.387, 1.2152732e-6, 7.6741600e-7
-0.388, 1.2245905e-6, 8.2252825e-7
-0.389, 1.2233043e-6, 7.9002484e-7
-0.390, 1.2590233e-6, 7.7953678e-7
-0.391, 1.2024268e-6, 7.6444769e-7
-0.392, 1.2665431e-6, 7.1604711e-7
-0.393, 1.2323907e-6, 7.4845155e-7
-0.394, 1.2563353e-6, 7.7579330e-7
-0.395, 1.2704350e-6, 8.4634098e-7
-0.396, 1.2386737e-6, 7.8027887e-7
-0.397, 1.2673511e-6, 7.7562845e-7
-0.398, 1.2396631e-6, 7.5846151e-7
-0.399, 1.2762067e-6, 7.3158145e-7
-0.400, 1.2687858e-6, 7.7170353e-7
-0.401, 1.2402897e-6, 7.6210597e-7
-0.402, 1.2958802e-6, 8.4881458e-7
-0.403, 1.2357713e-6, 8.4932583e-7
-0.404, 1.2894324e-6, 7.8153209e-7
-0.405, 1.2675820e-6, 7.9653876e-7
-0.406, 1.3028064e-6, 7.4673653e-7
-0.407, 1.3117444e-6, 8.1753149e-7
-0.408, 1.2559890e-6, 8.1311197e-7
-0.409, 1.3174008e-6, 8.1322742e-7
-0.410, 1.2577535e-6, 8.1735016e-7
-0.411, 1.2971500e-6, 8.2236340e-7
-0.412, 1.2948083e-6, 8.1246890e-7
-0.413, 1.2877503e-6, 7.1400228e-7
-0.414, 1.3376845e-6, 7.9111328e-7
-0.415, 1.2425654e-6, 8.0546027e-7
-0.416, 1.3333143e-6, 8.2510081e-7
-0.417, 1.2775754e-6, 8.5178294e-7
-0.418, 1.3171864e-6, 7.9840220e-7
-0.419, 1.3410156e-6, 8.3182908e-7
-0.420, 1.2867279e-6, 7.4284469e-7
-0.421, 1.3295050e-6, 7.9873200e-7
-0.422, 1.2829514e-6, 8.1697084e-7
-0.423, 1.3312035e-6, 8.3323073e-7
-0.424, 1.2881296e-6, 8.5704346e-7
-0.425, 1.2994752e-6, 7.7328673e-7
-0.426, 1.3241950e-6, 8.3629806e-7
-0.427, 1.2721005e-6, 7.4578008e-7
-0.428, 1.3220676e-6, 7.6073718e-7
-0.429, 1.2918235e-6, 7.9902884e-7
-0.430, 1.3177471e-6, 8.2902557e-7
-0.431, 1.3126679e-6, 8.9545063e-7
-0.432, 1.2948412e-6, 7.9757768e-7
-0.433, 1.3240135e-6, 8.1415089e-7
-0.434, 1.2785814e-6, 7.5780184e-7
-0.435, 1.3239805e-6, 7.7762377e-7
-0.436, 1.3000194e-6, 8.1436531e-7
-0.437, 1.3026415e-6, 8.1672351e-7
-0.438, 1.3130636e-6, 8.8994267e-7
-0.439, 1.2631131e-6, 8.3600116e-7
-0.440, 1.3222821e-6, 7.9141012e-7
-0.441, 1.2648280e-6, 7.4815478e-7
-0.442, 1.3034166e-6, 7.4322395e-7
-0.443, 1.2898611e-6, 8.4353746e-7
-0.444, 1.2815333e-6, 7.9066808e-7
-0.445, 1.3080009e-6, 8.5959960e-7
-0.446, 1.2571928e-6, 7.7440814e-7
-0.447, 1.3129481e-6, 7.8877156e-7
-0.448, 1.2661144e-6, 7.5102412e-7
-0.449, 1.2679118e-6, 7.3656167e-7
-0.450, 1.2898116e-6, 8.3700718e-7
-0.451, 1.2347489e-6, 7.5638366e-7
-0.452, 1.2898446e-6, 8.3108694e-7
-0.453, 1.2261241e-6, 7.8426956e-7
-0.454, 1.2704185e-6, 7.8707296e-7
-0.455, 1.2587594e-6, 7.8031184e-7
-0.456, 1.2378326e-6, 6.8171329e-7
-0.457, 1.2668895e-6, 8.1881785e-7
-0.458, 1.1985516e-6, 7.7556246e-7
-0.459, 1.2663452e-6, 8.0689495e-7
-0.460, 1.2206492e-6, 7.8100442e-7
-0.461, 1.2419223e-6, 7.5570750e-7
-0.462, 1.2411638e-6, 7.6433219e-7
-0.463, 1.1985351e-6, 6.6845467e-7
-0.464, 1.2351117e-6, 7.6050628e-7
-0.465, 1.1792242e-6, 7.4947400e-7
-0.466, 1.2042078e-6, 7.9258092e-7
-0.467, 1.1998873e-6, 7.6683881e-7
-0.468, 1.1750027e-6, 7.1487625e-7
-0.469, 1.2304447e-6, 7.3578661e-7
-0.470, 1.1515857e-6, 6.7597449e-7
-0.471, 1.1968200e-6, 7.3003139e-7
-0.472, 1.1530203e-6, 7.2582623e-7
-0.473, 1.1905536e-6, 7.5268963e-7
-0.474, 1.1817309e-6, 7.7112645e-7
-0.475, 1.1311865e-6, 7.0799962e-7
-0.476, 1.1950555e-6, 6.9535116e-7
-0.477, 1.1106225e-6, 6.5801601e-7
-0.478, 1.1602434e-6, 7.2195081e-7
-0.479, 1.1148113e-6, 7.1906493e-7
-0.480, 1.1227928e-6, 6.9655499e-7
-0.481, 1.1568958e-6, 7.4576360e-7
-0.482, 1.0846330e-6, 6.7229706e-7
-0.483, 1.1314009e-6, 6.8878785e-7
-0.484, 1.0751673e-6, 6.1419991e-7
-0.485, 1.1187030e-6, 6.5646589e-7
-0.486, 1.1100784e-6, 7.0488289e-7
-0.487, 1.0615954e-6, 6.8440130e-7
-0.488, 1.0839899e-6, 7.3220815e-7
-0.489, 1.0388710e-6, 6.7040060e-7
-0.490, 1.0884754e-6, 6.7162091e-7
-0.491, 1.0450221e-6, 6.1288068e-7
-0.492, 1.0518824e-6, 5.6861938e-7
-0.493, 1.0505300e-6, 6.7648568e-7
-0.494, 1.0051639e-6, 6.5631747e-7
-0.495, 1.0367272e-6, 6.9365262e-7
-0.496, 9.9475824e-7, 6.7519943e-7
-0.497, 1.0215887e-6, 6.4175606e-7
-0.498, 1.0133268e-6, 6.1965841e-7
-0.499, 9.9362035e-7, 5.7589176e-7
-0.500, 1.0023275e-6, 6.3041040e-7
