Dec. 9, 2005   02:33:39
Square Wave Voltammetry
File: d:\ida_biofilms\11_28_18_blankidapyo\50um_transfer\50um_pyo_transfer_swv_37.txt
Data Source:  Experiment
Instrument Model:  CHI760B
Header: 
Note: 

Init E (V) = 0.1
Final E (V) = -0.5
Incr E (V) = 0.001
Amplitude (V) = 0.025
Frequency (Hz) = 300
Quiet Time (sec) = 2
Sensitivity (A/V) = 1e-6
Sens 2 (A/V) = 1e-6

Potential/V, i1/A, i2/A

0.099, 6.9558212e-7, 3.0948289e-7
0.098, 6.0908781e-7, 3.5047901e-7
0.097, 6.5066109e-7, 4.4028792e-7
0.096, 6.0039713e-7, 4.4424570e-7
0.095, 6.4525216e-7, 4.8449976e-7
0.094, 6.3873824e-7, 4.5976356e-7
0.093, 6.1771243e-7, 4.0747125e-7
0.092, 6.3741902e-7, 3.6306150e-7
0.091, 5.8440105e-7, 3.5531085e-7
0.090, 6.2275865e-7, 4.2950296e-7
0.089, 5.7907448e-7, 4.1606296e-7
0.088, 6.0837868e-7, 4.2889280e-7
0.087, 6.0305217e-7, 4.0445343e-7
0.086, 5.6159428e-7, 3.9187094e-7
0.085, 5.9828631e-7, 3.4218414e-7
0.084, 5.6053887e-7, 3.3669272e-7
0.083, 5.7165369e-7, 3.8901803e-7
0.082, 5.6085219e-7, 4.2811772e-7
0.081, 5.6251781e-7, 4.2848052e-7
0.080, 5.8181206e-7, 3.8355961e-7
0.079, 5.3647881e-7, 3.7828255e-7
0.078, 5.8936479e-7, 3.2844730e-7
0.077, 5.3926573e-7, 3.0501388e-7
0.076, 5.4152497e-7, 3.7150480e-7
0.075, 5.5480007e-7, 4.2412694e-7
0.074, 5.0692722e-7, 4.1347388e-7
0.073, 5.5483304e-7, 3.5293615e-7
0.072, 5.0414030e-7, 3.5625078e-7
0.071, 5.3055862e-7, 3.0855941e-7
0.070, 5.4033762e-7, 3.5536030e-7
0.069, 5.1574983e-7, 3.3461487e-7
0.068, 5.3679207e-7, 3.9467437e-7
0.067, 4.9317396e-7, 3.6380359e-7
0.066, 5.4411402e-7, 3.5168284e-7
0.065, 5.0235934e-7, 3.3496116e-7
0.064, 5.0244176e-7, 2.8449932e-7
0.063, 5.2765620e-7, 3.5803180e-7
0.062, 4.7292323e-7, 3.1012604e-7
0.061, 5.1472739e-7, 3.6863540e-7
0.060, 4.6039023e-7, 3.6226993e-7
0.059, 5.0900508e-7, 3.2788662e-7
0.058, 4.9096417e-7, 3.2694666e-7
0.057, 4.7117521e-7, 2.5542604e-7
0.056, 5.1055525e-7, 3.5849354e-7
0.055, 4.5430511e-7, 3.1936088e-7
0.054, 5.0829601e-7, 3.5575607e-7
0.053, 4.5514616e-7, 3.3257004e-7
0.052, 4.9642262e-7, 3.0644856e-7
0.051, 4.9249786e-7, 3.4056808e-7
0.050, 4.4380050e-7, 2.6444650e-7
0.049, 4.9812115e-7, 2.9558115e-7
0.048, 4.2356626e-7, 3.0229290e-7
0.047, 4.7561124e-7, 3.4470725e-7
0.046, 4.4854983e-7, 3.3680814e-7
0.045, 4.4380047e-7, 2.8593399e-7
0.044, 4.7252746e-7, 3.1278105e-7
0.043, 4.1794289e-7, 2.4703223e-7
0.042, 4.8301558e-7, 2.9983579e-7
0.041, 4.1161042e-7, 2.9577905e-7
0.040, 4.6152812e-7, 3.5761951e-7
0.039, 4.5912043e-7, 3.3281736e-7
0.038, 4.2035055e-7, 2.8946306e-7
0.037, 4.6764620e-7, 2.8496106e-7
0.036, 4.0252399e-7, 2.3327888e-7
0.035, 4.5979658e-7, 3.0196307e-7
0.034, 4.1093432e-7, 2.9703233e-7
0.033, 4.1546929e-7, 2.8791294e-7
0.032, 4.3764942e-7, 3.2585825e-7
0.031, 4.0945014e-7, 2.7552832e-7
0.030, 4.5166658e-7, 2.9737862e-7
0.029, 4.0161700e-7, 2.1616145e-7
0.028, 4.4271206e-7, 2.9917612e-7
0.027, 4.1480965e-7, 3.0826257e-7
0.026, 4.1509000e-7, 3.4127714e-7
0.025, 4.3354322e-7, 3.0225993e-7
0.024, 3.9244810e-7, 2.8778101e-7
0.023, 4.4142581e-7, 2.6678822e-7
0.022, 3.9691713e-7, 2.2536329e-7
0.021, 4.3121798e-7, 2.8375723e-7
0.020, 4.1126412e-7, 2.8586805e-7
0.019, 3.7162022e-7, 3.3294930e-7
0.018, 4.2777143e-7, 3.0768538e-7
0.017, 3.8717104e-7, 2.6746432e-7
0.016, 4.3082224e-7, 2.5102298e-7
0.015, 4.1507349e-7, 2.6781066e-7
0.014, 4.0877399e-7, 2.6825589e-7
0.013, 4.2359926e-7, 2.8031064e-7
0.012, 3.7417630e-7, 3.2152116e-7
0.011, 4.2857945e-7, 2.8064048e-7
0.010, 3.9091447e-7, 2.5547553e-7
0.009, 4.0550884e-7, 2.3613180e-7
0.008, 4.1853656e-7, 2.5212788e-7
0.007, 3.7325282e-7, 2.5910350e-7
0.006, 4.2557812e-7, 2.8657718e-7
0.005, 3.5707535e-7, 3.1177510e-7
0.004, 4.0915330e-7, 2.9960492e-7
0.003, 4.0900488e-7, 2.6403421e-7
0.002, 3.9350351e-7, 2.0484876e-7
0.001, 4.1715134e-7, 2.8362530e-7
-0.000, 3.7234582e-7, 2.7566023e-7
-0.001, 4.1781098e-7, 2.8822626e-7
-0.002, 3.7509977e-7, 3.0189710e-7
-0.003, 4.0069352e-7, 2.5832844e-7
-0.004, 4.0880701e-7, 2.8346039e-7
-0.005, 3.7717763e-7, 1.8641202e-7
-0.006, 4.2468764e-7, 2.5961469e-7
-0.007, 3.6283063e-7, 2.5776774e-7
-0.008, 4.0257345e-7, 3.0113856e-7
-0.009, 3.9177201e-7, 3.1098355e-7
-0.010, 3.9117833e-7, 2.3275118e-7
-0.011, 4.2186770e-7, 2.7643534e-7
-0.012, 3.5987878e-7, 2.2340092e-7
-0.013, 4.1888288e-7, 2.4182114e-7
-0.014, 3.6467762e-7, 2.5669581e-7
-0.015, 4.1682154e-7, 2.8032713e-7
-0.016, 4.1006030e-7, 2.9526780e-7
-0.017, 3.6238538e-7, 2.4599331e-7
-0.018, 4.2599041e-7, 2.5047882e-7
-0.019, 3.5448630e-7, 2.0989492e-7
-0.020, 4.2231295e-7, 2.9152440e-7
-0.021, 3.7562751e-7, 2.7754021e-7
-0.022, 3.8916644e-7, 2.6317670e-7
-0.023, 4.2084528e-7, 3.0400793e-7
-0.024, 3.6929504e-7, 2.4318987e-7
-0.025, 4.2627076e-7, 2.7597358e-7
-0.026, 3.6373763e-7, 1.9739491e-7
-0.027, 4.1518894e-7, 2.7668270e-7
-0.028, 4.0301873e-7, 2.8898484e-7
-0.029, 3.9111234e-7, 2.6983901e-7
-0.030, 4.0691054e-7, 2.9061744e-7
-0.031, 3.7143883e-7, 2.5560743e-7
-0.032, 4.1894884e-7, 2.5697619e-7
-0.033, 3.7361562e-7, 2.1967398e-7
-0.034, 4.1255041e-7, 2.5117140e-7
-0.035, 4.0287028e-7, 2.8252043e-7
-0.036, 3.6634316e-7, 3.0354619e-7
-0.037, 4.1682154e-7, 2.8468071e-7
-0.038, 3.7496787e-7, 2.5834493e-7
-0.039, 4.2005371e-7, 2.6309425e-7
-0.040, 4.0151804e-7, 2.3797877e-7
-0.041, 4.0214468e-7, 2.5291945e-7
-0.042, 4.1639277e-7, 2.6408372e-7
-0.043, 3.7514928e-7, 2.8957851e-7
-0.044, 4.3047592e-7, 2.8849010e-7
-0.045, 3.9134324e-7, 2.6090100e-7
-0.046, 4.1962500e-7, 2.6754677e-7
-0.047, 4.2709530e-7, 2.4617469e-7
-0.048, 3.8771526e-7, 2.7933771e-7
-0.049, 4.3611578e-7, 2.8136606e-7
-0.050, 3.7237879e-7, 2.9386609e-7
-0.051, 4.3299900e-7, 3.0288658e-7
-0.052, 4.1344089e-7, 2.8352636e-7
-0.053, 4.1739872e-7, 2.5710810e-7
-0.054, 4.4843438e-7, 2.3995764e-7
-0.055, 3.9384986e-7, 2.8900132e-7
-0.056, 4.3727013e-7, 2.9061744e-7
-0.057, 4.0133665e-7, 2.9503695e-7
-0.058, 4.2256033e-7, 2.9442680e-7
-0.059, 4.3863884e-7, 3.0188062e-7
-0.060, 4.1398508e-7, 2.2417596e-7
-0.061, 4.4582885e-7, 2.3070632e-7
-0.062, 4.0943365e-7, 2.8448284e-7
-0.063, 4.4447660e-7, 3.0016557e-7
-0.064, 4.3369164e-7, 3.0565701e-7
-0.065, 4.2321994e-7, 2.8037664e-7
-0.066, 4.5963165e-7, 3.0885624e-7
-0.067, 4.0757018e-7, 2.7918929e-7
-0.068, 4.6480977e-7, 2.4492141e-7
-0.069, 4.2735914e-7, 2.7721038e-7
-0.070, 4.6111583e-7, 2.8377372e-7
-0.071, 4.5285395e-7, 3.3832532e-7
-0.072, 4.2663356e-7, 2.9976979e-7
-0.073, 4.7549580e-7, 2.7613851e-7
-0.074, 4.2500096e-7, 2.6393528e-7
-0.075, 4.7023522e-7, 2.5385941e-7
-0.076, 4.4795615e-7, 3.1449611e-7
-0.077, 4.3179520e-7, 2.9109566e-7
-0.078, 4.9361921e-7, 3.1706867e-7
-0.079, 4.1667312e-7, 2.9962138e-7
-0.080, 4.8900176e-7, 2.9647165e-7
-0.081, 4.3628069e-7, 2.9775794e-7
-0.082, 4.7862903e-7, 2.4241479e-7
-0.083, 4.9030456e-7, 3.3611553e-7
-0.084, 4.4925895e-7, 3.0028102e-7
-0.085, 4.9584543e-7, 3.2594073e-7
-0.086, 4.3631366e-7, 3.2072961e-7
-0.087, 4.9995162e-7, 3.1761286e-7
-0.088, 4.6820685e-7, 2.8093731e-7
-0.089, 4.7472074e-7, 2.3326240e-7
-0.090, 5.0473398e-7, 3.3741833e-7
-0.091, 4.4731303e-7, 3.1655745e-7
-0.092, 5.1528809e-7, 3.4384971e-7
-0.093, 4.6924578e-7, 3.1398486e-7
-0.094, 5.0526171e-7, 3.0872434e-7
-0.095, 5.1187453e-7, 3.4549879e-7
-0.096, 4.9421288e-7, 2.6945972e-7
-0.097, 5.2604008e-7, 3.3245459e-7
-0.098, 4.6970752e-7, 3.3789655e-7
-0.099, 5.2910741e-7, 3.4058456e-7
-0.100, 4.9365218e-7, 3.5077585e-7
-0.101, 5.1535409e-7, 3.1185755e-7
-0.102, 5.3641281e-7, 3.1883317e-7
-0.103, 4.8260335e-7, 2.7082845e-7
-0.104, 5.5427233e-7, 3.4759313e-7
-0.105, 4.9505388e-7, 3.1837143e-7
-0.106, 5.4386663e-7, 3.7317039e-7
-0.107, 5.4243196e-7, 3.7935442e-7
-0.108, 5.2026837e-7, 3.1598026e-7
-0.109, 5.6419981e-7, 3.4970395e-7
-0.110, 5.0837843e-7, 2.8858904e-7
-0.111, 5.7076318e-7, 3.5445331e-7
-0.112, 5.2099392e-7, 3.4294271e-7
-0.113, 5.3666020e-7, 3.9328916e-7
-0.114, 5.6444719e-7, 3.9211830e-7
-0.115, 5.3294980e-7, 3.2913994e-7
-0.116, 5.8598414e-7, 3.4037018e-7
-0.117, 5.1578280e-7, 2.8878694e-7
-0.118, 5.8303232e-7, 3.8283397e-7
-0.119, 5.5847750e-7, 3.7270860e-7
-0.120, 5.6530473e-7, 3.5857602e-7
-0.121, 5.9018930e-7, 4.2008668e-7
-0.122, 5.4528488e-7, 3.5512943e-7
-0.123, 6.0450333e-7, 3.7092761e-7
-0.124, 5.6779481e-7, 3.0161678e-7
-0.125, 6.0689450e-7, 3.7963477e-7
-0.126, 5.9541691e-7, 4.0146858e-7
-0.127, 5.6586538e-7, 3.7181815e-7
-0.128, 6.0752120e-7, 3.9098043e-7
-0.129, 5.6085219e-7, 3.3779759e-7
-0.130, 6.1177582e-7, 3.8375748e-7
-0.131, 5.9957256e-7, 3.3011290e-7
-0.132, 5.9949014e-7, 3.8332871e-7
-0.133, 6.2826660e-7, 3.9879706e-7
-0.134, 5.6695382e-7, 4.0615197e-7
-0.135, 6.3344476e-7, 4.0168297e-7
-0.136, 5.9464185e-7, 3.6898172e-7
-0.137, 6.4258057e-7, 3.8008000e-7
-0.138, 6.3502785e-7, 3.4958850e-7
-0.139, 5.9078297e-7, 3.9482279e-7
-0.140, 6.5090848e-7, 3.7740853e-7
-0.141, 5.7950331e-7, 4.1631029e-7
-0.142, 6.3690777e-7, 4.3078921e-7
-0.143, 6.2026857e-7, 3.9332213e-7
-0.144, 6.2376461e-7, 3.5573959e-7
-0.145, 6.6462883e-7, 3.5758657e-7
-0.146, 6.1982331e-7, 3.8652792e-7
-0.147, 6.5328311e-7, 4.1914672e-7
-0.148, 6.2040050e-7, 4.1428194e-7
-0.149, 6.5255756e-7, 4.2239543e-7
-0.150, 6.4564790e-7, 4.2673250e-7
-0.151, 6.3722109e-7, 3.8547250e-7
-0.152, 6.6926270e-7, 3.4911028e-7
-0.153, 6.1431535e-7, 4.1253392e-7
-0.154, 6.6636039e-7, 4.1852007e-7
-0.155, 6.3192755e-7, 4.3567050e-7
-0.156, 6.5135373e-7, 4.0140264e-7
-0.157, 6.6608004e-7, 4.1537032e-7
-0.158, 6.2384703e-7, 4.1781095e-7
-0.159, 6.7320400e-7, 3.5024817e-7
-0.160, 6.4916043e-7, 4.2509993e-7
-0.161, 6.7094481e-7, 4.2610588e-7
-0.162, 6.7947053e-7, 4.5564087e-7
-0.163, 6.6007738e-7, 4.3489544e-7
-0.164, 6.9027203e-7, 3.9765922e-7
-0.165, 6.4444407e-7, 4.1693698e-7
-0.166, 7.0321732e-7, 3.6546916e-7
-0.167, 6.6533789e-7, 4.2063090e-7
-0.168, 6.6820735e-7, 4.1873446e-7
-0.169, 6.9909458e-7, 4.6222073e-7
-0.170, 6.4345460e-7, 4.4170616e-7
-0.171, 7.0758733e-7, 4.2208211e-7
-0.172, 6.5813140e-7, 4.1728327e-7
-0.173, 7.0643296e-7, 3.6624425e-7
-0.174, 6.9665396e-7, 4.6261650e-7
-0.175, 6.7412748e-7, 4.1832220e-7
-0.176, 7.1941128e-7, 4.8736916e-7
-0.177, 6.7122517e-7, 4.5620158e-7
-0.178, 7.3049307e-7, 4.3398845e-7
-0.179, 6.9604380e-7, 4.2686440e-7
-0.180, 7.0760382e-7, 3.7585838e-7
-0.181, 7.2665074e-7, 4.8352683e-7
-0.182, 6.8619875e-7, 4.1873449e-7
-0.183, 7.4150893e-7, 4.7790343e-7
-0.184, 6.7778848e-7, 4.5628403e-7
-0.185, 7.2580974e-7, 4.4167319e-7
-0.186, 7.2495220e-7, 4.6088496e-7
-0.187, 7.1631098e-7, 3.6063739e-7
-0.188, 7.5254127e-7, 4.8245494e-7
-0.189, 7.0071070e-7, 4.4975363e-7
-0.190, 7.5930257e-7, 4.6942722e-7
-0.191, 7.1848774e-7, 4.7338494e-7
-0.192, 7.6019302e-7, 4.4503727e-7
-0.193, 7.7256118e-7, 4.9479002e-7
-0.194, 7.2015331e-7, 3.8583531e-7
-0.195, 7.8870562e-7, 4.4896208e-7
-0.196, 7.1551943e-7, 4.5811450e-7
-0.197, 7.6980717e-7, 5.0888968e-7
-0.198, 7.5908815e-7, 5.0776833e-7
-0.199, 7.5110660e-7, 4.4751090e-7
-0.200, 8.0918721e-7, 4.8568711e-7
-0.201, 7.3435194e-7, 3.9995143e-7
-0.202, 8.2071426e-7, 4.9086520e-7
-0.203, 7.5301949e-7, 4.6382030e-7
-0.204, 8.0359678e-7, 5.0450313e-7
-0.205, 8.1324390e-7, 5.3105333e-7
-0.206, 7.7236325e-7, 4.7043312e-7
-0.207, 8.2188512e-7, 4.9678545e-7
-0.208, 7.6088565e-7, 4.2561112e-7
-0.209, 8.3004807e-7, 5.0913707e-7
-0.210, 7.8196092e-7, 4.9965479e-7
-0.211, 8.0557572e-7, 5.0931840e-7
-0.212, 8.3911800e-7, 5.5587196e-7
-0.213, 7.8613306e-7, 4.8852354e-7
-0.214, 8.5821432e-7, 4.8240543e-7
-0.215, 8.1240285e-7, 4.3857290e-7
-0.216, 8.6212265e-7, 5.2711204e-7
-0.217, 8.5788452e-7, 5.3896889e-7
-0.218, 8.4075054e-7, 5.3844121e-7
-0.219, 8.6212270e-7, 5.4244845e-7
-0.220, 8.3499526e-7, 4.9881379e-7
-0.221, 8.9114644e-7, 5.1967464e-7
-0.222, 8.6792738e-7, 4.6090145e-7
-0.223, 8.8468209e-7, 5.1979009e-7
-0.224, 8.8238983e-7, 5.5232647e-7
-0.225, 8.4818794e-7, 5.6070377e-7
-0.226, 9.1314519e-7, 5.6157779e-7
-0.227, 8.7531527e-7, 5.2450645e-7
-0.228, 9.2543081e-7, 5.1203943e-7
-0.229, 9.2188532e-7, 5.1726698e-7
-0.230, 9.0094204e-7, 5.4165685e-7
-0.231, 9.3512745e-7, 5.5908765e-7
-0.232, 8.9568141e-7, 5.7562795e-7
-0.233, 9.4858399e-7, 5.8595117e-7
-0.234, 9.2366633e-7, 5.6029154e-7
-0.235, 9.3850809e-7, 5.5217799e-7
-0.236, 9.6744952e-7, 5.3588514e-7
-0.237, 9.2150606e-7, 5.5707579e-7
-0.238, 9.7694806e-7, 5.6415035e-7
-0.239, 9.0946776e-7, 5.9342153e-7
-0.240, 9.7727798e-7, 5.7874468e-7
-0.241, 9.8819487e-7, 5.8374144e-7
-0.242, 9.7332008e-7, 5.2175250e-7
-0.243, 1.0075055e-6, 5.6235285e-7
-0.244, 9.6136432e-7, 5.9028827e-7
-0.245, 1.0046856e-6, 6.2223097e-7
-0.246, 9.8977807e-7, 6.3476398e-7
-0.247, 1.0091052e-6, 6.2521582e-7
-0.248, 1.0267834e-6, 6.3380753e-7
-0.249, 9.9677004e-7, 5.1792665e-7
-0.250, 1.0435050e-6, 5.3141611e-7
-0.251, 9.9162492e-7, 6.0026520e-7
-0.252, 1.0379310e-6, 6.4622509e-7
-0.253, 1.0362490e-6, 6.7800283e-7
-0.254, 1.0249364e-6, 5.7295642e-7
-0.255, 1.0759095e-6, 6.2490250e-7
-0.256, 1.0124198e-6, 5.6837200e-7
-0.257, 1.0710281e-6, 5.6842146e-7
-0.258, 1.0327035e-6, 6.2082927e-7
-0.259, 1.0651904e-6, 6.5158463e-7
-0.260, 1.0885908e-6, 7.2402872e-7
-0.261, 1.0379806e-6, 6.3055882e-7
-0.262, 1.1121891e-6, 6.2678242e-7
-0.263, 1.0241613e-6, 5.8153165e-7
-0.264, 1.0974135e-6, 5.9723089e-7
-0.265, 1.0688184e-6, 6.5643292e-7
-0.266, 1.0603751e-6, 6.3862285e-7
-0.267, 1.1223806e-6, 7.2894295e-7
-0.268, 1.0519153e-6, 6.3204300e-7
-0.269, 1.1149762e-6, 6.5384381e-7
-0.270, 1.0590559e-6, 5.8154814e-7
-0.271, 1.1106556e-6, 6.2717822e-7
-0.272, 1.1289933e-6, 6.9108006e-7
-0.273, 1.0931424e-6, 6.6466180e-7
-0.274, 1.1184227e-6, 6.9220141e-7
-0.275, 1.0622880e-6, 6.3769932e-7
-0.276, 1.1212262e-6, 6.6368887e-7
-0.277, 1.1017011e-6, 6.0132061e-7
-0.278, 1.1082149e-6, 5.9759373e-7
-0.279, 1.1181094e-6, 6.7445728e-7
-0.280, 1.0693132e-6, 6.8222448e-7
-0.281, 1.1363647e-6, 7.2295677e-7
-0.282, 1.1000025e-6, 6.3359312e-7
-0.283, 1.1142010e-6, 6.7290716e-7
-0.284, 1.1335283e-6, 6.3865582e-7
-0.285, 1.0983864e-6, 6.4177254e-7
-0.286, 1.1341053e-6, 6.4924291e-7
-0.287, 1.0815987e-6, 6.9272915e-7
-0.288, 1.1327533e-6, 7.1222127e-7
-0.289, 1.1063514e-6, 6.6263340e-7
-0.290, 1.1092043e-6, 6.6553582e-7
-0.291, 1.1589900e-6, 6.2287410e-7
-0.292, 1.0882775e-6, 6.5625147e-7
-0.293, 1.1369419e-6, 6.7221458e-7
-0.294, 1.0738152e-6, 6.9043693e-7
-0.295, 1.1223970e-6, 7.1611311e-7
-0.296, 1.1384591e-6, 6.7731025e-7
-0.297, 1.1204181e-6, 6.2388006e-7
-0.298, 1.1503819e-6, 6.3520923e-7
-0.299, 1.0940822e-6, 6.7018618e-7
-0.300, 1.1470178e-6, 6.8359327e-7
-0.301, 1.0984523e-6, 7.2201681e-7
-0.302, 1.0971331e-6, 7.0432219e-7
-0.303, 1.1303455e-6, 6.9536770e-7
-0.304, 1.0982214e-6, 6.2610627e-7
-0.305, 1.1279708e-6, 5.9208577e-7
-0.306, 1.0828355e-6, 6.6220468e-7
-0.307, 1.1217703e-6, 6.6664069e-7
-0.308, 1.1198244e-6, 7.0696069e-7
-0.309, 1.0881621e-6, 6.4289395e-7
-0.310, 1.1340725e-6, 7.0102402e-7
-0.311, 1.0798673e-6, 6.5054564e-7
-0.312, 1.1269155e-6, 6.0019926e-7
-0.313, 1.1031358e-6, 6.5951667e-7
-0.314, 1.1056259e-6, 6.6614598e-7
-0.315, 1.1324564e-6, 7.5717520e-7
-0.316, 1.0720505e-6, 6.7912424e-7
-0.317, 1.1386074e-6, 6.4119536e-7
-0.318, 1.0681753e-6, 6.2564453e-7
-0.319, 1.1182743e-6, 6.1985628e-7
-0.320, 1.0908996e-6, 6.9897914e-7
-0.321, 1.0722484e-6, 6.7483666e-7
-0.322, 1.1343859e-6, 7.3939816e-7
-0.323, 1.0617932e-6, 6.8097120e-7
-0.324, 1.1217209e-6, 6.6284781e-7
-0.325, 1.0780367e-6, 6.0757060e-7
-0.326, 1.1062525e-6, 6.1246840e-7
-0.327, 1.1278059e-6, 7.0734001e-7
-0.328, 1.0617769e-6, 6.7054901e-7
-0.329, 1.1242111e-6, 7.1510715e-7
-0.330, 1.0562360e-6, 6.9632415e-7
-0.331, 1.1158337e-6, 6.6629434e-7
-0.332, 1.0928454e-6, 6.2597439e-7
-0.333, 1.0772121e-6, 6.0305217e-7
-0.334, 1.1189175e-6, 7.1011050e-7
-0.335, 1.0575717e-6, 6.9912755e-7
-0.336, 1.1169715e-6, 7.4328995e-7
-0.337, 1.0860018e-6, 6.6692104e-7
-0.338, 1.1107215e-6, 6.6713540e-7
-0.339, 1.1201378e-6, 6.4084907e-7
-0.340, 1.0911635e-6, 6.3388995e-7
-0.341, 1.0967703e-6, 6.8189468e-7
-0.342, 1.0639701e-6, 7.1317777e-7
-0.343, 1.1205830e-6, 7.1093496e-7
-0.344, 1.0902070e-6, 6.7938811e-7
-0.345, 1.0994418e-6, 6.6967499e-7
-0.346, 1.1209294e-6, 6.4037084e-7
-0.347, 1.0670868e-6, 6.8829308e-7
-0.348, 1.1300158e-6, 6.9084922e-7
-0.349, 1.0691481e-6, 7.1149566e-7
-0.350, 1.1167735e-6, 7.2582623e-7
-0.351, 1.1163613e-6, 7.1151214e-7
-0.352, 1.1260249e-6, 6.5879107e-7
-0.353, 1.1521794e-6, 6.1827313e-7
-0.354, 1.0928125e-6, 7.0920345e-7
-0.355, 1.1369914e-6, 7.0315133e-7
-0.356, 1.1060711e-6, 7.1019292e-7
-0.357, 1.1028059e-6, 7.1688817e-7
-0.358, 1.1428456e-6, 7.3572062e-7
-0.359, 1.0915427e-6, 6.4340514e-7
-0.360, 1.1552797e-6, 6.3858982e-7
-0.361, 1.1045870e-6, 7.0160115e-7
-0.362, 1.1354248e-6, 7.2244552e-7
-0.363, 1.1595178e-6, 7.2920682e-7
-0.364, 1.1290263e-6, 7.0671331e-7
-0.365, 1.1718199e-6, 7.2943766e-7
-0.366, 1.1177301e-6, 7.1779516e-7
-0.367, 1.1737988e-6, 6.6439793e-7
-0.368, 1.1557249e-6, 7.1675623e-7
-0.369, 1.1622387e-6, 7.2529849e-7
-0.370, 1.1782843e-6, 7.9075045e-7
-0.371, 1.1434392e-6, 7.1248513e-7
-0.372, 1.1976775e-6, 7.0605370e-7
-0.373, 1.1446101e-6, 7.0565795e-7
-0.374, 1.1873377e-6, 6.7584256e-7
-0.375, 1.1915595e-6, 7.3957949e-7
-0.376, 1.1667407e-6, 7.1195740e-7
-0.377, 1.2220510e-6, 7.8738634e-7
-0.378, 1.1668233e-6, 7.5672995e-7
-0.379, 1.2310219e-6, 7.2904186e-7
-0.380, 1.1794552e-6, 7.1667375e-7
-0.381, 1.2198907e-6, 6.8458269e-7
-0.382, 1.2339408e-6, 7.6969172e-7
-0.383, 1.1708140e-6, 7.3728728e-7
-0.384, 1.2374699e-6, 8.1373867e-7
-0.385, 1.1839736e-6, 7.4718179e-7
-0.386, 1.2471498e-6, 7.8121877e-7
-0.387, 1.2257614e-6, 7.3723777e-7
-0.388, 1.2127337e-6, 6.7862948e-7
-0.389, 1.2552964e-6, 8.0226101e-7
-0.390, 1.2027401e-6, 7.9739624e-7
-0.391, 1.2578030e-6, 8.3910152e-7
-0.392, 1.2265695e-6, 7.9047015e-7
-0.393, 1.2681098e-6, 7.6522269e-7
-0.394, 1.2576215e-6, 7.4881439e-7
-0.395, 1.2494256e-6, 7.0864274e-7
-0.396, 1.2776250e-6, 7.9648925e-7
-0.397, 1.2297521e-6, 7.9939161e-7
-0.398, 1.2847324e-6, 8.5194790e-7
-0.399, 1.2631790e-6, 7.8972801e-7
-0.400, 1.2796534e-6, 7.6822403e-7
-0.401, 1.2823743e-6, 7.6497531e-7
-0.402, 1.2474138e-6, 7.7703010e-7
-0.403, 1.2959132e-6, 7.9866601e-7
-0.404, 1.2624864e-6, 8.2928949e-7
-0.405, 1.2972325e-6, 8.6886740e-7
-0.406, 1.3052140e-6, 8.2378153e-7
-0.407, 1.2986342e-6, 7.8591870e-7
-0.408, 1.3306758e-6, 7.4520290e-7
-0.409, 1.2800656e-6, 7.7696416e-7
-0.410, 1.3270644e-6, 8.2040094e-7
-0.411, 1.2926316e-6, 8.4195437e-7
-0.412, 1.3165927e-6, 8.6212265e-7
-0.413, 1.3242114e-6, 8.5369595e-7
-0.414, 1.2911144e-6, 7.9968845e-7
-0.415, 1.3474800e-6, 7.5211256e-7
-0.416, 1.2993432e-6, 7.9714891e-7
-0.417, 1.3310881e-6, 8.2773931e-7
-0.418, 1.3292412e-6, 8.7297366e-7
-0.419, 1.3095181e-6, 8.1644316e-7
-0.420, 1.3502009e-6, 8.5478416e-7
-0.421, 1.2974140e-6, 8.1446422e-7
-0.422, 1.3502340e-6, 7.7905850e-7
-0.423, 1.3327207e-6, 8.1984024e-7
-0.424, 1.3298843e-6, 8.2234686e-7
-0.425, 1.3446930e-6, 8.9660500e-7
-0.426, 1.3148281e-6, 8.3624855e-7
-0.427, 1.3580670e-6, 8.2002163e-7
-0.428, 1.3076052e-6, 8.0029861e-7
-0.429, 1.3454681e-6, 7.6817457e-7
-0.430, 1.3474470e-6, 8.3717208e-7
-0.431, 1.3205835e-6, 8.0923667e-7
-0.432, 1.3513059e-6, 8.7569464e-7
-0.433, 1.2988155e-6, 8.5021634e-7
-0.434, 1.3422359e-6, 8.3151576e-7
-0.435, 1.3207483e-6, 8.1490953e-7
-0.436, 1.3590070e-6, 7.6025901e-7
-0.437, 1.3565334e-6, 8.5207978e-7
-0.438, 1.2874370e-6, 8.2341876e-7
-0.439, 1.3586442e-6, 8.2734357e-7
-0.440, 1.2853261e-6, 8.5405867e-7
-0.441, 1.3414278e-6, 8.3123541e-7
-0.442, 1.3111837e-6, 8.3046029e-7
-0.443, 1.3088090e-6, 7.3481363e-7
-0.444, 1.3455506e-6, 8.3519319e-7
-0.445, 1.2813024e-6, 7.9637380e-7
-0.446, 1.3398446e-6, 8.6423347e-7
-0.447, 1.2936210e-6, 8.1213904e-7
-0.448, 1.3239311e-6, 7.9134418e-7
-0.449, 1.3397457e-6, 8.3631460e-7
-0.450, 1.2875194e-6, 7.1677277e-7
-0.451, 1.3221830e-6, 8.0331648e-7
-0.452, 1.2559231e-6, 8.0692791e-7
-0.453, 1.3141520e-6, 8.3179606e-7
-0.454, 1.2703690e-6, 8.2353421e-7
-0.455, 1.2809726e-6, 7.5682891e-7
-0.456, 1.3083472e-6, 8.1281519e-7
-0.457, 1.2478590e-6, 7.2287435e-7
-0.458, 1.2932583e-6, 7.8758421e-7
-0.459, 1.2341717e-6, 7.9126164e-7
-0.460, 1.2605240e-6, 8.5015034e-7
-0.461, 1.2654712e-6, 8.2082977e-7
-0.462, 1.2522621e-6, 7.5381104e-7
-0.463, 1.2708142e-6, 7.6893315e-7
-0.464, 1.2151413e-6, 7.2277544e-7
-0.465, 1.2709461e-6, 7.8453343e-7
-0.466, 1.2235516e-6, 7.6538765e-7
-0.467, 1.2359857e-6, 8.0414100e-7
-0.468, 1.2475952e-6, 8.0438838e-7
-0.469, 1.1813681e-6, 7.6545359e-7
-0.470, 1.2451710e-6, 7.5592192e-7
-0.471, 1.1893002e-6, 7.2388025e-7
-0.472, 1.2155535e-6, 7.6575043e-7
-0.473, 1.1924335e-6, 7.5641663e-7
-0.474, 1.1868760e-6, 7.5828007e-7
-0.475, 1.2028886e-6, 7.7862973e-7
-0.476, 1.1600620e-6, 7.2374831e-7
-0.477, 1.2108371e-6, 7.1329322e-7
-0.478, 1.1543561e-6, 6.5770269e-7
-0.479, 1.1592704e-6, 7.1941128e-7
-0.480, 1.1644649e-6, 7.7872869e-7
-0.481, 1.1287624e-6, 7.3458278e-7
-0.482, 1.1697587e-6, 7.3087233e-7
-0.483, 1.1165757e-6, 6.8090526e-7
-0.484, 1.1447750e-6, 6.9084916e-7
-0.485, 1.1284986e-6, 6.7445734e-7
-0.486, 1.1065493e-6, 6.7091179e-7
-0.487, 1.1310713e-6, 6.9798966e-7
-0.488, 1.0729411e-6, 7.4733020e-7
-0.489, 1.1174168e-6, 7.1794352e-7
-0.490, 1.0826707e-6, 6.4718154e-7
-0.491, 1.1073903e-6, 6.5077654e-7
-0.492, 1.0948244e-6, 6.2861290e-7
-0.493, 1.0431257e-6, 6.6408461e-7
-0.494, 1.0815163e-6, 6.4751134e-7
-0.495, 1.0364304e-6, 6.9759392e-7
-0.496, 1.0627498e-6, 6.9634063e-7
-0.497, 1.0403387e-6, 6.5296979e-7
-0.498, 1.0169218e-6, 6.2935499e-7
-0.499, 1.0530532e-6, 5.8827641e-7
-0.500, 9.9113026e-7, 6.4107996e-7
