Dec. 9, 2005   02:30:37
Square Wave Voltammetry
File: d:\ida_biofilms\11_28_18_blankidapyo\50um_transfer\50um_pyo_transfer_swv_16.txt
Data Source:  Experiment
Instrument Model:  CHI760B
Header: 
Note: 

Init E (V) = 0.1
Final E (V) = -0.5
Incr E (V) = 0.001
Amplitude (V) = 0.025
Frequency (Hz) = 300
Quiet Time (sec) = 2
Sensitivity (A/V) = 1e-6
Sens 2 (A/V) = 1e-6

Potential/V, i1/A, i2/A

0.099, 6.3237280e-7, 2.9724674e-7
0.098, 6.3758387e-7, 3.8131685e-7
0.097, 5.7851383e-7, 3.2823291e-7
0.096, 6.3552250e-7, 3.6058788e-7
0.095, 5.8382386e-7, 4.1415001e-7
0.094, 5.9112926e-7, 4.0780105e-7
0.093, 6.3796324e-7, 4.4901157e-7
0.092, 5.6494190e-7, 3.6447972e-7
0.091, 6.1761358e-7, 3.8141576e-7
0.090, 5.4543329e-7, 3.1189057e-7
0.089, 5.9137665e-7, 3.4978643e-7
0.088, 5.9536740e-7, 4.1047258e-7
0.087, 5.4025520e-7, 3.8933138e-7
0.086, 5.8258706e-7, 4.2257682e-7
0.085, 5.2181844e-7, 3.5982930e-7
0.084, 5.7506725e-7, 3.6543619e-7
0.083, 5.2927231e-7, 3.0964779e-7
0.082, 5.4592800e-7, 2.9102966e-7
0.081, 5.5199666e-7, 3.9033728e-7
0.080, 5.0023198e-7, 3.9492173e-7
0.079, 5.5001772e-7, 4.0864208e-7
0.078, 5.1405129e-7, 3.3032725e-7
0.077, 5.3934821e-7, 3.4897838e-7
0.076, 5.2648534e-7, 3.0765239e-7
0.075, 5.1952622e-7, 2.8204221e-7
0.074, 5.3530789e-7, 3.5008327e-7
0.073, 4.8692391e-7, 3.6256679e-7
0.072, 5.3021228e-7, 3.7554503e-7
0.071, 4.8346084e-7, 3.3708849e-7
0.070, 5.1886661e-7, 3.2857923e-7
0.069, 5.1542008e-7, 2.9688391e-7
0.068, 4.5898850e-7, 2.7602306e-7
0.067, 5.1845439e-7, 3.2439056e-7
0.066, 4.5651487e-7, 3.4788997e-7
0.065, 5.0534413e-7, 3.8017896e-7
0.064, 4.8563766e-7, 3.3212476e-7
0.063, 4.8024515e-7, 2.8797888e-7
0.062, 5.0331579e-7, 2.7909033e-7
0.061, 4.5128732e-7, 2.5662985e-7
0.060, 4.9911063e-7, 3.2542948e-7
0.059, 4.5207884e-7, 3.2511616e-7
0.058, 4.6230315e-7, 3.6784382e-7
0.057, 4.8103675e-7, 3.4658720e-7
0.056, 4.5181503e-7, 2.6377040e-7
0.055, 4.8214162e-7, 2.4741149e-7
0.054, 4.1482613e-7, 2.4526770e-7
0.053, 4.5855975e-7, 3.2848030e-7
0.052, 4.5725699e-7, 3.0994462e-7
0.051, 4.5587177e-7, 3.2755679e-7
0.050, 4.5999445e-7, 3.1532062e-7
0.049, 4.2585850e-7, 2.8499403e-7
0.048, 4.5981307e-7, 2.6162658e-7
0.047, 4.2749107e-7, 2.3209155e-7
0.046, 4.5054520e-7, 3.0158378e-7
0.045, 4.5295286e-7, 3.3082199e-7
0.044, 4.2892577e-7, 3.0903766e-7
0.043, 4.6480977e-7, 2.9572956e-7
0.042, 4.0575617e-7, 2.7664970e-7
0.041, 4.4779125e-7, 2.3669249e-7
0.040, 4.2277469e-7, 2.3632970e-7
0.039, 4.1754711e-7, 2.8012926e-7
0.038, 4.5118836e-7, 2.8425194e-7
0.037, 3.9655433e-7, 3.2178502e-7
0.036, 4.4544956e-7, 2.6391879e-7
0.035, 4.0351344e-7, 2.5676181e-7
0.034, 4.4269558e-7, 2.4322284e-7
0.033, 4.4431169e-7, 2.3898471e-7
0.032, 3.9119482e-7, 2.7989839e-7
0.031, 4.3542315e-7, 2.8398813e-7
0.030, 3.7714466e-7, 3.2265905e-7
0.029, 4.3329584e-7, 2.9795581e-7
0.028, 3.9815393e-7, 2.6452895e-7
0.027, 3.9510314e-7, 1.9744438e-7
0.026, 4.2213156e-7, 2.4788972e-7
0.025, 3.6884978e-7, 2.7709495e-7
0.024, 4.2462170e-7, 2.6096694e-7
0.023, 3.8144873e-7, 3.1936088e-7
0.022, 4.0625090e-7, 2.6814044e-7
0.021, 4.0301870e-7, 2.7651777e-7
0.020, 3.9988549e-7, 2.3174525e-7
0.019, 4.1347388e-7, 2.1010932e-7
0.018, 3.7053184e-7, 2.6929482e-7
0.017, 4.1400159e-7, 2.6197290e-7
0.016, 3.7374753e-7, 3.1339121e-7
0.015, 4.1179180e-7, 2.6942672e-7
0.014, 4.0938417e-7, 2.6535349e-7
0.013, 3.6205557e-7, 2.0534347e-7
0.012, 4.1276479e-7, 2.0568977e-7
0.011, 3.6078578e-7, 2.4965425e-7
0.010, 3.9955566e-7, 2.5201246e-7
0.009, 3.8022841e-7, 3.2631999e-7
0.008, 3.8633004e-7, 2.5128685e-7
0.007, 4.1241850e-7, 2.4624066e-7
0.006, 3.6210503e-7, 2.2757308e-7
0.005, 4.1710189e-7, 2.1123068e-7
0.004, 3.6546916e-7, 2.6802502e-7
0.003, 3.7976667e-7, 2.7216421e-7
0.002, 4.0682812e-7, 3.3431803e-7
0.001, 3.6817366e-7, 2.5773477e-7
-0.000, 4.2171928e-7, 2.6063714e-7
-0.001, 3.4579563e-7, 2.2752360e-7
-0.002, 4.0966449e-7, 2.1724983e-7
-0.003, 3.9150814e-7, 2.6507317e-7
-0.004, 3.8019544e-7, 2.2506647e-7
-0.005, 4.0935117e-7, 3.1634306e-7
-0.006, 3.5423892e-7, 2.7933771e-7
-0.007, 4.1489210e-7, 2.5737197e-7
-0.008, 3.7757343e-7, 2.1579865e-7
-0.009, 4.0968101e-7, 2.0859216e-7
-0.010, 4.0672916e-7, 3.0618472e-7
-0.011, 3.5440382e-7, 2.3913313e-7
-0.012, 4.0634984e-7, 2.7473675e-7
-0.013, 3.5059446e-7, 2.6512262e-7
-0.014, 3.9930831e-7, 2.6309425e-7
-0.015, 3.8346062e-7, 2.5618462e-7
-0.016, 3.7848042e-7, 1.9429464e-7
-0.017, 4.1350688e-7, 2.8354285e-7
-0.018, 3.5099023e-7, 2.4665292e-7
-0.019, 4.0536042e-7, 2.7948613e-7
-0.020, 3.5956543e-7, 2.5526111e-7
-0.021, 4.0916979e-7, 2.4937393e-7
-0.022, 4.2094422e-7, 2.4375055e-7
-0.023, 3.6904768e-7, 1.9670230e-7
-0.024, 4.2180176e-7, 2.5588776e-7
-0.025, 3.5476666e-7, 2.5127036e-7
-0.026, 4.2010319e-7, 2.9586147e-7
-0.027, 3.7546261e-7, 2.7119125e-7
-0.028, 3.7803517e-7, 2.3520830e-7
-0.029, 4.1848710e-7, 2.7798546e-7
-0.030, 3.6571652e-7, 1.9841735e-7
-0.031, 4.1680505e-7, 2.6777764e-7
-0.032, 3.5862547e-7, 2.5493131e-7
-0.033, 4.1179183e-7, 2.8952900e-7
-0.034, 4.0702599e-7, 2.8712137e-7
-0.035, 3.8792962e-7, 2.5033037e-7
-0.036, 4.2153789e-7, 2.2897478e-7
-0.037, 3.7363213e-7, 2.0897144e-7
-0.038, 4.2226350e-7, 2.8440039e-7
-0.039, 3.7856285e-7, 2.5948276e-7
-0.040, 4.1157745e-7, 2.6771170e-7
-0.041, 4.1035713e-7, 2.8967744e-7
-0.042, 3.6654106e-7, 2.5196297e-7
-0.043, 4.2115860e-7, 2.6090100e-7
-0.044, 3.7737553e-7, 2.1609547e-7
-0.045, 4.2015267e-7, 2.8077241e-7
-0.046, 4.0521201e-7, 2.9449274e-7
-0.047, 4.0755367e-7, 2.8019522e-7
-0.048, 4.2905771e-7, 2.8446635e-7
-0.049, 3.8481289e-7, 2.5204542e-7
-0.050, 4.5026488e-7, 2.7712792e-7
-0.051, 3.9271197e-7, 2.1903084e-7
-0.052, 4.2046599e-7, 2.7317014e-7
-0.053, 4.2955241e-7, 2.9792284e-7
-0.054, 4.0458534e-7, 2.8532389e-7
-0.055, 4.4795615e-7, 3.0046240e-7
-0.056, 3.8827594e-7, 2.5127036e-7
-0.057, 4.5108942e-7, 2.8327901e-7
-0.058, 4.2759001e-7, 2.3505990e-7
-0.059, 4.1873449e-7, 2.6167606e-7
-0.060, 4.4810457e-7, 3.0725664e-7
-0.061, 4.0832873e-7, 2.8853958e-7
-0.062, 4.6095090e-7, 3.1853634e-7
-0.063, 4.2120809e-7, 2.5999401e-7
-0.064, 4.4884666e-7, 2.9389906e-7
-0.065, 4.4935788e-7, 2.5409028e-7
-0.066, 4.2859597e-7, 2.5963118e-7
-0.067, 4.6538696e-7, 2.8154747e-7
-0.068, 4.1236899e-7, 2.9119457e-7
-0.069, 4.6484274e-7, 3.4536686e-7
-0.070, 4.5234270e-7, 2.7547884e-7
-0.071, 4.5125432e-7, 2.7475326e-7
-0.072, 4.8558815e-7, 2.5240823e-7
-0.073, 4.1810782e-7, 2.6551842e-7
-0.074, 4.8321351e-7, 2.9662007e-7
-0.075, 4.3278459e-7, 3.0461811e-7
-0.076, 4.9513631e-7, 3.3975999e-7
-0.077, 4.7991534e-7, 3.2394533e-7
-0.078, 4.4558146e-7, 2.9388258e-7
-0.079, 4.9736263e-7, 2.4053483e-7
-0.080, 4.3944692e-7, 2.5458499e-7
-0.081, 5.0415679e-7, 3.3237211e-7
-0.082, 4.6104984e-7, 3.2124080e-7
-0.083, 4.7171940e-7, 3.5079236e-7
-0.084, 5.1652495e-7, 3.4231607e-7
-0.085, 4.5564087e-7, 2.8197621e-7
-0.086, 5.1914697e-7, 2.6325915e-7
-0.087, 4.6494171e-7, 2.6794257e-7
-0.088, 5.0610271e-7, 3.3192686e-7
-0.089, 5.0849388e-7, 3.3700604e-7
-0.090, 4.8426887e-7, 3.6291308e-7
-0.091, 5.2384684e-7, 3.3893548e-7
-0.092, 4.8174581e-7, 3.1111549e-7
-0.093, 5.3816086e-7, 2.7376382e-7
-0.094, 4.9925904e-7, 2.6932778e-7
-0.095, 5.1289692e-7, 3.1212141e-7
-0.096, 5.2828284e-7, 3.2955219e-7
-0.097, 4.9457560e-7, 3.6833859e-7
-0.098, 5.3522552e-7, 3.3837478e-7
-0.099, 5.0704273e-7, 3.2518216e-7
-0.100, 5.4846760e-7, 3.3003045e-7
-0.101, 5.3827625e-7, 3.0369461e-7
-0.102, 5.4358628e-7, 3.3293281e-7
-0.103, 5.5138651e-7, 3.3764917e-7
-0.104, 5.1650841e-7, 3.9010644e-7
-0.105, 5.7079615e-7, 3.6184119e-7
-0.106, 5.3755070e-7, 3.3318017e-7
-0.107, 5.6314440e-7, 3.4013931e-7
-0.108, 5.7124134e-7, 3.1934439e-7
-0.109, 5.3684158e-7, 3.5080882e-7
-0.110, 5.8923285e-7, 3.4269539e-7
-0.111, 5.3281781e-7, 3.6720070e-7
-0.112, 5.8774873e-7, 3.8329568e-7
-0.113, 5.7816760e-7, 3.6645861e-7
-0.114, 5.7917345e-7, 3.2664983e-7
-0.115, 6.0371178e-7, 3.1200599e-7
-0.116, 5.6771239e-7, 3.7120796e-7
-0.117, 6.1649212e-7, 3.7363210e-7
-0.118, 5.7963518e-7, 3.7358262e-7
-0.119, 5.8713852e-7, 3.9576278e-7
-0.120, 6.1011019e-7, 3.9322316e-7
-0.121, 5.8919989e-7, 3.3609905e-7
-0.122, 6.3055882e-7, 3.2071313e-7
-0.123, 5.7739248e-7, 3.7218092e-7
-0.124, 6.2044995e-7, 4.0016582e-7
-0.125, 6.2425937e-7, 3.9601014e-7
-0.126, 6.1614583e-7, 3.9488879e-7
-0.127, 6.4058520e-7, 4.0171597e-7
-0.128, 6.0178240e-7, 3.8232278e-7
-0.129, 6.5994544e-7, 3.4244800e-7
-0.130, 6.1657460e-7, 3.8359258e-7
-0.131, 6.4802259e-7, 3.9045273e-7
-0.132, 6.5432209e-7, 4.3680836e-7
-0.133, 6.1438129e-7, 4.0780105e-7
-0.134, 6.6889993e-7, 3.6964133e-7
-0.135, 6.1406803e-7, 3.8669282e-7
-0.136, 6.6062159e-7, 3.5722377e-7
-0.137, 6.4840185e-7, 3.5432137e-7
-0.138, 6.4564790e-7, 3.9154111e-7
-0.139, 6.8906820e-7, 4.2945351e-7
-0.140, 6.2907463e-7, 4.4805512e-7
-0.141, 6.8349431e-7, 4.0633336e-7
-0.142, 6.4010698e-7, 3.8916644e-7
-0.143, 6.7493556e-7, 3.6497443e-7
-0.144, 6.8751808e-7, 3.8260310e-7
-0.145, 6.4464194e-7, 4.1205567e-7
-0.146, 6.9192106e-7, 4.1416649e-7
-0.147, 6.3247177e-7, 4.5483281e-7
-0.148, 6.9606028e-7, 4.4630710e-7
-0.149, 6.7618885e-7, 4.1177532e-7
-0.150, 6.7325351e-7, 3.4559775e-7
-0.151, 7.0257420e-7, 3.8283400e-7
-0.152, 6.5470135e-7, 4.2007019e-7
-0.153, 7.0597122e-7, 4.1977339e-7
-0.154, 6.6833923e-7, 4.5862572e-7
-0.155, 7.0397584e-7, 4.4785719e-7
-0.156, 7.0089209e-7, 4.4752738e-7
-0.157, 6.9859988e-7, 3.8120140e-7
-0.158, 7.1161111e-7, 3.8022844e-7
-0.159, 6.7096130e-7, 4.3468108e-7
-0.160, 7.2028524e-7, 4.2641918e-7
-0.161, 6.9078322e-7, 4.6215473e-7
-0.162, 7.0945077e-7, 4.4571343e-7
-0.163, 7.2635385e-7, 4.4528466e-7
-0.164, 6.7455630e-7, 4.3463160e-7
-0.165, 7.3436843e-7, 3.8278449e-7
-0.166, 6.8948043e-7, 4.2902474e-7
-0.167, 7.2976746e-7, 4.4563097e-7
-0.168, 7.2762373e-7, 4.8794635e-7
-0.169, 7.1627801e-7, 4.4878070e-7
-0.170, 7.4449378e-7, 4.3280107e-7
-0.171, 7.0648247e-7, 4.1317708e-7
-0.172, 7.5864290e-7, 3.9122779e-7
-0.173, 7.1827333e-7, 4.5638296e-7
-0.174, 7.2884404e-7, 4.5527810e-7
-0.175, 7.5743907e-7, 5.0915355e-7
-0.176, 7.1852077e-7, 4.5885662e-7
-0.177, 7.6809215e-7, 4.4376748e-7
-0.178, 7.1542047e-7, 4.5300234e-7
-0.179, 7.5549315e-7, 4.1644222e-7
-0.180, 7.5707624e-7, 4.5775170e-7
-0.181, 7.4056896e-7, 4.4243177e-7
-0.182, 7.8638038e-7, 5.1464497e-7
-0.183, 7.2676619e-7, 4.9970424e-7
-0.184, 7.8293385e-7, 4.5745486e-7
-0.185, 7.5897270e-7, 4.5418972e-7
-0.186, 7.8794704e-7, 4.0334854e-7
-0.187, 7.9612641e-7, 5.0696025e-7
-0.188, 7.6263365e-7, 4.4048585e-7
-0.189, 8.0836264e-7, 5.1050580e-7
-0.190, 7.6561849e-7, 5.1997154e-7
-0.191, 7.9597805e-7, 4.7465477e-7
-0.192, 8.0254142e-7, 4.8675901e-7
-0.193, 7.8623191e-7, 4.0455240e-7
-0.194, 8.3512725e-7, 4.7008680e-7
-0.195, 7.6256765e-7, 4.7943712e-7
-0.196, 8.2877830e-7, 5.1550251e-7
-0.197, 7.9955657e-7, 5.3314761e-7
-0.198, 8.3585280e-7, 4.8852354e-7
-0.199, 8.5575721e-7, 5.0808165e-7
-0.200, 7.9482368e-7, 4.3301549e-7
-0.201, 8.5897284e-7, 4.3992515e-7
-0.202, 7.9716540e-7, 5.0488245e-7
-0.203, 8.5496566e-7, 5.3699000e-7
-0.204, 8.4141021e-7, 5.6891622e-7
-0.205, 8.2956984e-7, 5.2643588e-7
-0.206, 8.9774278e-7, 5.2567731e-7
-0.207, 8.2302302e-7, 4.5689416e-7
-0.208, 9.0326722e-7, 4.9643910e-7
-0.209, 8.6194132e-7, 5.1276504e-7
-0.210, 8.8050990e-7, 5.2125779e-7
-0.211, 9.0003505e-7, 6.1367223e-7
-0.212, 8.7538132e-7, 5.2176898e-7
-0.213, 9.2635435e-7, 5.1987257e-7
-0.214, 8.6906527e-7, 4.8865547e-7
-0.215, 9.1326069e-7, 4.8939751e-7
-0.216, 9.0166759e-7, 5.4139304e-7
-0.217, 9.0363005e-7, 5.1888310e-7
-0.218, 9.3799684e-7, 6.1730020e-7
-0.219, 8.8070783e-7, 5.7389644e-7
-0.220, 9.6233725e-7, 5.4363579e-7
-0.221, 9.2940513e-7, 5.4422947e-7
-0.222, 9.5188216e-7, 4.9493843e-7
-0.223, 9.5870928e-7, 5.9434501e-7
-0.224, 9.3108724e-7, 5.4914375e-7
-0.225, 9.8463283e-7, 6.2915711e-7
-0.226, 9.3491315e-7, 5.8746838e-7
-0.227, 1.0073077e-6, 5.6721763e-7
-0.228, 9.6888414e-7, 5.7015302e-7
-0.229, 9.8046075e-7, 5.1565087e-7
-0.230, 1.0319285e-6, 6.2097763e-7
-0.231, 9.6957672e-7, 5.7114249e-7
-0.232, 1.0204178e-6, 6.0870849e-7
-0.233, 9.6500878e-7, 6.0687802e-7
-0.234, 1.0405531e-6, 5.9165700e-7
-0.235, 1.0420538e-6, 6.1266633e-7
-0.236, 1.0120735e-6, 5.0463507e-7
-0.237, 1.0730400e-6, 6.4322376e-7
-0.238, 1.0141184e-6, 6.1248488e-7
-0.239, 1.0779543e-6, 6.7147255e-7
-0.240, 1.0391184e-6, 6.3278503e-7
-0.241, 1.0612656e-6, 6.0273885e-7
-0.242, 1.0890526e-6, 6.5880755e-7
-0.243, 1.0419878e-6, 5.0501433e-7
-0.244, 1.1169550e-6, 6.3981014e-7
-0.245, 1.0425156e-6, 6.2073030e-7
-0.246, 1.0853092e-6, 6.7264330e-7
-0.247, 1.1081654e-6, 6.7648568e-7
-0.248, 1.0978918e-6, 5.8555543e-7
-0.249, 1.1410150e-6, 6.7038411e-7
-0.250, 1.0878158e-6, 5.4789041e-7
-0.251, 1.1418726e-6, 6.4747837e-7
-0.252, 1.1006127e-6, 6.5663079e-7
-0.253, 1.1512889e-6, 6.6527195e-7
-0.254, 1.1636240e-6, 7.0458600e-7
-0.255, 1.1035810e-6, 6.4094797e-7
-0.256, 1.1769815e-6, 6.3189458e-7
-0.257, 1.1098970e-6, 5.7937132e-7
-0.258, 1.1753984e-6, 6.7323703e-7
-0.259, 1.1517342e-6, 6.8295009e-7
-0.260, 1.1433074e-6, 6.7005431e-7
-0.261, 1.2024434e-6, 7.4437833e-7
-0.262, 1.1312360e-6, 6.4868220e-7
-0.263, 1.1859361e-6, 6.7480369e-7
-0.264, 1.1622058e-6, 5.9147561e-7
-0.265, 1.1878160e-6, 6.6784452e-7
-0.266, 1.2158009e-6, 7.1667375e-7
-0.267, 1.1487164e-6, 6.8839211e-7
-0.268, 1.2020971e-6, 7.1855368e-7
-0.269, 1.1459293e-6, 6.7468824e-7
-0.270, 1.2114143e-6, 6.9383407e-7
-0.271, 1.1967045e-6, 6.1612934e-7
-0.272, 1.1817309e-6, 6.1418348e-7
-0.273, 1.2120245e-6, 7.2185190e-7
-0.274, 1.1452532e-6, 7.1075362e-7
-0.275, 1.2219849e-6, 7.5722471e-7
-0.276, 1.1763880e-6, 6.8400550e-7
-0.277, 1.2226446e-6, 6.9422981e-7
-0.278, 1.2139703e-6, 6.8671000e-7
-0.279, 1.2060384e-6, 6.3288405e-7
-0.280, 1.2261901e-6, 7.0422323e-7
-0.281, 1.1637890e-6, 7.2249509e-7
-0.282, 1.2236010e-6, 7.6815803e-7
-0.283, 1.2005798e-6, 7.3674312e-7
-0.284, 1.2054447e-6, 6.7554572e-7
-0.285, 1.2278392e-6, 6.6997183e-7
-0.286, 1.1705007e-6, 6.2097769e-7
-0.287, 1.2230239e-6, 7.1248508e-7
-0.288, 1.1527566e-6, 6.9655505e-7
-0.289, 1.2179942e-6, 7.5900567e-7
-0.290, 1.2071928e-6, 7.2416060e-7
-0.291, 1.1984362e-6, 6.6514008e-7
-0.292, 1.2296862e-6, 6.7036763e-7
-0.293, 1.1643166e-6, 6.2463857e-7
-0.294, 1.2319784e-6, 7.2307222e-7
-0.295, 1.1761899e-6, 6.8647915e-7
-0.296, 1.1798675e-6, 7.6542062e-7
-0.297, 1.2218859e-6, 7.7698064e-7
-0.298, 1.1901412e-6, 6.4549954e-7
-0.299, 1.2170377e-6, 6.6416703e-7
-0.300, 1.1586933e-6, 6.1050599e-7
-0.301, 1.1916748e-6, 7.2134071e-7
-0.302, 1.1811208e-6, 7.0496532e-7
-0.303, 1.1721497e-6, 6.9516977e-7
-0.304, 1.1967045e-6, 7.6190804e-7
-0.305, 1.1646794e-6, 6.8920014e-7
-0.306, 1.2090891e-6, 6.8062491e-7
-0.307, 1.1716879e-6, 6.0582261e-7
-0.308, 1.1842706e-6, 7.0206295e-7
-0.309, 1.1830666e-6, 7.2364935e-7
-0.310, 1.1481886e-6, 7.0562493e-7
-0.311, 1.1969519e-6, 7.1944424e-7
-0.312, 1.1543561e-6, 6.7247845e-7
-0.313, 1.1883108e-6, 7.0691124e-7
-0.314, 1.1704183e-6, 6.2557859e-7
-0.315, 1.1512559e-6, 6.6640985e-7
-0.316, 1.1926313e-6, 6.8667703e-7
-0.317, 1.1227597e-6, 7.1880106e-7
-0.318, 1.1739143e-6, 7.0471799e-7
-0.319, 1.1303621e-6, 6.6418352e-7
-0.320, 1.1707150e-6, 6.3801264e-7
-0.321, 1.1746399e-6, 6.3829299e-7
-0.322, 1.1283831e-6, 6.8032807e-7
-0.323, 1.1819783e-6, 6.7602394e-7
-0.324, 1.1021133e-6, 7.1312820e-7
-0.325, 1.1488482e-6, 7.2394624e-7
-0.326, 1.1320606e-6, 6.8662757e-7
-0.327, 1.1351939e-6, 6.4858330e-7
-0.328, 1.1683403e-6, 6.4419669e-7
-0.329, 1.1145804e-6, 6.7547978e-7
-0.330, 1.1626839e-6, 6.8623177e-7
-0.331, 1.1243264e-6, 7.1179250e-7
-0.332, 1.1499696e-6, 7.0163418e-7
-0.333, 1.1452368e-6, 7.0730698e-7
-0.334, 1.1341385e-6, 6.8756754e-7
-0.335, 1.1515527e-6, 6.1436486e-7
-0.336, 1.1159821e-6, 6.9464210e-7
-0.337, 1.1553292e-6, 6.9193754e-7
-0.338, 1.1351444e-6, 7.2874502e-7
-0.339, 1.1353259e-6, 7.2115927e-7
-0.340, 1.1574730e-6, 7.1919692e-7
-0.341, 1.1022782e-6, 6.7399560e-7
-0.342, 1.1736834e-6, 6.2717822e-7
-0.343, 1.1096826e-6, 6.5583919e-7
-0.344, 1.1548674e-6, 6.7785442e-7
-0.345, 1.1509920e-6, 7.4881433e-7
-0.346, 1.1367606e-6, 7.1345806e-7
-0.347, 1.1562691e-6, 6.8847453e-7
-0.348, 1.1270474e-6, 6.9421333e-7
-0.349, 1.1721168e-6, 6.2966831e-7
-0.350, 1.1365132e-6, 6.5829636e-7
-0.351, 1.1396463e-6, 7.1624504e-7
-0.352, 1.1669222e-6, 7.7109343e-7
-0.353, 1.1210942e-6, 7.4601098e-7
-0.354, 1.1706985e-6, 7.2442447e-7
-0.355, 1.1301312e-6, 6.9183864e-7
-0.356, 1.1642177e-6, 6.7312158e-7
-0.357, 1.1939671e-6, 7.0290395e-7
-0.358, 1.1551477e-6, 6.7679900e-7
-0.359, 1.1785812e-6, 7.5329984e-7
-0.360, 1.1389702e-6, 7.7552943e-7
-0.361, 1.1896794e-6, 7.5875835e-7
-0.362, 1.1707646e-6, 6.9749501e-7
-0.363, 1.1945608e-6, 6.5701005e-7
-0.364, 1.2088253e-6, 7.1274894e-7
-0.365, 1.1578852e-6, 7.0547651e-7
-0.366, 1.2088913e-6, 7.3614939e-7
-0.367, 1.1599795e-6, 7.8006440e-7
-0.368, 1.2019982e-6, 7.8346159e-7
-0.369, 1.2106888e-6, 7.3219161e-7
-0.370, 1.1756293e-6, 6.9192106e-7
-0.371, 1.2362166e-6, 7.1840532e-7
-0.372, 1.1826874e-6, 7.6078669e-7
-0.373, 1.2134757e-6, 7.4027207e-7
-0.374, 1.2024434e-6, 7.9124516e-7
-0.375, 1.2257119e-6, 7.7886062e-7
-0.376, 1.2581163e-6, 7.5989612e-7
-0.377, 1.1921531e-6, 7.3149903e-7
-0.378, 1.2606064e-6, 6.8153184e-7
-0.379, 1.2061043e-6, 7.7363302e-7
-0.380, 1.2563353e-6, 7.7511720e-7
-0.381, 1.2445607e-6, 8.1596494e-7
-0.382, 1.2433570e-6, 7.6068773e-7
-0.383, 1.2951382e-6, 7.9787446e-7
-0.384, 1.2386902e-6, 7.6035792e-7
-0.385, 1.2834627e-6, 7.2358341e-7
-0.386, 1.2566321e-6, 7.8816140e-7
-0.387, 1.2756790e-6, 7.8029530e-7
-0.388, 1.2862497e-6, 8.7005481e-7
-0.389, 1.2669225e-6, 8.0034806e-7
-0.390, 1.3049503e-6, 7.9718188e-7
-0.391, 1.2802140e-6, 7.9409807e-7
-0.392, 1.3124204e-6, 7.3652870e-7
-0.393, 1.2950392e-6, 8.0885741e-7
-0.394, 1.3016025e-6, 7.7153868e-7
-0.395, 1.3233704e-6, 8.4096490e-7
-0.396, 1.2749534e-6, 8.3408827e-7
-0.397, 1.3511079e-6, 8.0489957e-7
-0.398, 1.3046863e-6, 8.1362322e-7
-0.399, 1.3276250e-6, 7.5707624e-7
-0.400, 1.3502670e-6, 8.6131462e-7
-0.401, 1.3195281e-6, 8.1599785e-7
-0.402, 1.3629649e-6, 8.6649277e-7
-0.403, 1.3144984e-6, 8.6230409e-7
-0.404, 1.3795875e-6, 8.3205998e-7
-0.405, 1.3441158e-6, 8.3306588e-7
-0.406, 1.3428626e-6, 7.7449056e-7
-0.407, 1.3909003e-6, 8.6411808e-7
-0.408, 1.3313850e-6, 8.5738975e-7
-0.409, 1.3963092e-6, 8.7233047e-7
-0.410, 1.3422194e-6, 8.7183577e-7
-0.411, 1.3998713e-6, 8.4594518e-7
-0.412, 1.3998713e-6, 8.8014713e-7
-0.413, 1.3852439e-6, 7.6604726e-7
-0.414, 1.4142677e-6, 8.9032193e-7
-0.415, 1.3654055e-6, 8.6119917e-7
-0.416, 1.4195448e-6, 8.9162472e-7
-0.417, 1.3981066e-6, 8.8461616e-7
-0.418, 1.4137235e-6, 8.4569780e-7
-0.419, 1.4299835e-6, 9.0854428e-7
-0.420, 1.3900922e-6, 7.8238963e-7
-0.421, 1.4388885e-6, 8.7567810e-7
-0.422, 1.3723645e-6, 8.5260751e-7
-0.423, 1.4265863e-6, 9.0872572e-7
-0.424, 1.4245085e-6, 9.3082338e-7
-0.425, 1.4062862e-6, 8.4447754e-7
-0.426, 1.4494756e-6, 8.9175660e-7
-0.427, 1.3871238e-6, 8.1784481e-7
-0.428, 1.4487005e-6, 8.5193130e-7
-0.429, 1.4095679e-6, 8.5890696e-7
-0.430, 1.4346174e-6, 8.8959632e-7
-0.431, 1.4569459e-6, 9.4297707e-7
-0.432, 1.4025758e-6, 8.6881789e-7
-0.433, 1.4608047e-6, 8.5564170e-7
-0.434, 1.3893172e-6, 8.2315489e-7
-0.435, 1.4451880e-6, 8.3446758e-7
-0.436, 1.4202868e-6, 8.9449406e-7
-0.437, 1.4041423e-6, 8.8049342e-7
-0.438, 1.4599143e-6, 9.5697771e-7
-0.439, 1.3983870e-6, 8.5428957e-7
-0.440, 1.4451384e-6, 8.8273623e-7
-0.441, 1.4132947e-6, 8.3242270e-7
-0.442, 1.4384761e-6, 8.1767996e-7
-0.443, 1.4406036e-6, 9.1565181e-7
-0.444, 1.3880144e-6, 8.7196770e-7
-0.445, 1.4528232e-6, 9.3908523e-7
-0.446, 1.3860355e-6, 8.9657198e-7
-0.447, 1.4354914e-6, 8.7208309e-7
-0.448, 1.4071767e-6, 8.7442481e-7
-0.449, 1.4047196e-6, 7.7460601e-7
-0.450, 1.4276252e-6, 8.8745253e-7
-0.451, 1.3637894e-6, 8.6591558e-7
-0.452, 1.4234035e-6, 8.9907849e-7
-0.453, 1.3770480e-6, 8.7590894e-7
-0.454, 1.4134762e-6, 8.5460289e-7
-0.455, 1.4050494e-6, 8.5997885e-7
-0.456, 1.3892181e-6, 7.6858692e-7
-0.457, 1.4041424e-6, 8.5951717e-7
-0.458, 1.3434562e-6, 8.5336609e-7
-0.459, 1.4057750e-6, 8.8778233e-7
-0.460, 1.3596666e-6, 8.7152239e-7
-0.461, 1.3670381e-6, 8.2843201e-7
-0.462, 1.3869260e-6, 8.5959960e-7
-0.463, 1.3401910e-6, 7.6926290e-7
-0.464, 1.3835783e-6, 8.3273608e-7
-0.465, 1.3176316e-6, 8.1759748e-7
-0.466, 1.3551481e-6, 8.7140700e-7
-0.467, 1.3395314e-6, 8.5989637e-7
-0.468, 1.3307913e-6, 7.8123531e-7
-0.469, 1.3630638e-6, 8.3085604e-7
-0.470, 1.2918565e-6, 7.5351420e-7
-0.471, 1.3613652e-6, 8.2211596e-7
-0.472, 1.2996567e-6, 8.0928612e-7
-0.473, 1.3099798e-6, 8.2267661e-7
-0.474, 1.3231891e-6, 8.9701723e-7
-0.475, 1.2695444e-6, 7.5823061e-7
-0.476, 1.3148282e-6, 7.9630786e-7
-0.477, 1.2562034e-6, 7.2064813e-7
-0.478, 1.2953690e-6, 7.7261063e-7
-0.479, 1.2727106e-6, 7.9690153e-7
-0.480, 1.2558241e-6, 7.5110654e-7
-0.481, 1.2832153e-6, 8.5757119e-7
-0.482, 1.2304447e-6, 7.9050312e-7
-0.483, 1.2790101e-6, 7.6185859e-7
-0.484, 1.2301149e-6, 7.0806556e-7
-0.485, 1.2537793e-6, 6.8725421e-7
-0.486, 1.2400754e-6, 7.7665084e-7
-0.487, 1.1881953e-6, 7.3384069e-7
-0.488, 1.2317640e-6, 7.9258098e-7
-0.489, 1.1697585e-6, 7.5532819e-7
-0.490, 1.2193300e-6, 7.4182225e-7
-0.491, 1.1829347e-6, 7.4238295e-7
-0.492, 1.1682909e-6, 6.6804239e-7
-0.493, 1.2018002e-6, 7.4216854e-7
-0.494, 1.1134755e-6, 6.9897919e-7
-0.495, 1.1759097e-6, 7.6695426e-7
-0.496, 1.1149432e-6, 7.2678262e-7
-0.497, 1.1424498e-6, 6.9662099e-7
-0.498, 1.1633437e-6, 7.1716852e-7
-0.499, 1.1003324e-6, 6.2991569e-7
-0.500, 1.1434557e-6, 7.0174963e-7
