Dec. 9, 2005   02:29:45
Square Wave Voltammetry
File: d:\ida_biofilms\11_28_18_blankidapyo\50um_transfer\50um_pyo_transfer_swv_10.txt
Data Source:  Experiment
Instrument Model:  CHI760B
Header: 
Note: 

Init E (V) = 0.1
Final E (V) = -0.5
Incr E (V) = 0.001
Amplitude (V) = 0.025
Frequency (Hz) = 300
Quiet Time (sec) = 2
Sensitivity (A/V) = 1e-6
Sens 2 (A/V) = 1e-6

Potential/V, i1/A, i2/A

0.099, 6.0639979e-7, 3.0684438e-7
0.098, 6.1546973e-7, 4.2236246e-7
0.097, 5.9607657e-7, 4.3136640e-7
0.096, 5.8982653e-7, 3.6753050e-7
0.095, 6.3647906e-7, 4.0130368e-7
0.094, 5.7020247e-7, 3.0915305e-7
0.093, 6.0829626e-7, 3.9559788e-7
0.092, 5.4970440e-7, 3.6246786e-7
0.091, 5.8637994e-7, 4.1446333e-7
0.090, 5.8981004e-7, 4.1113219e-7
0.089, 5.7793665e-7, 3.5069340e-7
0.088, 5.9010688e-7, 3.2194995e-7
0.087, 5.2577627e-7, 3.1804160e-7
0.086, 5.7242869e-7, 3.7524819e-7
0.085, 5.3199324e-7, 3.7960177e-7
0.084, 5.5188116e-7, 3.8667633e-7
0.083, 5.5643261e-7, 3.6682141e-7
0.082, 5.0512972e-7, 3.5217758e-7
0.081, 5.5964836e-7, 2.8242147e-7
0.080, 5.0676238e-7, 3.3806145e-7
0.079, 5.2676569e-7, 3.5381015e-7
0.078, 5.2076302e-7, 3.7472051e-7
0.077, 5.1810798e-7, 3.6353975e-7
0.076, 5.3611598e-7, 3.2458848e-7
0.075, 4.8388961e-7, 3.2640247e-7
0.074, 5.3108630e-7, 2.8036015e-7
0.073, 5.0331579e-7, 3.5577256e-7
0.072, 5.0067729e-7, 3.2425865e-7
0.071, 5.2142269e-7, 4.1571664e-7
0.070, 4.6787704e-7, 3.3669272e-7
0.069, 5.1947677e-7, 3.1449611e-7
0.068, 4.6240208e-7, 3.1007653e-7
0.067, 5.0483294e-7, 2.6263251e-7
0.066, 4.9352025e-7, 3.4279429e-7
0.065, 4.7653472e-7, 2.9061741e-7
0.064, 5.0232637e-7, 3.5765254e-7
0.063, 4.5224380e-7, 3.1800863e-7
0.062, 5.0531116e-7, 3.0676190e-7
0.061, 4.6002742e-7, 2.5623410e-7
0.060, 4.7432493e-7, 2.8200924e-7
0.059, 4.8199320e-7, 3.4231607e-7
0.058, 4.3405441e-7, 2.9523483e-7
0.057, 4.7112573e-7, 3.5221055e-7
0.056, 4.2839810e-7, 2.9061744e-7
0.055, 4.6217124e-7, 3.0479953e-7
0.054, 4.5115536e-7, 2.2848006e-7
0.053, 4.4826947e-7, 2.6759625e-7
0.052, 4.6294630e-7, 3.3059112e-7
0.051, 4.1344089e-7, 3.1708515e-7
0.050, 4.6548587e-7, 3.1711812e-7
0.049, 4.1543629e-7, 2.6596368e-7
0.048, 4.6896542e-7, 2.8576912e-7
0.047, 4.5582226e-7, 2.3098667e-7
0.046, 4.1692047e-7, 2.7264247e-7
0.045, 4.6444694e-7, 2.6499072e-7
0.044, 4.0054510e-7, 3.0638262e-7
0.043, 4.4729654e-7, 3.0949940e-7
0.042, 4.2712827e-7, 2.6642539e-7
0.041, 4.2392907e-7, 2.2913969e-7
0.040, 4.5188096e-7, 2.2922215e-7
0.039, 3.8867171e-7, 2.8278427e-7
0.038, 4.3954583e-7, 2.7135616e-7
0.037, 3.9497121e-7, 2.7813388e-7
0.036, 4.3088818e-7, 2.9459170e-7
0.035, 4.3738555e-7, 2.7450591e-7
0.034, 3.9061763e-7, 2.3842404e-7
0.033, 4.3853990e-7, 2.1207173e-7
0.032, 3.7590786e-7, 2.6947620e-7
0.031, 4.2595741e-7, 2.7348347e-7
0.030, 3.8651143e-7, 3.0874079e-7
0.029, 4.0733931e-7, 2.4234885e-7
0.028, 4.2340136e-7, 2.8599999e-7
0.027, 3.7970074e-7, 2.2297215e-7
0.026, 4.1921271e-7, 2.1246750e-7
0.025, 3.6784382e-7, 2.6527107e-7
0.024, 4.0643232e-7, 2.9106263e-7
0.023, 4.0521201e-7, 3.2686421e-7
0.022, 3.9254707e-7, 2.4556454e-7
0.021, 4.2028461e-7, 2.6045575e-7
0.020, 3.6825611e-7, 2.0747078e-7
0.019, 4.2082877e-7, 2.3768195e-7
0.018, 3.7041639e-7, 2.6477633e-7
0.017, 4.0136962e-7, 2.6693664e-7
0.016, 4.0506359e-7, 3.3238859e-7
0.015, 3.5606939e-7, 2.3674198e-7
0.014, 4.1319356e-7, 2.6253358e-7
0.013, 3.5732270e-7, 1.9973660e-7
0.012, 4.1126412e-7, 2.6421563e-7
0.011, 3.8685772e-7, 2.8125064e-7
0.010, 3.7975019e-7, 2.5016550e-7
0.009, 4.0443695e-7, 2.7447294e-7
0.008, 3.5930162e-7, 2.4094712e-7
0.007, 4.1617841e-7, 2.4939041e-7
0.006, 3.6457868e-7, 1.9426164e-7
0.005, 3.9281093e-7, 2.7234560e-7
0.004, 4.0475027e-7, 2.8101977e-7
0.003, 3.6942694e-7, 2.6001049e-7
0.002, 4.0461833e-7, 2.7595709e-7
0.001, 3.5245793e-7, 2.3044248e-7
-0.000, 3.9607610e-7, 2.7036671e-7
-0.001, 3.8354307e-7, 2.1944311e-7
-0.002, 3.9109585e-7, 2.3512587e-7
-0.003, 4.1078590e-7, 2.8172886e-7
-0.004, 3.5700938e-7, 3.0694332e-7
-0.005, 4.0857611e-7, 2.7691354e-7
-0.006, 3.6997116e-7, 2.3212453e-7
-0.007, 4.1301217e-7, 2.4914306e-7
-0.008, 4.0879050e-7, 2.2368124e-7
-0.009, 3.6988871e-7, 2.3809420e-7
-0.010, 4.0852666e-7, 2.6048872e-7
-0.011, 3.5638271e-7, 2.7861211e-7
-0.012, 3.9086501e-7, 2.7618796e-7
-0.013, 3.8914993e-7, 2.4851639e-7
-0.014, 3.7991509e-7, 2.3822614e-7
-0.015, 4.0747125e-7, 2.3375713e-7
-0.016, 3.5054501e-7, 2.5334819e-7
-0.017, 4.0018230e-7, 2.6523804e-7
-0.018, 3.5432140e-7, 2.7704550e-7
-0.019, 4.0958207e-7, 2.6162658e-7
-0.020, 4.1518894e-7, 2.5542604e-7
-0.021, 3.6916310e-7, 2.1164296e-7
-0.022, 4.1444684e-7, 1.9755981e-7
-0.023, 3.5427192e-7, 2.6362198e-7
-0.024, 4.0992836e-7, 2.6518859e-7
-0.025, 3.7648502e-7, 3.0880676e-7
-0.026, 3.8045931e-7, 2.5875721e-7
-0.027, 4.1706889e-7, 2.6175852e-7
-0.028, 3.7000413e-7, 2.2239496e-7
-0.029, 4.1495809e-7, 2.5080863e-7
-0.030, 3.6322643e-7, 2.4952232e-7
-0.031, 3.9840128e-7, 2.5760284e-7
-0.032, 4.0321660e-7, 3.1566694e-7
-0.033, 3.9708203e-7, 2.6020840e-7
-0.034, 4.2617182e-7, 2.4538315e-7
-0.035, 3.7386300e-7, 2.1960801e-7
-0.036, 4.2419293e-7, 2.1071946e-7
-0.037, 3.8285049e-7, 2.6299531e-7
-0.038, 3.9851676e-7, 2.4208498e-7
-0.039, 4.1899830e-7, 3.1312734e-7
-0.040, 3.7018555e-7, 2.7613848e-7
-0.041, 4.3176220e-7, 2.5486537e-7
-0.042, 3.8682475e-7, 2.1772807e-7
-0.043, 4.1926214e-7, 2.4338775e-7
-0.044, 4.0610249e-7, 2.8992480e-7
-0.045, 3.9751080e-7, 2.3974329e-7
-0.046, 4.3182814e-7, 3.0689384e-7
-0.047, 3.8303187e-7, 2.8448284e-7
-0.048, 4.4957227e-7, 2.6843728e-7
-0.049, 3.8985905e-7, 2.3538971e-7
-0.050, 4.2345084e-7, 2.1096685e-7
-0.051, 4.4139284e-7, 2.9187072e-7
-0.052, 3.9195339e-7, 2.7247754e-7
-0.053, 4.4823651e-7, 3.3477977e-7
-0.054, 3.8941380e-7, 2.8139905e-7
-0.055, 4.4805509e-7, 2.7833175e-7
-0.056, 4.2641915e-7, 2.6057117e-7
-0.057, 4.2635321e-7, 2.2923865e-7
-0.058, 4.4251419e-7, 3.0168275e-7
-0.059, 4.0311767e-7, 2.7533042e-7
-0.060, 4.6789353e-7, 3.3072303e-7
-0.061, 4.2526483e-7, 2.7920578e-7
-0.062, 4.5768576e-7, 2.6523807e-7
-0.063, 4.6085199e-7, 2.9452573e-7
-0.064, 4.2767243e-7, 2.0874057e-7
-0.065, 4.7086189e-7, 2.9053496e-7
-0.066, 4.0085843e-7, 2.7810091e-7
-0.067, 4.5661380e-7, 3.4845067e-7
-0.068, 4.4950627e-7, 3.0672894e-7
-0.069, 4.5907098e-7, 2.6367144e-7
-0.070, 4.7564424e-7, 2.8984235e-7
-0.071, 4.2435784e-7, 2.5278752e-7
-0.072, 4.8662707e-7, 3.0120452e-7
-0.073, 4.3489541e-7, 2.8482913e-7
-0.074, 4.8847403e-7, 3.4703243e-7
-0.075, 4.8491205e-7, 3.3725343e-7
-0.076, 4.5592122e-7, 2.7641883e-7
-0.077, 5.0580593e-7, 2.6233567e-7
-0.078, 4.5183151e-7, 2.4765887e-7
-0.079, 4.9516933e-7, 3.2035032e-7
-0.080, 4.7056506e-7, 3.1062075e-7
-0.081, 4.7782100e-7, 3.6598038e-7
-0.082, 5.2234617e-7, 3.2866168e-7
-0.083, 4.6695357e-7, 3.0047892e-7
-0.084, 5.2739233e-7, 2.7176844e-7
-0.085, 4.7152150e-7, 2.7785353e-7
-0.086, 5.1789368e-7, 3.1779427e-7
-0.087, 5.1647544e-7, 3.2971710e-7
-0.088, 4.9904469e-7, 3.4912676e-7
-0.089, 5.4305860e-7, 3.3116828e-7
-0.090, 4.8153140e-7, 3.1388595e-7
-0.091, 5.3761664e-7, 2.6659029e-7
-0.092, 4.9863240e-7, 2.7185089e-7
-0.093, 5.2833235e-7, 3.0150133e-7
-0.094, 5.3331257e-7, 3.6525478e-7
-0.095, 4.9365218e-7, 3.6753050e-7
-0.096, 5.5611929e-7, 3.5834512e-7
-0.097, 5.1876765e-7, 3.1198948e-7
-0.098, 5.5692738e-7, 2.9978631e-7
-0.099, 5.5506388e-7, 3.3355946e-7
-0.100, 5.4480665e-7, 3.4475670e-7
-0.101, 5.6487596e-7, 3.3987544e-7
-0.102, 5.2331910e-7, 3.8446657e-7
-0.103, 5.8172952e-7, 3.5961494e-7
-0.104, 5.5907117e-7, 3.4445986e-7
-0.105, 5.7996499e-7, 2.9915964e-7
-0.106, 5.7886012e-7, 3.3037674e-7
-0.107, 5.3405461e-7, 3.6337485e-7
-0.108, 6.0456932e-7, 3.7968425e-7
-0.109, 5.5300256e-7, 3.9678520e-7
-0.110, 5.9789056e-7, 3.8331220e-7
-0.111, 6.0506403e-7, 3.7495136e-7
-0.112, 5.9409763e-7, 3.0183116e-7
-0.113, 6.2333584e-7, 3.5069343e-7
-0.114, 5.7579291e-7, 3.6459517e-7
-0.115, 6.3466507e-7, 3.8741842e-7
-0.116, 5.9320712e-7, 4.1373772e-7
-0.117, 6.0867552e-7, 3.8933138e-7
-0.118, 6.4389985e-7, 3.9838483e-7
-0.119, 6.0209572e-7, 3.1198948e-7
-0.120, 6.4508720e-7, 3.3687411e-7
-0.121, 5.7894260e-7, 3.8514270e-7
-0.122, 6.4078313e-7, 4.1537035e-7
-0.123, 6.3308192e-7, 4.4741199e-7
-0.124, 6.3966172e-7, 3.8550550e-7
-0.125, 6.6537086e-7, 4.3092118e-7
-0.126, 6.2818413e-7, 3.3449945e-7
-0.127, 6.7747516e-7, 3.7650153e-7
-0.128, 6.3995856e-7, 3.8474690e-7
-0.129, 6.6683856e-7, 4.2096070e-7
-0.130, 6.7514998e-7, 4.7018580e-7
-0.131, 6.4629103e-7, 3.6185764e-7
-0.132, 6.9512032e-7, 4.0293628e-7
-0.133, 6.3623168e-7, 3.3959509e-7
-0.134, 6.7818428e-7, 4.1960848e-7
-0.135, 6.7600746e-7, 4.0895543e-7
-0.136, 6.5511364e-7, 4.2763949e-7
-0.137, 7.1680574e-7, 4.7270885e-7
-0.138, 6.5138670e-7, 4.0029772e-7
-0.139, 7.0844487e-7, 4.2726020e-7
-0.140, 6.7046653e-7, 3.4706542e-7
-0.141, 7.1238617e-7, 4.0648177e-7
-0.142, 7.1096792e-7, 4.3606627e-7
-0.143, 6.7655168e-7, 4.3517576e-7
-0.144, 7.2617252e-7, 4.3303197e-7
-0.145, 6.6241904e-7, 4.1550226e-7
-0.146, 7.2549636e-7, 4.4536711e-7
-0.147, 7.0104051e-7, 3.6154435e-7
-0.148, 7.1657485e-7, 4.1665663e-7
-0.149, 7.4317450e-7, 4.3481299e-7
-0.150, 6.8977727e-7, 4.4320680e-7
-0.151, 7.4484007e-7, 4.6541993e-7
-0.152, 7.0011697e-7, 4.0405763e-7
-0.153, 7.4300959e-7, 4.3478002e-7
-0.154, 7.2709594e-7, 4.0024827e-7
-0.155, 7.1824041e-7, 4.3222394e-7
-0.156, 7.4465868e-7, 4.3746800e-7
-0.157, 7.0066119e-7, 4.5544294e-7
-0.158, 7.5710921e-7, 4.7341797e-7
-0.159, 7.2327009e-7, 4.3705575e-7
-0.160, 7.4639019e-7, 3.8146527e-7
-0.161, 7.4919365e-7, 4.0570671e-7
-0.162, 7.0232682e-7, 4.6541993e-7
-0.163, 7.5976425e-7, 4.5377740e-7
-0.164, 7.2229716e-7, 4.7572667e-7
-0.165, 7.5140343e-7, 4.7089486e-7
-0.166, 7.5308549e-7, 4.7444038e-7
-0.167, 7.4805575e-7, 4.3501086e-7
-0.168, 7.7463892e-7, 3.8623108e-7
-0.169, 7.3346143e-7, 4.5969762e-7
-0.170, 7.7707955e-7, 4.6200631e-7
-0.171, 7.4507091e-7, 4.8804532e-7
-0.172, 7.7732693e-7, 4.4229984e-7
-0.173, 7.8624851e-7, 4.6901491e-7
-0.174, 7.4675302e-7, 4.3275162e-7
-0.175, 7.9772610e-7, 4.1172586e-7
-0.176, 7.4127809e-7, 4.6822333e-7
-0.177, 7.9533493e-7, 5.0064426e-7
-0.178, 7.8946420e-7, 5.3031124e-7
-0.179, 7.7712912e-7, 4.6609605e-7
-0.180, 8.0803284e-7, 4.7877745e-7
-0.181, 7.6047331e-7, 4.0428853e-7
-0.182, 8.2521626e-7, 4.4617516e-7
-0.183, 7.8370891e-7, 4.6909736e-7
-0.184, 7.9376832e-7, 4.9843453e-7
-0.185, 8.2536468e-7, 5.6212201e-7
-0.186, 7.8440155e-7, 4.3997460e-7
-0.187, 8.3629811e-7, 4.9213503e-7
-0.188, 7.7470497e-7, 4.1179180e-7
-0.189, 8.2773931e-7, 4.9216800e-7
-0.190, 8.1423332e-7, 4.9820363e-7
-0.191, 8.1657504e-7, 4.9434482e-7
-0.192, 8.5826377e-7, 5.5791685e-7
-0.193, 7.9211918e-7, 4.7940415e-7
-0.194, 8.7755802e-7, 4.9259677e-7
-0.195, 8.2635410e-7, 4.1718431e-7
-0.196, 8.8110357e-7, 5.0118848e-7
-0.197, 8.6009436e-7, 5.3512650e-7
-0.198, 8.3090555e-7, 5.0498136e-7
-0.199, 8.9586285e-7, 5.4157442e-7
-0.200, 8.3905206e-7, 4.9543314e-7
-0.201, 8.9851784e-7, 5.2735936e-7
-0.202, 8.8059244e-7, 4.6431506e-7
-0.203, 8.7147293e-7, 5.0593781e-7
-0.204, 9.1906543e-7, 5.2463838e-7
-0.205, 8.5945112e-7, 5.6791026e-7
-0.206, 9.3473170e-7, 5.5161735e-7
-0.207, 8.7994920e-7, 5.0626761e-7
-0.208, 9.1972504e-7, 5.0649851e-7
-0.209, 9.4503844e-7, 4.8944702e-7
-0.210, 8.7815170e-7, 5.4472417e-7
-0.211, 9.5740654e-7, 5.5128754e-7
-0.212, 8.9508779e-7, 6.0946707e-7
-0.213, 9.5387747e-7, 5.8890305e-7
-0.214, 9.3621577e-7, 5.5448675e-7
-0.215, 9.4564854e-7, 4.6358946e-7
-0.216, 9.8265400e-7, 5.4353683e-7
-0.217, 9.1367292e-7, 5.6504086e-7
-0.218, 9.9114663e-7, 5.7422619e-7
-0.219, 9.5249226e-7, 5.9439446e-7
-0.220, 9.9205363e-7, 5.6766288e-7
-0.221, 1.0114964e-6, 5.8971114e-7
-0.222, 9.8829378e-7, 5.0737253e-7
-0.223, 1.0220670e-6, 5.8347757e-7
-0.224, 9.6113354e-7, 5.8842483e-7
-0.225, 1.0350287e-6, 6.1875141e-7
-0.226, 1.0166580e-6, 6.4215186e-7
-0.227, 1.0197912e-6, 5.7894260e-7
-0.228, 1.0614305e-6, 6.0870849e-7
-0.229, 1.0026902e-6, 5.1418317e-7
-0.230, 1.0779048e-6, 5.9566423e-7
-0.231, 1.0211435e-6, 5.8171304e-7
-0.232, 1.0641349e-6, 6.3458253e-7
-0.233, 1.0812854e-6, 6.6685504e-7
-0.234, 1.0727432e-6, 6.0072693e-7
-0.235, 1.1083798e-6, 5.8126784e-7
-0.236, 1.0456323e-6, 5.5300256e-7
-0.237, 1.1241946e-6, 6.2989920e-7
-0.238, 1.0646957e-6, 6.2358322e-7
-0.239, 1.0982050e-6, 6.9294350e-7
-0.240, 1.1316154e-6, 7.1166056e-7
-0.241, 1.0922519e-6, 6.2218146e-7
-0.242, 1.1388878e-6, 5.9319069e-7
-0.243, 1.0877168e-6, 5.6922954e-7
-0.244, 1.1428456e-6, 6.7351738e-7
-0.245, 1.1604249e-6, 6.8964539e-7
-0.246, 1.1437526e-6, 6.9647251e-7
-0.247, 1.1757118e-6, 6.8682544e-7
-0.248, 1.1373047e-6, 6.6584914e-7
-0.249, 1.2027567e-6, 6.2061486e-7
-0.250, 1.1840232e-6, 6.4676931e-7
-0.251, 1.1941320e-6, 6.6827329e-7
-0.252, 1.2158504e-6, 7.2135720e-7
-0.253, 1.1498212e-6, 6.7818428e-7
-0.254, 1.2358537e-6, 6.6429902e-7
-0.255, 1.1628820e-6, 6.6992237e-7
-0.256, 1.2025257e-6, 6.3949682e-7
-0.257, 1.2267343e-6, 6.9952335e-7
-0.258, 1.1937362e-6, 6.7491908e-7
-0.259, 1.2512066e-6, 7.4855052e-7
-0.260, 1.2007118e-6, 7.1291390e-7
-0.261, 1.2539276e-6, 6.9403188e-7
-0.262, 1.2215728e-6, 6.5798304e-7
-0.263, 1.2553788e-6, 6.6025876e-7
-0.264, 1.2808077e-6, 7.4002480e-7
-0.265, 1.1954678e-6, 6.9970474e-7
-0.266, 1.2802634e-6, 7.5710921e-7
-0.267, 1.2059229e-6, 7.3295018e-7
-0.268, 1.2698908e-6, 7.1797660e-7
-0.269, 1.2509922e-6, 6.4939132e-7
-0.270, 1.2391024e-6, 6.8047643e-7
-0.271, 1.3039278e-6, 7.3578661e-7
-0.272, 1.2262396e-6, 7.2280841e-7
-0.273, 1.2930439e-6, 7.6924641e-7
-0.274, 1.2302303e-6, 7.0963222e-7
-0.275, 1.2950557e-6, 7.1675623e-7
-0.276, 1.2980075e-6, 6.8356024e-7
-0.277, 1.2540926e-6, 6.9648900e-7
-0.278, 1.2986177e-6, 7.0705966e-7
-0.279, 1.2248049e-6, 7.4840210e-7
-0.280, 1.2707648e-6, 7.6261711e-7
-0.281, 1.2611836e-6, 7.2124175e-7
-0.282, 1.2775920e-6, 6.4823695e-7
-0.283, 1.2966552e-6, 6.7295667e-7
-0.284, 1.2392674e-6, 7.4553270e-7
-0.285, 1.2722984e-6, 7.5399248e-7
-0.286, 1.2665266e-6, 7.7800303e-7
-0.287, 1.2751184e-6, 7.5506438e-7
-0.288, 1.2743762e-6, 7.5250830e-7
-0.289, 1.2608702e-6, 6.2389654e-7
-0.290, 1.2834296e-6, 6.7780496e-7
-0.291, 1.2234032e-6, 7.1959266e-7
-0.292, 1.2830669e-6, 7.6903206e-7
-0.293, 1.2499863e-6, 7.7955315e-7
-0.294, 1.2455009e-6, 7.0598776e-7
-0.295, 1.2781526e-6, 7.4711579e-7
-0.296, 1.2163287e-6, 6.4455952e-7
-0.297, 1.2865299e-6, 7.2406169e-7
-0.298, 1.2175160e-6, 7.2021930e-7
-0.299, 1.2553130e-6, 7.8072406e-7
-0.300, 1.2669883e-6, 7.7945424e-7
-0.301, 1.2385417e-6, 6.7882740e-7
-0.302, 1.2736341e-6, 7.0209592e-7
-0.303, 1.2033998e-6, 6.3974414e-7
-0.304, 1.2772786e-6, 7.2684861e-7
-0.305, 1.2180601e-6, 7.0005103e-7
-0.306, 1.2196267e-6, 7.6899914e-7
-0.307, 1.2474798e-6, 7.8205983e-7
-0.308, 1.2117441e-6, 6.6368887e-7
-0.309, 1.2456162e-6, 6.5560835e-7
-0.310, 1.1973641e-6, 6.7877789e-7
-0.311, 1.2278722e-6, 7.1815793e-7
-0.312, 1.2158998e-6, 7.5334935e-7
-0.313, 1.2022124e-6, 7.1350757e-7
-0.314, 1.2356888e-6, 7.3547329e-7
-0.315, 1.1791418e-6, 7.1781164e-7
-0.316, 1.2341386e-6, 6.3829299e-7
-0.317, 1.2138055e-6, 7.0771927e-7
-0.318, 1.2058733e-6, 7.1052273e-7
-0.319, 1.2193300e-6, 7.5856042e-7
-0.320, 1.1698576e-6, 7.1058867e-7
-0.321, 1.2177798e-6, 6.8718822e-7
-0.322, 1.1715231e-6, 7.0531155e-7
-0.323, 1.2089407e-6, 6.3426927e-7
-0.324, 1.1940165e-6, 7.1199042e-7
-0.325, 1.1508602e-6, 6.7119214e-7
-0.326, 1.2218695e-6, 7.3984336e-7
-0.327, 1.1480731e-6, 6.8789734e-7
-0.328, 1.2042904e-6, 6.9327336e-7
-0.329, 1.1575224e-6, 6.6269939e-7
-0.330, 1.1833965e-6, 6.0857656e-7
-0.331, 1.2012231e-6, 7.3692445e-7
-0.332, 1.1293891e-6, 7.1697059e-7
-0.333, 1.1972982e-6, 7.3840863e-7
-0.334, 1.1372387e-6, 7.0209592e-7
-0.335, 1.1972818e-6, 7.1306226e-7
-0.336, 1.1519155e-6, 6.3522572e-7
-0.337, 1.1504974e-6, 6.4363604e-7
-0.338, 1.1843200e-6, 7.1449699e-7
-0.339, 1.1174003e-6, 7.2467185e-7
-0.340, 1.1915595e-6, 7.6326035e-7
-0.341, 1.1428950e-6, 6.7879444e-7
-0.342, 1.1851445e-6, 6.9958929e-7
-0.343, 1.1874367e-6, 6.6889993e-7
-0.344, 1.1709294e-6, 7.0552596e-7
-0.345, 1.1812032e-6, 6.9441126e-7
-0.346, 1.1471167e-6, 7.6814160e-7
-0.347, 1.1728589e-6, 7.3600103e-7
-0.348, 1.1634261e-6, 7.1649237e-7
-0.349, 1.1719189e-6, 6.8981024e-7
-0.350, 1.1851610e-6, 6.6927925e-7
-0.351, 1.1342704e-6, 7.0742249e-7
-0.352, 1.1724796e-6, 7.1167710e-7
-0.353, 1.1609195e-6, 7.7209938e-7
-0.354, 1.1817639e-6, 7.3606697e-7
-0.355, 1.1969025e-6, 7.4190473e-7
-0.356, 1.1647454e-6, 6.6446387e-7
-0.357, 1.1968200e-6, 7.0328326e-7
-0.358, 1.1485844e-6, 7.3138358e-7
-0.359, 1.2048511e-6, 7.5404193e-7
-0.360, 1.1850291e-6, 7.7920691e-7
-0.361, 1.1847158e-6, 7.3115268e-7
-0.362, 1.2170046e-6, 7.6631113e-7
-0.363, 1.1797190e-6, 6.5644940e-7
-0.364, 1.2390035e-6, 7.3214210e-7
-0.365, 1.1744750e-6, 7.1238617e-7
-0.366, 1.2222982e-6, 7.8168057e-7
-0.367, 1.2413452e-6, 7.9370238e-7
-0.368, 1.2163122e-6, 7.1974102e-7
-0.369, 1.2583637e-6, 7.8689163e-7
-0.370, 1.1935878e-6, 6.9132744e-7
-0.371, 1.2519982e-6, 7.6898260e-7
-0.372, 1.2259097e-6, 7.3299969e-7
-0.373, 1.2425654e-6, 7.8174651e-7
-0.374, 1.2615958e-6, 8.2894314e-7
-0.375, 1.2458802e-6, 7.1629449e-7
-0.376, 1.2755306e-6, 7.3870547e-7
-0.377, 1.2296862e-6, 6.9576345e-7
-0.378, 1.2686869e-6, 7.9549977e-7
-0.379, 1.2676975e-6, 7.7811853e-7
-0.380, 1.2609032e-6, 7.8212577e-7
-0.381, 1.3020478e-6, 8.3822749e-7
-0.382, 1.2569290e-6, 7.7899256e-7
-0.383, 1.3088420e-6, 7.7838234e-7
-0.384, 1.2686374e-6, 7.3065797e-7
-0.385, 1.3176151e-6, 8.0633424e-7
-0.386, 1.3172688e-6, 8.2668396e-7
-0.387, 1.2864310e-6, 8.5973147e-7
-0.388, 1.3289443e-6, 7.8530854e-7
-0.389, 1.2930439e-6, 8.1771293e-7
-0.390, 1.3570447e-6, 7.8471481e-7
-0.391, 1.3256956e-6, 7.8088897e-7
-0.392, 1.3138553e-6, 8.1515691e-7
-0.393, 1.3712761e-6, 8.5595514e-7
-0.394, 1.3185386e-6, 8.5776912e-7
-0.395, 1.3734530e-6, 8.2653548e-7
-0.396, 1.3456331e-6, 8.1997217e-7
-0.397, 1.3758277e-6, 7.6228736e-7
-0.398, 1.3921865e-6, 8.4380144e-7
-0.399, 1.3506133e-6, 8.2825056e-7
-0.400, 1.4077868e-6, 8.6260087e-7
-0.401, 1.3523613e-6, 9.0151912e-7
-0.402, 1.3986180e-6, 8.6373882e-7
-0.403, 1.3788949e-6, 8.5161798e-7
-0.404, 1.4020151e-6, 7.6227082e-7
-0.405, 1.4247723e-6, 9.0028237e-7
-0.406, 1.3659001e-6, 8.5330009e-7
-0.407, 1.4313191e-6, 8.9228433e-7
-0.408, 1.4021964e-6, 8.8168076e-7
-0.409, 1.4379980e-6, 8.5531190e-7
-0.410, 1.4356069e-6, 9.1293083e-7
-0.411, 1.4361840e-6, 7.8351098e-7
-0.412, 1.4744262e-6, 8.8816171e-7
-0.413, 1.4235520e-6, 8.5298677e-7
-0.414, 1.4592877e-6, 9.2023618e-7
-0.415, 1.4370910e-6, 9.1779560e-7
-0.416, 1.4440172e-6, 8.8695776e-7
-0.417, 1.4772131e-6, 9.2012084e-7
-0.418, 1.4234531e-6, 8.1034153e-7
-0.419, 1.4800989e-6, 9.1517359e-7
-0.420, 1.4192644e-6, 8.9170715e-7
-0.421, 1.4760258e-6, 9.6154577e-7
-0.422, 1.4718371e-6, 9.5028253e-7
-0.423, 1.4731893e-6, 8.6011073e-7
-0.424, 1.5015205e-6, 8.6880146e-7
-0.425, 1.4488160e-6, 8.4615954e-7
-0.426, 1.5119263e-6, 9.2427649e-7
-0.427, 1.4633774e-6, 9.1030876e-7
-0.428, 1.4687698e-6, 9.6777921e-7
-0.429, 1.4987666e-6, 9.8361045e-7
-0.430, 1.4757784e-6, 8.6997227e-7
-0.431, 1.5012567e-6, 8.5981395e-7
-0.432, 1.4584136e-6, 8.6586607e-7
-0.433, 1.4921538e-6, 9.3461625e-7
-0.434, 1.4852442e-6, 9.3347836e-7
-0.435, 1.4775759e-6, 9.4825418e-7
-0.436, 1.5030872e-6, 9.5480095e-7
-0.437, 1.4629320e-6, 9.2257795e-7
-0.438, 1.5169229e-6, 8.5872557e-7
-0.439, 1.4876352e-6, 8.5809893e-7
-0.440, 1.4979256e-6, 9.1345856e-7
-0.441, 1.4897955e-6, 9.6985707e-7
-0.442, 1.4641689e-6, 9.5882467e-7
-0.443, 1.5004321e-6, 9.0491625e-7
-0.444, 1.4518008e-6, 9.0565840e-7
-0.445, 1.5015864e-6, 8.7554622e-7
-0.446, 1.4907191e-6, 9.0130482e-7
-0.447, 1.4608706e-6, 9.0278900e-7
-0.448, 1.5082323e-6, 9.3652915e-7
-0.449, 1.4380309e-6, 9.4068480e-7
-0.450, 1.4894988e-6, 9.1533849e-7
-0.451, 1.4556431e-6, 8.8708975e-7
-0.452, 1.4700066e-6, 8.4406520e-7
-0.453, 1.4975628e-6, 9.0623558e-7
-0.454, 1.4315666e-6, 8.9822100e-7
-0.455, 1.4796537e-6, 9.0889063e-7
-0.456, 1.4275759e-6, 9.3723827e-7
-0.457, 1.4693635e-6, 9.0750535e-7
-0.458, 1.4523450e-6, 8.9335629e-7
-0.459, 1.4309894e-6, 8.1088569e-7
-0.460, 1.4578200e-6, 8.9921048e-7
-0.461, 1.4000526e-6, 8.9830348e-7
-0.462, 1.4518998e-6, 9.0320128e-7
-0.463, 1.4073416e-6, 8.9320775e-7
-0.464, 1.4321108e-6, 8.6578365e-7
-0.465, 1.4335290e-6, 9.0356411e-7
-0.466, 1.4042083e-6, 8.0181582e-7
-0.467, 1.4345844e-6, 8.6880141e-7
-0.468, 1.3795052e-6, 8.6293073e-7
-0.469, 1.4138059e-6, 8.8407188e-7
-0.470, 1.3781198e-6, 9.0376199e-7
-0.471, 1.3875526e-6, 8.2275909e-7
-0.472, 1.4090401e-6, 8.7529878e-7
-0.473, 1.3475460e-6, 7.7965211e-7
-0.474, 1.3972987e-6, 8.5109036e-7
-0.475, 1.3438355e-6, 8.3642999e-7
-0.476, 1.3640532e-6, 8.5113982e-7
-0.477, 1.3527900e-6, 8.7153887e-7
-0.478, 1.3447425e-6, 7.9825384e-7
-0.479, 1.3506133e-6, 8.2683232e-7
-0.480, 1.3045708e-6, 7.5570750e-7
-0.481, 1.3686542e-6, 8.2434218e-7
-0.482, 1.2955504e-6, 8.0950053e-7
-0.483, 1.3100953e-6, 8.3164764e-7
-0.484, 1.3136408e-6, 8.6146304e-7
-0.485, 1.2709131e-6, 7.7462249e-7
-0.486, 1.3124040e-6, 8.0024915e-7
-0.487, 1.2481888e-6, 7.1428263e-7
-0.488, 1.2832812e-6, 7.9093189e-7
-0.489, 1.2612331e-6, 8.0653217e-7
-0.490, 1.2494257e-6, 7.6611320e-7
-0.491, 1.2730735e-6, 8.2762386e-7
-0.492, 1.2046861e-6, 7.6228730e-7
-0.493, 1.2563847e-6, 7.5814819e-7
-0.494, 1.2024764e-6, 6.7203314e-7
-0.495, 1.2229743e-6, 7.4965538e-7
-0.496, 1.2095344e-6, 7.9066803e-7
-0.497, 1.1697091e-6, 7.4774249e-7
-0.498, 1.1915924e-6, 7.6627811e-7
-0.499, 1.1445277e-6, 7.2595810e-7
-0.500, 1.1785646e-6, 7.2864611e-7
