Dec. 9, 2005   02:33:21
Square Wave Voltammetry
File: d:\ida_biofilms\11_28_18_blankidapyo\50um_transfer\50um_pyo_transfer_swv_35.txt
Data Source:  Experiment
Instrument Model:  CHI760B
Header: 
Note: 

Init E (V) = 0.1
Final E (V) = -0.5
Incr E (V) = 0.001
Amplitude (V) = 0.025
Frequency (Hz) = 300
Quiet Time (sec) = 2
Sensitivity (A/V) = 1e-6
Sens 2 (A/V) = 1e-6

Potential/V, i1/A, i2/A

0.099, 6.4060174e-7, 3.6391901e-7
0.098, 6.2420986e-7, 4.5541003e-7
0.097, 6.4528513e-7, 4.2699634e-7
0.096, 6.2524873e-7, 4.1391917e-7
0.095, 6.4953974e-7, 4.0067704e-7
0.094, 5.9947365e-7, 4.2554518e-7
0.093, 6.3388995e-7, 4.3512631e-7
0.092, 6.0273885e-7, 4.5686119e-7
0.091, 6.0320059e-7, 4.3245478e-7
0.090, 6.1716827e-7, 4.4330577e-7
0.089, 5.9027178e-7, 3.7514928e-7
0.088, 6.1619534e-7, 3.4925870e-7
0.087, 5.6861938e-7, 3.9779115e-7
0.086, 6.0067748e-7, 3.9843428e-7
0.085, 5.7971766e-7, 4.1878394e-7
0.084, 5.6687134e-7, 3.9503718e-7
0.083, 5.9825334e-7, 4.0943365e-7
0.082, 5.4142606e-7, 3.8003054e-7
0.081, 5.8360945e-7, 3.2539651e-7
0.080, 5.4241548e-7, 3.8705562e-7
0.079, 5.7859631e-7, 3.7531419e-7
0.078, 5.7735951e-7, 4.2249437e-7
0.077, 5.2420961e-7, 3.7950286e-7
0.076, 5.7298939e-7, 3.3590115e-7
0.075, 5.2206582e-7, 3.5748764e-7
0.074, 5.5268924e-7, 3.1939388e-7
0.073, 5.3311464e-7, 3.7097709e-7
0.072, 5.0442065e-7, 3.4944009e-7
0.071, 5.6687134e-7, 3.9248110e-7
0.070, 4.9884676e-7, 3.7930494e-7
0.069, 5.5011668e-7, 3.2836488e-7
0.068, 4.9233290e-7, 3.3995792e-7
0.067, 5.4076639e-7, 2.8956200e-7
0.066, 5.4206919e-7, 3.6757999e-7
0.065, 4.8662707e-7, 3.4071647e-7
0.064, 5.2663376e-7, 3.6662351e-7
0.063, 4.6439749e-7, 3.5842760e-7
0.062, 5.1250117e-7, 3.2077912e-7
0.061, 4.8603340e-7, 3.2683124e-7
0.060, 4.8829270e-7, 2.4663646e-7
0.059, 5.2416016e-7, 3.2330217e-7
0.058, 4.5369495e-7, 3.3299878e-7
0.057, 5.1434813e-7, 3.5564065e-7
0.056, 4.4973717e-7, 3.7282405e-7
0.055, 4.9469111e-7, 3.1497433e-7
0.054, 4.8764952e-7, 3.3042622e-7
0.053, 4.6546938e-7, 2.6533701e-7
0.052, 4.8451625e-7, 3.2293940e-7
0.051, 4.3794626e-7, 3.1997104e-7
0.050, 4.8191072e-7, 3.3285033e-7
0.049, 4.4995153e-7, 3.4196978e-7
0.048, 4.7575966e-7, 2.7816685e-7
0.047, 4.6794304e-7, 3.0756996e-7
0.046, 4.1898181e-7, 2.5212790e-7
0.045, 4.7724382e-7, 2.6878359e-7
0.044, 4.1809130e-7, 3.0752051e-7
0.043, 4.5514616e-7, 3.2590773e-7
0.042, 4.4729654e-7, 3.7745798e-7
0.041, 4.4657094e-7, 2.6978952e-7
0.040, 4.6591467e-7, 3.0023153e-7
0.039, 4.0686109e-7, 2.5565691e-7
0.038, 4.5961514e-7, 2.5577236e-7
0.037, 4.1607944e-7, 3.0433776e-7
0.036, 4.3712168e-7, 3.2257657e-7
0.035, 4.6174247e-7, 3.7303843e-7
0.034, 4.0842772e-7, 2.8735224e-7
0.033, 4.6053864e-7, 2.8751714e-7
0.032, 3.9083204e-7, 2.1884944e-7
0.031, 4.4150826e-7, 2.3873736e-7
0.030, 4.3161378e-7, 2.9500399e-7
0.029, 4.2923909e-7, 2.7145509e-7
0.028, 4.4607620e-7, 3.5516240e-7
0.027, 3.9043624e-7, 2.5940034e-7
0.026, 4.5621806e-7, 2.8383971e-7
0.025, 4.0539339e-7, 2.4203550e-7
0.024, 4.3019560e-7, 2.2942004e-7
0.023, 4.2519883e-7, 3.1410030e-7
0.022, 3.9137620e-7, 2.7603954e-7
0.021, 4.3895218e-7, 3.3929825e-7
0.020, 3.7739201e-7, 2.7260944e-7
0.019, 4.2882681e-7, 2.8791294e-7
0.018, 4.0324960e-7, 2.2702889e-7
0.017, 4.0824631e-7, 2.0313369e-7
0.016, 4.3199304e-7, 3.1142881e-7
0.015, 3.7495138e-7, 2.6698609e-7
0.014, 4.2386310e-7, 3.1047233e-7
0.013, 3.9038679e-7, 2.4098011e-7
0.012, 4.3344423e-7, 2.7209825e-7
0.011, 4.2389607e-7, 2.5821299e-7
0.010, 3.7735902e-7, 2.0921883e-7
0.009, 4.3275162e-7, 2.6983901e-7
0.008, 3.5691045e-7, 2.6510614e-7
0.007, 4.2293962e-7, 3.1433120e-7
0.006, 3.8174559e-7, 3.0280412e-7
0.005, 4.0372782e-7, 2.4851641e-7
0.004, 4.2709530e-7, 2.6754677e-7
0.003, 3.5925211e-7, 2.0712447e-7
0.002, 4.1894884e-7, 2.7508307e-7
0.001, 3.5719080e-7, 2.4637259e-7
-0.000, 4.0707545e-7, 2.9427838e-7
-0.001, 4.0684458e-7, 2.8786343e-7
-0.002, 3.9124427e-7, 2.4906058e-7
-0.003, 4.2399500e-7, 2.3143193e-7
-0.004, 3.5981282e-7, 2.1334151e-7
-0.005, 4.2166982e-7, 2.7448939e-7
-0.006, 3.6934449e-7, 2.6187396e-7
-0.007, 3.9337164e-7, 2.6898147e-7
-0.008, 4.1015926e-7, 3.1068674e-7
-0.009, 3.6967430e-7, 2.5255662e-7
-0.010, 4.1787692e-7, 2.5773477e-7
-0.011, 3.7430823e-7, 1.9868119e-7
-0.012, 4.0155103e-7, 2.7890894e-7
-0.013, 3.8923241e-7, 2.8125064e-7
-0.014, 3.9325619e-7, 2.8646173e-7
-0.015, 4.0082546e-7, 2.8689050e-7
-0.016, 3.6485898e-7, 2.5847683e-7
-0.017, 4.1162690e-7, 2.3827560e-7
-0.018, 3.7778779e-7, 2.1820631e-7
-0.019, 4.0610252e-7, 2.7493468e-7
-0.020, 3.8656088e-7, 2.7384624e-7
-0.021, 3.4652123e-7, 2.9630672e-7
-0.022, 4.0722387e-7, 2.8446635e-7
-0.023, 3.7025148e-7, 2.4089766e-7
-0.024, 4.0938420e-7, 2.7190035e-7
-0.025, 3.9216778e-7, 2.3266873e-7
-0.026, 3.8214137e-7, 2.5694317e-7
-0.027, 4.1245147e-7, 2.7335153e-7
-0.028, 3.7112551e-7, 2.8816027e-7
-0.029, 4.1827269e-7, 2.8595051e-7
-0.030, 3.8158066e-7, 2.4488841e-7
-0.031, 4.0290331e-7, 2.3621425e-7
-0.032, 4.1111571e-7, 2.4078219e-7
-0.033, 3.7366510e-7, 2.6207181e-7
-0.034, 4.1319353e-7, 2.7549535e-7
-0.035, 3.5903776e-7, 2.7100984e-7
-0.036, 4.1065397e-7, 2.9497096e-7
-0.037, 3.9995143e-7, 2.6634297e-7
-0.038, 3.9617504e-7, 2.5146824e-7
-0.039, 4.2551218e-7, 2.5255665e-7
-0.040, 3.7444016e-7, 2.7993138e-7
-0.041, 4.2374765e-7, 2.7478623e-7
-0.042, 3.8100350e-7, 2.8492809e-7
-0.043, 4.2970083e-7, 2.8598350e-7
-0.044, 4.2081228e-7, 2.9559766e-7
-0.045, 3.9770867e-7, 2.1978941e-7
-0.046, 4.3418635e-7, 2.1090088e-7
-0.047, 3.8164666e-7, 2.7129016e-7
-0.048, 4.1946004e-7, 2.8591754e-7
-0.049, 4.1617841e-7, 2.8672559e-7
-0.050, 4.1215463e-7, 2.7333505e-7
-0.051, 4.4271209e-7, 2.8438387e-7
-0.052, 3.8430167e-7, 2.6698609e-7
-0.053, 4.4032092e-7, 2.1650774e-7
-0.054, 4.0435447e-7, 2.8377372e-7
-0.055, 4.3204255e-7, 2.7948613e-7
-0.056, 4.4370154e-7, 3.1589781e-7
-0.057, 4.0412363e-7, 2.8661015e-7
-0.058, 4.5529455e-7, 2.5674530e-7
-0.059, 4.0001737e-7, 2.4755994e-7
-0.060, 4.5260657e-7, 2.4335475e-7
-0.061, 4.2427536e-7, 2.9309103e-7
-0.062, 4.1974039e-7, 2.7752372e-7
-0.063, 4.6340807e-7, 3.2693015e-7
-0.064, 4.0539339e-7, 2.9193669e-7
-0.065, 4.5287044e-7, 2.7782053e-7
-0.066, 4.0760318e-7, 2.8576912e-7
-0.067, 4.5402476e-7, 2.4170569e-7
-0.068, 4.5775170e-7, 3.1573290e-7
-0.069, 4.1693693e-7, 2.8908374e-7
-0.070, 4.6512309e-7, 3.1007653e-7
-0.071, 4.0816388e-7, 2.9864844e-7
-0.072, 4.7091135e-7, 2.9276123e-7
-0.073, 4.3588489e-7, 2.6035679e-7
-0.074, 4.4518572e-7, 2.1879997e-7
-0.075, 4.6860265e-7, 3.3210827e-7
-0.076, 4.2536374e-7, 2.9137598e-7
-0.077, 4.7542983e-7, 3.2231273e-7
-0.078, 4.3027802e-7, 3.0437073e-7
-0.079, 4.7000435e-7, 2.9183775e-7
-0.080, 4.6903142e-7, 3.2635299e-7
-0.081, 4.6908087e-7, 2.3726966e-7
-0.082, 4.8186126e-7, 2.9690040e-7
-0.083, 4.3421932e-7, 3.1317683e-7
-0.084, 4.8924915e-7, 3.3247107e-7
-0.085, 4.4897860e-7, 3.2547896e-7
-0.086, 4.7648524e-7, 3.0410689e-7
-0.087, 4.9556508e-7, 3.2018542e-7
-0.088, 4.4516918e-7, 2.5638252e-7
-0.089, 5.0997807e-7, 3.3364191e-7
-0.090, 4.5224377e-7, 2.9876387e-7
-0.091, 5.0064426e-7, 3.4772506e-7
-0.092, 4.9312445e-7, 3.6809121e-7
-0.093, 4.8741867e-7, 3.0183116e-7
-0.094, 5.2536399e-7, 3.1266563e-7
-0.095, 4.6484274e-7, 2.6274796e-7
-0.096, 5.3575320e-7, 3.3341104e-7
-0.097, 4.9259677e-7, 3.2107593e-7
-0.098, 5.0737253e-7, 3.5910369e-7
-0.099, 5.3111927e-7, 3.6974029e-7
-0.100, 4.8400500e-7, 3.1258315e-7
-0.101, 5.4121165e-7, 3.3435100e-7
-0.102, 4.7630385e-7, 2.6174203e-7
-0.103, 5.4033762e-7, 3.4714787e-7
-0.104, 5.2427561e-7, 3.4668614e-7
-0.105, 5.2163705e-7, 3.3835829e-7
-0.106, 5.5259034e-7, 4.0496465e-7
-0.107, 5.0046287e-7, 3.3044270e-7
-0.108, 5.7079615e-7, 3.3509309e-7
-0.109, 5.1896558e-7, 2.7843072e-7
-0.110, 5.6764640e-7, 3.3707198e-7
-0.111, 5.5123803e-7, 3.8219082e-7
-0.112, 5.4266280e-7, 3.5545924e-7
-0.113, 5.8428566e-7, 3.7227986e-7
-0.114, 5.2528151e-7, 3.2777118e-7
-0.115, 5.7064773e-7, 3.6632667e-7
-0.116, 5.6401842e-7, 2.9253033e-7
-0.117, 5.5885681e-7, 3.3796249e-7
-0.118, 5.9573023e-7, 3.7124093e-7
-0.119, 5.4076639e-7, 3.7503384e-7
-0.120, 5.9500462e-7, 4.0717441e-7
-0.121, 5.5841156e-7, 3.4671913e-7
-0.122, 6.0689450e-7, 3.5870795e-7
-0.123, 6.0316756e-7, 3.3984247e-7
-0.124, 5.6271563e-7, 3.3644534e-7
-0.125, 6.1532126e-7, 3.6391901e-7
-0.126, 5.5310153e-7, 3.7879374e-7
-0.127, 6.1065441e-7, 4.1139603e-7
-0.128, 5.7773877e-7, 3.7180163e-7
-0.129, 5.9253102e-7, 3.5989527e-7
-0.130, 6.3964524e-7, 3.3957861e-7
-0.131, 5.7773877e-7, 3.5430489e-7
-0.132, 6.3588533e-7, 3.7739201e-7
-0.133, 5.7524869e-7, 3.9112885e-7
-0.134, 6.1730020e-7, 4.3329584e-7
-0.135, 6.3059179e-7, 4.2165334e-7
-0.136, 6.0669663e-7, 3.5977985e-7
-0.137, 6.4173958e-7, 3.2569335e-7
-0.138, 5.8903493e-7, 3.6157735e-7
-0.139, 6.2984969e-7, 3.9742832e-7
-0.140, 6.0996183e-7, 4.1043955e-7
-0.141, 6.2669994e-7, 4.0547587e-7
-0.142, 6.4032133e-7, 4.0827928e-7
-0.143, 5.9185493e-7, 3.9117833e-7
-0.144, 6.4777521e-7, 3.4201923e-7
-0.145, 6.0663069e-7, 3.5125410e-7
-0.146, 6.3989262e-7, 4.1725028e-7
-0.147, 6.2838205e-7, 4.4073317e-7
-0.148, 6.3497828e-7, 4.3545614e-7
-0.149, 6.4731347e-7, 4.2007019e-7
-0.150, 6.1906474e-7, 4.0423905e-7
-0.151, 6.6583266e-7, 3.4617491e-7
-0.152, 6.3760035e-7, 3.8382342e-7
-0.153, 6.4709911e-7, 4.0470081e-7
-0.154, 6.6314465e-7, 4.4548256e-7
-0.155, 6.2180220e-7, 4.6083545e-7
-0.156, 6.8019608e-7, 4.3626417e-7
-0.157, 6.2607330e-7, 4.0158403e-7
-0.158, 6.7849760e-7, 3.7008658e-7
-0.159, 6.5422313e-7, 3.8179508e-7
-0.160, 6.5268944e-7, 4.0597058e-7
-0.161, 6.9683540e-7, 4.3995811e-7
-0.162, 6.2709569e-7, 4.6001094e-7
-0.163, 6.9742902e-7, 4.3598385e-7
-0.164, 6.7028515e-7, 4.0315064e-7
-0.165, 6.5188141e-7, 3.9335509e-7
-0.166, 7.0178260e-7, 4.3052540e-7
-0.167, 6.4361950e-7, 3.9821990e-7
-0.168, 7.0432219e-7, 4.3924899e-7
-0.169, 6.4178903e-7, 4.6441397e-7
-0.170, 6.9251473e-7, 4.6020884e-7
-0.171, 6.9038742e-7, 4.3384006e-7
-0.172, 6.8364272e-7, 3.5087481e-7
-0.173, 7.1824041e-7, 4.1045610e-7
-0.174, 6.7434189e-7, 4.4737897e-7
-0.175, 7.1443105e-7, 4.7051560e-7
-0.176, 6.8120210e-7, 4.7846413e-7
-0.177, 7.0471793e-7, 4.6170948e-7
-0.178, 7.2063153e-7, 4.6134670e-7
-0.179, 6.9287751e-7, 3.7658396e-7
-0.180, 7.3812834e-7, 4.1126412e-7
-0.181, 6.7747510e-7, 4.3928202e-7
-0.182, 7.1749832e-7, 4.5283747e-7
-0.183, 7.1558543e-7, 4.9668648e-7
-0.184, 7.0951677e-7, 4.5140274e-7
-0.185, 7.5697733e-7, 4.4467450e-7
-0.186, 6.9493888e-7, 4.0061107e-7
-0.187, 7.5204656e-7, 3.9807148e-7
-0.188, 7.0310188e-7, 4.5672928e-7
-0.189, 7.5742258e-7, 4.4642252e-7
-0.190, 7.6128140e-7, 5.1941083e-7
-0.191, 7.1909790e-7, 4.6819036e-7
-0.192, 7.8598464e-7, 4.3529121e-7
-0.193, 7.1604711e-7, 4.4838492e-7
-0.194, 7.6385396e-7, 4.2613880e-7
-0.195, 7.4126160e-7, 4.6576625e-7
-0.196, 7.3722128e-7, 4.4904456e-7
-0.197, 7.9579661e-7, 5.3100382e-7
-0.198, 7.3497858e-7, 4.6507358e-7
-0.199, 8.0135408e-7, 4.6710198e-7
-0.200, 7.4921013e-7, 4.6200631e-7
-0.201, 7.9078347e-7, 4.3235582e-7
-0.202, 8.0235998e-7, 5.0737253e-7
-0.203, 7.6636053e-7, 4.6899842e-7
-0.204, 8.1520636e-7, 5.0712515e-7
-0.205, 7.5536116e-7, 5.0945033e-7
-0.206, 8.2340227e-7, 4.7404461e-7
-0.207, 7.9310865e-7, 4.9365212e-7
-0.208, 8.0857700e-7, 3.9749432e-7
-0.209, 8.3692470e-7, 5.2028480e-7
-0.210, 7.7681574e-7, 4.9380060e-7
-0.211, 8.4218522e-7, 5.5603687e-7
-0.212, 8.1020960e-7, 5.2142269e-7
-0.213, 8.3957968e-7, 4.9033747e-7
-0.214, 8.5046361e-7, 5.4256390e-7
-0.215, 8.4709956e-7, 4.2551221e-7
-0.216, 8.7145645e-7, 5.1147873e-7
-0.217, 8.2142333e-7, 5.1576632e-7
-0.218, 8.7366618e-7, 5.4058501e-7
-0.219, 8.4988653e-7, 5.6429877e-7
-0.220, 8.7102768e-7, 5.0315089e-7
-0.221, 8.9665446e-7, 5.5229344e-7
-0.222, 8.3047678e-7, 4.6136319e-7
-0.223, 9.0694471e-7, 5.4459224e-7
-0.224, 8.5832977e-7, 5.2251107e-7
-0.225, 9.0504818e-7, 5.6624469e-7
-0.226, 8.9086609e-7, 6.0171641e-7
-0.227, 8.9640702e-7, 5.0443714e-7
-0.228, 9.5442169e-7, 5.4411402e-7
-0.229, 8.7714579e-7, 4.9394902e-7
-0.230, 9.5788482e-7, 5.4076639e-7
-0.231, 8.9734704e-7, 5.6728356e-7
-0.232, 9.1129823e-7, 5.8209235e-7
-0.233, 9.6377198e-7, 6.5903839e-7
-0.234, 9.0790115e-7, 5.1947677e-7
-0.235, 9.7465590e-7, 5.7956925e-7
-0.236, 8.9799016e-7, 5.0105655e-7
-0.237, 9.7444149e-7, 5.7374803e-7
-0.238, 9.7696466e-7, 5.9564780e-7
-0.239, 9.6009444e-7, 5.8354351e-7
-0.240, 1.0042897e-6, 6.6977395e-7
-0.241, 9.5224493e-7, 5.7325326e-7
-0.242, 1.0267173e-6, 5.9620851e-7
-0.243, 9.8481428e-7, 5.1142928e-7
-0.244, 1.0010906e-6, 5.2894245e-7
-0.245, 1.0139040e-6, 6.5036426e-7
-0.246, 9.6665781e-7, 5.8713852e-7
-0.247, 1.0330003e-6, 6.5414065e-7
-0.248, 9.7185250e-7, 5.8301583e-7
-0.249, 1.0438513e-6, 6.1617880e-7
-0.250, 1.0475948e-6, 5.9261350e-7
-0.251, 1.0181092e-6, 5.1253414e-7
-0.252, 1.0640194e-6, 6.5128779e-7
-0.253, 9.8750229e-7, 6.3735303e-7
-0.254, 1.0642834e-6, 6.7752461e-7
-0.255, 1.0265854e-6, 6.4502126e-7
-0.256, 1.0805599e-6, 6.1721778e-7
-0.257, 1.0884424e-6, 5.9957262e-7
-0.258, 1.0282674e-6, 5.4930865e-7
-0.259, 1.0953851e-6, 6.2188468e-7
-0.260, 1.0109686e-6, 6.2884374e-7
-0.261, 1.0836436e-6, 6.8791383e-7
-0.262, 1.0685710e-6, 6.6883399e-7
-0.263, 1.0641020e-6, 6.1913067e-7
-0.264, 1.1296199e-6, 6.1612934e-7
-0.265, 1.0495901e-6, 5.4657113e-7
-0.266, 1.1195441e-6, 6.5991242e-7
-0.267, 1.0529212e-6, 6.3807863e-7
-0.268, 1.0984523e-6, 6.7767303e-7
-0.269, 1.1114637e-6, 7.2595810e-7
-0.270, 1.0832973e-6, 6.1952647e-7
-0.271, 1.1369914e-6, 6.5707604e-7
-0.272, 1.0624200e-6, 5.9188790e-7
-0.273, 1.1254148e-6, 6.6535443e-7
-0.274, 1.0885414e-6, 6.4718154e-7
-0.275, 1.0909655e-6, 6.6184191e-7
-0.276, 1.1288614e-6, 7.0923642e-7
-0.277, 1.0741119e-6, 6.3941434e-7
-0.278, 1.1475620e-6, 6.2803571e-7
-0.279, 1.1050981e-6, 5.8080605e-7
-0.280, 1.1329181e-6, 6.6797645e-7
-0.281, 1.1140858e-6, 6.8786431e-7
-0.282, 1.1041911e-6, 6.8220800e-7
-0.283, 1.1232710e-6, 6.8639667e-7
-0.284, 1.0907181e-6, 6.5729040e-7
-0.285, 1.1613977e-6, 6.5234315e-7
-0.286, 1.1105897e-6, 5.9009039e-7
-0.287, 1.1138548e-6, 6.4863275e-7
-0.288, 1.1509920e-6, 6.8204309e-7
-0.289, 1.0749200e-6, 6.9787427e-7
-0.290, 1.1372717e-6, 6.9512032e-7
-0.291, 1.0871562e-6, 6.4836888e-7
-0.292, 1.1354083e-6, 6.6512354e-7
-0.293, 1.1522288e-6, 6.1975732e-7
-0.294, 1.1144484e-6, 6.3430218e-7
-0.295, 1.1614306e-6, 6.7707936e-7
-0.296, 1.0864140e-6, 6.9147586e-7
-0.297, 1.1395144e-6, 7.3733679e-7
-0.298, 1.1141351e-6, 6.6518953e-7
-0.299, 1.1124530e-6, 6.7417704e-7
-0.300, 1.1375851e-6, 6.3585236e-7
-0.301, 1.0844187e-6, 6.1327643e-7
-0.302, 1.1369254e-6, 6.6649227e-7
-0.303, 1.0784325e-6, 6.7173636e-7
-0.304, 1.1408501e-6, 7.2790402e-7
-0.305, 1.1180269e-6, 6.7322048e-7
-0.306, 1.1110843e-6, 6.1979028e-7
-0.307, 1.1398938e-6, 6.4132735e-7
-0.308, 1.0883764e-6, 6.4497181e-7
-0.309, 1.1275752e-6, 6.8486304e-7
-0.310, 1.0904544e-6, 6.8611632e-7
-0.311, 1.1169057e-6, 7.3626484e-7
-0.312, 1.1214570e-6, 7.2782154e-7
-0.313, 1.1039767e-6, 6.2343480e-7
-0.314, 1.1246233e-6, 6.1019267e-7
-0.315, 1.0828026e-6, 6.3283460e-7
-0.316, 1.1111173e-6, 6.8723773e-7
-0.317, 1.1084622e-6, 6.7137353e-7
-0.318, 1.0851443e-6, 7.2043366e-7
-0.319, 1.1282182e-6, 7.2607355e-7
-0.320, 1.0839075e-6, 6.6367238e-7
-0.321, 1.1240296e-6, 6.2138992e-7
-0.322, 1.0880632e-6, 5.9200335e-7
-0.323, 1.1225125e-6, 6.6232008e-7
-0.324, 1.1163944e-6, 6.9731357e-7
-0.325, 1.0695439e-6, 7.2233013e-7
-0.326, 1.1238482e-6, 6.7742570e-7
-0.327, 1.0645472e-6, 6.6174289e-7
-0.328, 1.1215066e-6, 6.8291712e-7
-0.329, 1.0933896e-6, 6.2168675e-7
-0.330, 1.0767834e-6, 6.5819739e-7
-0.331, 1.1295540e-6, 6.8450021e-7
-0.332, 1.0748046e-6, 7.0141982e-7
-0.333, 1.1341879e-6, 6.9695079e-7
-0.334, 1.0880301e-6, 6.5775214e-7
-0.335, 1.1069616e-6, 6.7389664e-7
-0.336, 1.1294385e-6, 6.3201003e-7
-0.337, 1.0926971e-6, 6.6126472e-7
-0.338, 1.1150915e-6, 6.7439134e-7
-0.339, 1.0658665e-6, 7.1517309e-7
-0.340, 1.1103423e-6, 7.2952014e-7
-0.341, 1.0949728e-6, 6.6476071e-7
-0.342, 1.0947584e-6, 6.4502126e-7
-0.343, 1.1241615e-6, 6.2849745e-7
-0.344, 1.0734688e-6, 6.6873503e-7
-0.345, 1.1172190e-6, 6.9002465e-7
-0.346, 1.0777235e-6, 6.9942439e-7
-0.347, 1.1122881e-6, 7.1609657e-7
-0.348, 1.1070276e-6, 7.0912097e-7
-0.349, 1.1081820e-6, 6.6327658e-7
-0.350, 1.1328027e-6, 6.1701985e-7
-0.351, 1.0830994e-6, 6.6424957e-7
-0.352, 1.1328027e-6, 6.9879775e-7
-0.353, 1.1011568e-6, 7.2833279e-7
-0.354, 1.1213581e-6, 7.4098125e-7
-0.355, 1.1438681e-6, 7.0156818e-7
-0.356, 1.0853091e-6, 6.9493888e-7
-0.357, 1.1580831e-6, 6.4667029e-7
-0.358, 1.0939009e-6, 6.5580628e-7
-0.359, 1.1332479e-6, 7.1487631e-7
-0.360, 1.1320935e-6, 7.5562502e-7
-0.361, 1.1249201e-6, 7.3514343e-7
-0.362, 1.1684888e-6, 7.3306569e-7
-0.363, 1.1203686e-6, 6.8723773e-7
-0.364, 1.1774104e-6, 6.5092490e-7
-0.365, 1.1372881e-6, 6.3692426e-7
-0.366, 1.1399267e-6, 7.2912439e-7
-0.367, 1.1645310e-6, 7.6347470e-7
-0.368, 1.1357876e-6, 7.3634732e-7
-0.369, 1.1786307e-6, 7.2902537e-7
-0.370, 1.1372553e-6, 7.0905503e-7
-0.371, 1.1689010e-6, 7.1184195e-7
-0.372, 1.1824401e-6, 6.7978385e-7
-0.373, 1.1729248e-6, 7.1772922e-7
-0.374, 1.1879314e-6, 7.8181245e-7
-0.375, 1.1582976e-6, 7.9243250e-7
-0.376, 1.2025918e-6, 7.6309539e-7
-0.377, 1.1837262e-6, 7.2381431e-7
-0.378, 1.2088418e-6, 6.9371856e-7
-0.379, 1.2125192e-6, 7.1258410e-7
-0.380, 1.1793397e-6, 7.2945420e-7
-0.381, 1.2277733e-6, 7.4587899e-7
-0.382, 1.1822751e-6, 7.8341202e-7
-0.383, 1.2320609e-6, 7.8365946e-7
-0.384, 1.2225291e-6, 7.5475106e-7
-0.385, 1.2168564e-6, 6.9841849e-7
-0.386, 1.2514870e-6, 7.2061505e-7
-0.387, 1.1963748e-6, 7.8263702e-7
-0.388, 1.2442805e-6, 7.7764031e-7
-0.389, 1.2150588e-6, 8.1426640e-7
-0.390, 1.2555602e-6, 7.8812843e-7
-0.391, 1.2807748e-6, 7.8606706e-7
-0.392, 1.2258603e-6, 7.3550632e-7
-0.393, 1.2800821e-6, 7.1109991e-7
-0.394, 1.2292574e-6, 7.6927950e-7
-0.395, 1.2621072e-6, 7.9627489e-7
-0.396, 1.2534824e-6, 8.2455659e-7
-0.397, 1.2495906e-6, 7.6870231e-7
-0.398, 1.3093697e-6, 8.0343193e-7
-0.399, 1.2520807e-6, 7.3982687e-7
-0.400, 1.3068302e-6, 7.3774902e-7
-0.401, 1.2621731e-6, 8.0076040e-7
-0.402, 1.2894653e-6, 7.8905191e-7
-0.403, 1.3084463e-6, 8.8651257e-7
-0.404, 1.2765695e-6, 8.1464566e-7
-0.405, 1.3281528e-6, 8.0292068e-7
-0.406, 1.2679118e-6, 7.6530512e-7
-0.407, 1.3163288e-6, 7.5112303e-7
-0.408, 1.2885254e-6, 8.2650251e-7
-0.409, 1.2899436e-6, 7.7536458e-7
-0.410, 1.3248216e-6, 8.8253830e-7
-0.411, 1.2747061e-6, 8.1362316e-7
-0.412, 1.3440334e-6, 8.0687846e-7
-0.413, 1.3055769e-6, 7.7379798e-7
-0.414, 1.3262398e-6, 7.6228741e-7
-0.415, 1.3324074e-6, 8.6024272e-7
-0.416, 1.3083637e-6, 8.3476448e-7
-0.417, 1.3485849e-6, 8.6965895e-7
-0.418, 1.3009594e-6, 8.4939177e-7
-0.419, 1.3589905e-6, 8.2256122e-7
-0.420, 1.3190663e-6, 7.7303935e-7
-0.421, 1.3335288e-6, 7.6759738e-7
-0.422, 1.3491456e-6, 8.5072759e-7
-0.423, 1.2975457e-6, 8.5216220e-7
-0.424, 1.3584629e-6, 8.8667747e-7
-0.425, 1.3046698e-6, 8.2158829e-7
-0.426, 1.3465731e-6, 8.3174655e-7
-0.427, 1.3443303e-6, 8.0862651e-7
-0.428, 1.3273777e-6, 8.0212908e-7
-0.429, 1.3608869e-6, 8.3171358e-7
-0.430, 1.3176481e-6, 8.4439500e-7
-0.431, 1.3678462e-6, 8.6251839e-7
-0.432, 1.3247391e-6, 8.1505789e-7
-0.433, 1.3362828e-6, 8.2228087e-7
-0.434, 1.3483209e-6, 8.0417396e-7
-0.435, 1.3206989e-6, 7.9246547e-7
-0.436, 1.3540598e-6, 8.2646955e-7
-0.437, 1.3011572e-6, 8.4949073e-7
-0.438, 1.3383606e-6, 8.6875195e-7
-0.439, 1.3395809e-6, 8.2056584e-7
-0.440, 1.3266191e-6, 7.8953013e-7
-0.441, 1.3555771e-6, 7.8577023e-7
-0.442, 1.2945445e-6, 8.2961930e-7
-0.443, 1.3294225e-6, 8.4004148e-7
-0.444, 1.3048183e-6, 8.5143660e-7
-0.445, 1.3215894e-6, 8.5105739e-7
-0.446, 1.3364477e-6, 8.5494912e-7
-0.447, 1.2984858e-6, 7.9076699e-7
-0.448, 1.3320612e-6, 7.4681901e-7
-0.449, 1.2812363e-6, 8.1269980e-7
-0.450, 1.3134099e-6, 8.0771952e-7
-0.451, 1.3095346e-6, 8.5346500e-7
-0.452, 1.3005637e-6, 8.2092862e-7
-0.453, 1.3389376e-6, 8.1309548e-7
-0.454, 1.2682747e-6, 7.8552290e-7
-0.455, 1.3174997e-6, 7.6136382e-7
-0.456, 1.2515859e-6, 8.0511393e-7
-0.457, 1.2948083e-6, 7.9218512e-7
-0.458, 1.3096336e-6, 8.6871898e-7
-0.459, 1.2514046e-6, 7.8793050e-7
-0.460, 1.3058901e-6, 7.7203345e-7
-0.461, 1.2369092e-6, 7.2787105e-7
-0.462, 1.2761573e-6, 7.4780843e-7
-0.463, 1.2487660e-6, 7.9332301e-7
-0.464, 1.2333306e-6, 7.7259415e-7
-0.465, 1.2820774e-6, 8.5412466e-7
-0.466, 1.2175984e-6, 7.8201032e-7
-0.467, 1.2527073e-6, 7.7491933e-7
-0.468, 1.2214242e-6, 7.0983009e-7
-0.469, 1.2501018e-6, 7.4648915e-7
-0.470, 1.2392674e-6, 7.9230063e-7
-0.471, 1.2054941e-6, 7.4906177e-7
-0.472, 1.2300325e-6, 7.9141012e-7
-0.473, 1.1727434e-6, 7.4454329e-7
-0.474, 1.2200885e-6, 7.5552612e-7
-0.475, 1.1815166e-6, 6.8555562e-7
-0.476, 1.1977600e-6, 7.0702669e-7
-0.477, 1.1922026e-6, 7.5813170e-7
-0.478, 1.1471498e-6, 7.4869888e-7
-0.479, 1.1879479e-6, 7.7091204e-7
-0.480, 1.1469518e-6, 7.1786110e-7
-0.481, 1.1692473e-6, 7.1702004e-7
-0.482, 1.1441814e-6, 6.8062491e-7
-0.483, 1.1444617e-6, 6.9982019e-7
-0.484, 1.1566814e-6, 6.9366911e-7
-0.485, 1.1073409e-6, 7.3077342e-7
-0.486, 1.1378819e-6, 7.1665727e-7
-0.487, 1.1087591e-6, 6.7643617e-7
-0.488, 1.1166253e-6, 6.5837878e-7
-0.489, 1.1242109e-6, 6.3994207e-7
-0.490, 1.0699067e-6, 6.9406491e-7
-0.491, 1.1047354e-6, 6.7757412e-7
-0.492, 1.0555268e-6, 6.9698376e-7
-0.493, 1.0782511e-6, 6.9617573e-7
-0.494, 1.0708962e-6, 6.8553919e-7
-0.495, 1.0498704e-6, 6.3359312e-7
-0.496, 1.0846825e-6, 6.0542686e-7
-0.497, 1.0133433e-6, 6.5593815e-7
-0.498, 1.0519483e-6, 6.6786100e-7
-0.499, 1.0120571e-6, 6.6875151e-7
-0.500, 1.0093526e-6, 6.7397912e-7
