Dec. 9, 2005   02:34:48
Square Wave Voltammetry
File: d:\ida_biofilms\11_28_18_blankidapyo\50um_transfer\50um_pyo_transfer_swv_45.txt
Data Source:  Experiment
Instrument Model:  CHI760B
Header: 
Note: 

Init E (V) = 0.1
Final E (V) = -0.5
Incr E (V) = 0.001
Amplitude (V) = 0.025
Frequency (Hz) = 300
Quiet Time (sec) = 2
Sensitivity (A/V) = 1e-6
Sens 2 (A/V) = 1e-6

Potential/V, i1/A, i2/A

0.099, 6.7160443e-7, 3.1482591e-7
0.098, 6.5239266e-7, 3.8209191e-7
0.097, 6.1068738e-7, 4.5379389e-7
0.096, 6.5811497e-7, 4.3628069e-7
0.095, 6.1545325e-7, 4.5280444e-7
0.094, 6.4706614e-7, 4.4485591e-7
0.093, 6.2892627e-7, 4.4878072e-7
0.092, 6.1659114e-7, 4.0549236e-7
0.091, 6.3181210e-7, 3.5875740e-7
0.090, 5.9436150e-7, 4.3252078e-7
0.089, 6.1911419e-7, 4.2145547e-7
0.088, 5.9863260e-7, 4.4535062e-7
0.087, 6.0338198e-7, 4.0514601e-7
0.086, 6.1072035e-7, 4.0361238e-7
0.085, 5.4978682e-7, 4.0333205e-7
0.084, 6.1868548e-7, 3.2813398e-7
0.083, 5.5524532e-7, 3.8837487e-7
0.082, 5.6302900e-7, 3.9060114e-7
0.081, 5.9084891e-7, 4.4071669e-7
0.080, 5.6344123e-7, 3.8898506e-7
0.079, 5.9150858e-7, 3.7750743e-7
0.078, 5.2508369e-7, 3.5221058e-7
0.077, 5.8628103e-7, 3.1459501e-7
0.076, 5.3410412e-7, 3.8441709e-7
0.075, 5.3369183e-7, 3.8901803e-7
0.074, 5.7717807e-7, 4.5254060e-7
0.073, 5.1751437e-7, 3.7383001e-7
0.072, 5.7041689e-7, 3.6870136e-7
0.071, 4.9060134e-7, 3.2002052e-7
0.070, 5.4266286e-7, 3.2002052e-7
0.069, 5.3148210e-7, 3.7775482e-7
0.068, 5.1512319e-7, 3.3083847e-7
0.067, 5.4465818e-7, 4.4922592e-7
0.066, 4.8786393e-7, 3.2524810e-7
0.065, 5.4338841e-7, 3.5638271e-7
0.064, 4.9648861e-7, 3.0587142e-7
0.063, 5.1759679e-7, 2.9046899e-7
0.062, 5.2439106e-7, 3.8194347e-7
0.061, 4.7033419e-7, 3.4353639e-7
0.060, 5.2082902e-7, 3.8606618e-7
0.059, 4.6875107e-7, 3.3486225e-7
0.058, 5.1795962e-7, 3.3604960e-7
0.057, 4.9066733e-7, 2.7984890e-7
0.056, 4.8285074e-7, 2.5870770e-7
0.055, 5.0633361e-7, 3.5592097e-7
0.054, 4.4676881e-7, 3.3570325e-7
0.053, 5.0753749e-7, 3.7089464e-7
0.052, 4.5572335e-7, 2.9770845e-7
0.051, 5.0831250e-7, 3.2133977e-7
0.050, 4.8375767e-7, 2.9363525e-7
0.049, 4.4139281e-7, 2.6960814e-7
0.048, 4.9419634e-7, 3.0887273e-7
0.047, 4.2538022e-7, 3.2856275e-7
0.046, 4.8387312e-7, 3.8197646e-7
0.045, 4.5089152e-7, 3.0705874e-7
0.044, 4.5534404e-7, 2.8916622e-7
0.043, 4.9424585e-7, 2.6997094e-7
0.042, 4.2658408e-7, 2.4149131e-7
0.041, 4.7048258e-7, 3.1139581e-7
0.040, 4.3293304e-7, 3.1057129e-7
0.039, 4.6479326e-7, 3.6480952e-7
0.038, 4.6782756e-7, 3.0287009e-7
0.037, 4.3415332e-7, 3.0308445e-7
0.036, 4.6660728e-7, 2.5066021e-7
0.035, 4.0153452e-7, 2.7084494e-7
0.034, 4.5165007e-7, 2.9957192e-7
0.033, 4.1133006e-7, 3.2132328e-7
0.032, 4.3078921e-7, 3.0776783e-7
0.031, 4.4789019e-7, 3.2881013e-7
0.030, 4.0705896e-7, 2.7026778e-7
0.029, 4.4203597e-7, 2.3519183e-7
0.028, 4.0442043e-7, 2.4642208e-7
0.027, 4.3504383e-7, 2.9770845e-7
0.026, 4.2757353e-7, 3.3138269e-7
0.025, 4.2031758e-7, 3.3169601e-7
0.024, 4.3222394e-7, 2.7175193e-7
0.023, 3.9915989e-7, 2.7457185e-7
0.022, 4.4243174e-7, 2.2655065e-7
0.021, 3.9998440e-7, 2.6121432e-7
0.020, 4.2124105e-7, 2.7867810e-7
0.019, 4.3008012e-7, 3.1795918e-7
0.018, 3.8967767e-7, 3.1640906e-7
0.017, 4.3176220e-7, 2.7429152e-7
0.016, 3.8799561e-7, 2.6952569e-7
0.015, 4.3022857e-7, 2.3364169e-7
0.014, 4.1939410e-7, 2.5653091e-7
0.013, 4.0377728e-7, 2.6667277e-7
0.012, 4.2940400e-7, 2.9972034e-7
0.011, 3.7003713e-7, 3.2813398e-7
0.010, 4.2867839e-7, 2.5832844e-7
0.009, 3.9864867e-7, 2.6101642e-7
0.008, 4.0285380e-7, 2.3580199e-7
0.007, 4.1449630e-7, 2.6320970e-7
0.006, 3.8179508e-7, 2.6393531e-7
0.005, 4.2089476e-7, 2.9836809e-7
0.004, 3.6307802e-7, 3.1475994e-7
0.003, 4.2147195e-7, 2.9800532e-7
0.002, 4.0926875e-7, 2.6670574e-7
0.001, 4.0540988e-7, 1.9104594e-7
-0.000, 4.2155438e-7, 2.4902761e-7
-0.001, 3.6716773e-7, 2.9023812e-7
-0.002, 4.1187428e-7, 2.8910029e-7
-0.003, 3.8177856e-7, 3.1401785e-7
-0.004, 4.1306163e-7, 2.5628356e-7
-0.005, 4.2927206e-7, 2.8463126e-7
-0.006, 3.7922251e-7, 2.1959153e-7
-0.007, 4.2181824e-7, 2.1398466e-7
-0.008, 3.6235241e-7, 2.6866815e-7
-0.009, 4.0842770e-7, 2.8914974e-7
-0.010, 3.9233271e-7, 3.0239184e-7
-0.011, 3.9150814e-7, 2.6096694e-7
-0.012, 4.1358933e-7, 2.7907384e-7
-0.013, 3.6507339e-7, 2.7056458e-7
-0.014, 4.1880043e-7, 2.1970696e-7
-0.015, 3.7183460e-7, 2.5761932e-7
-0.016, 4.1271528e-7, 2.7160354e-7
-0.017, 4.1457878e-7, 2.9782390e-7
-0.018, 3.6746457e-7, 2.8336146e-7
-0.019, 4.2665005e-7, 2.5565691e-7
-0.020, 3.6782734e-7, 2.2686396e-7
-0.021, 4.1332547e-7, 2.4107905e-7
-0.022, 3.8059125e-7, 2.9312400e-7
-0.023, 3.8694020e-7, 2.5605272e-7
-0.024, 4.2356626e-7, 3.0695981e-7
-0.025, 3.7026800e-7, 2.6599665e-7
-0.026, 4.2127402e-7, 2.6390231e-7
-0.027, 3.7567696e-7, 2.4845042e-7
-0.028, 4.0938414e-7, 2.1995433e-7
-0.029, 4.1457878e-7, 2.8372426e-7
-0.030, 3.8123437e-7, 2.5761932e-7
-0.031, 4.1865201e-7, 2.9140898e-7
-0.032, 3.6743160e-7, 2.8499403e-7
-0.033, 4.1965794e-7, 2.6220377e-7
-0.034, 3.7965123e-7, 2.6118133e-7
-0.035, 4.0369486e-7, 1.9394832e-7
-0.036, 4.1071991e-7, 2.8657718e-7
-0.037, 3.6827259e-7, 2.6370444e-7
-0.038, 4.2359926e-7, 3.0509634e-7
-0.039, 3.7391246e-7, 2.9267875e-7
-0.040, 4.1695347e-7, 2.5598672e-7
-0.041, 4.1863549e-7, 2.9411348e-7
-0.042, 4.0009985e-7, 2.1771157e-7
-0.043, 4.2686443e-7, 2.4220043e-7
-0.044, 3.7274160e-7, 2.7340101e-7
-0.045, 4.2816723e-7, 3.0592088e-7
-0.046, 3.9630697e-7, 3.0557456e-7
-0.047, 4.1116516e-7, 2.5898805e-7
-0.048, 4.3377409e-7, 2.9986876e-7
-0.049, 3.8436764e-7, 2.2674854e-7
-0.050, 4.4309138e-7, 2.8573612e-7
-0.051, 3.8652792e-7, 2.7458836e-7
-0.052, 4.3550563e-7, 3.0031401e-7
-0.053, 4.2064738e-7, 3.4544934e-7
-0.054, 4.1350685e-7, 2.6934427e-7
-0.055, 4.4676881e-7, 2.8971041e-7
-0.056, 3.8377397e-7, 2.2823271e-7
-0.057, 4.5367847e-7, 2.6294583e-7
-0.058, 4.0989539e-7, 2.7706199e-7
-0.059, 4.2848052e-7, 3.0888921e-7
-0.060, 4.4502079e-7, 3.5646519e-7
-0.061, 4.0945014e-7, 2.6291286e-7
-0.062, 4.5560790e-7, 2.9248088e-7
-0.063, 3.9249761e-7, 2.2857901e-7
-0.064, 4.5331566e-7, 2.5516218e-7
-0.065, 4.2968435e-7, 3.0814715e-7
-0.066, 4.2138947e-7, 2.7373085e-7
-0.067, 4.6309475e-7, 3.6743160e-7
-0.068, 4.0475027e-7, 3.1108249e-7
-0.069, 4.6175896e-7, 3.0326586e-7
-0.070, 4.2623776e-7, 2.6446298e-7
-0.071, 4.5892256e-7, 2.8672559e-7
-0.072, 4.5870817e-7, 3.3161356e-7
-0.073, 4.3034396e-7, 2.7467081e-7
-0.074, 4.7485264e-7, 3.4713139e-7
-0.075, 4.1931162e-7, 3.0217745e-7
-0.076, 4.7046609e-7, 3.0944989e-7
-0.077, 4.5724047e-7, 2.6589768e-7
-0.078, 4.5366198e-7, 2.3586794e-7
-0.079, 4.8748461e-7, 3.1083513e-7
-0.080, 4.2839804e-7, 3.0446967e-7
-0.081, 4.9188770e-7, 3.2918939e-7
-0.082, 4.4220087e-7, 3.2030087e-7
-0.083, 4.9518582e-7, 3.0328235e-7
-0.084, 4.8624781e-7, 3.1988858e-7
-0.085, 4.4376748e-7, 2.4224988e-7
-0.086, 5.1042332e-7, 3.0235884e-7
-0.087, 4.3052538e-7, 3.0616826e-7
-0.088, 4.9460863e-7, 3.8156418e-7
-0.089, 4.5775170e-7, 3.4220062e-7
-0.090, 4.8474715e-7, 2.9845054e-7
-0.091, 5.1667331e-7, 3.3489522e-7
-0.092, 4.5920285e-7, 2.6207184e-7
-0.093, 5.2620504e-7, 3.2158715e-7
-0.094, 4.6256702e-7, 3.0969727e-7
-0.095, 5.0849388e-7, 3.4569669e-7
-0.096, 5.0437120e-7, 3.6090120e-7
-0.097, 4.9906117e-7, 3.0204555e-7
-0.098, 5.2223072e-7, 3.2437407e-7
-0.099, 4.7864552e-7, 2.7615496e-7
-0.100, 5.4116219e-7, 3.5282073e-7
-0.101, 4.9116204e-7, 3.3037674e-7
-0.102, 5.1283098e-7, 3.5023166e-7
-0.103, 5.3558830e-7, 3.6236889e-7
-0.104, 4.8961192e-7, 3.1734902e-7
-0.105, 5.3779809e-7, 3.3296578e-7
-0.106, 4.9859943e-7, 2.7046565e-7
-0.107, 5.4479017e-7, 3.3933122e-7
-0.108, 5.1934484e-7, 3.6438075e-7
-0.109, 5.3087194e-7, 3.5176532e-7
-0.110, 5.5344782e-7, 3.6807472e-7
-0.111, 5.0851042e-7, 3.3849022e-7
-0.112, 5.6105011e-7, 3.5201268e-7
-0.113, 5.2026837e-7, 2.8804484e-7
-0.114, 5.5648212e-7, 3.5788338e-7
-0.115, 5.6767936e-7, 3.7683134e-7
-0.116, 5.2117531e-7, 3.7369807e-7
-0.117, 5.7947034e-7, 3.9520208e-7
-0.118, 5.2143918e-7, 3.3829232e-7
-0.119, 5.7501779e-7, 3.5849357e-7
-0.120, 5.6553557e-7, 3.2411023e-7
-0.121, 5.6538715e-7, 3.3148163e-7
-0.122, 5.8446705e-7, 3.8189401e-7
-0.123, 5.3473076e-7, 3.8355955e-7
-0.124, 6.0491561e-7, 4.2726020e-7
-0.125, 5.5608632e-7, 3.5321648e-7
-0.126, 5.7973421e-7, 3.6025807e-7
-0.127, 5.9777511e-7, 3.5135304e-7
-0.128, 5.6558508e-7, 3.1165968e-7
-0.129, 6.0847765e-7, 3.7526468e-7
-0.130, 5.5011668e-7, 3.8149824e-7
-0.131, 6.0656470e-7, 4.3069025e-7
-0.132, 5.9239909e-7, 3.5923563e-7
-0.133, 5.9152507e-7, 3.5038008e-7
-0.134, 6.1820720e-7, 3.3370787e-7
-0.135, 5.7369851e-7, 3.5038011e-7
-0.136, 6.2541369e-7, 3.9747778e-7
-0.137, 5.8379089e-7, 3.9249758e-7
-0.138, 6.2280810e-7, 4.4210196e-7
-0.139, 6.2444076e-7, 3.9856621e-7
-0.140, 5.9343802e-7, 3.7048238e-7
-0.141, 6.4869869e-7, 3.2697963e-7
-0.142, 5.8558840e-7, 3.4736226e-7
-0.143, 6.2966831e-7, 4.0240855e-7
-0.144, 6.2213201e-7, 4.1835517e-7
-0.145, 6.2000470e-7, 4.1835514e-7
-0.146, 6.6161101e-7, 4.1177535e-7
-0.147, 5.8840834e-7, 3.8601667e-7
-0.148, 6.5648237e-7, 3.2933781e-7
-0.149, 5.9855017e-7, 3.3992490e-7
-0.150, 6.4950677e-7, 3.9958860e-7
-0.151, 6.6032476e-7, 4.3428528e-7
-0.152, 6.1037406e-7, 4.3722062e-7
-0.153, 6.6561824e-7, 3.7536364e-7
-0.154, 6.0397565e-7, 3.9821990e-7
-0.155, 6.5621850e-7, 3.9307477e-7
-0.156, 6.2960237e-7, 3.5583855e-7
-0.157, 6.3929895e-7, 3.9475685e-7
-0.158, 6.6786100e-7, 4.4457553e-7
-0.159, 6.1937806e-7, 4.6306172e-7
-0.160, 6.7168685e-7, 4.3370810e-7
-0.161, 6.2698030e-7, 3.9630697e-7
-0.162, 6.7041708e-7, 3.6776134e-7
-0.163, 6.6307865e-7, 3.7848039e-7
-0.164, 6.4487284e-7, 4.1749763e-7
-0.165, 6.7350084e-7, 4.1454581e-7
-0.166, 6.3273558e-7, 4.6390278e-7
-0.167, 6.7856354e-7, 4.2101018e-7
-0.168, 6.5945073e-7, 4.1725031e-7
-0.169, 6.7539730e-7, 3.7584186e-7
-0.170, 6.8415397e-7, 3.7612222e-7
-0.171, 6.3992559e-7, 4.2745810e-7
-0.172, 6.9025549e-7, 4.3463160e-7
-0.173, 6.4807205e-7, 4.7162047e-7
-0.174, 6.9205305e-7, 4.5770224e-7
-0.175, 6.9375153e-7, 4.3918305e-7
-0.176, 6.8072382e-7, 3.7025151e-7
-0.177, 7.0890661e-7, 3.7097709e-7
-0.178, 6.4909449e-7, 4.4244820e-7
-0.179, 7.0908800e-7, 4.3679188e-7
-0.180, 6.7818428e-7, 4.7965148e-7
-0.181, 6.8715525e-7, 4.2112561e-7
-0.182, 7.2920682e-7, 4.5758679e-7
-0.183, 6.7388009e-7, 3.9897844e-7
-0.184, 7.3196077e-7, 3.9772519e-7
-0.185, 6.7384713e-7, 4.4243171e-7
-0.186, 7.0572389e-7, 4.6690411e-7
-0.187, 7.1784461e-7, 5.1596425e-7
-0.188, 7.0249172e-7, 4.4657094e-7
-0.189, 7.6510730e-7, 4.5773521e-7
-0.190, 6.9520274e-7, 3.8590127e-7
-0.191, 7.5430580e-7, 4.1362233e-7
-0.192, 7.1337558e-7, 4.4294296e-7
-0.193, 7.3319757e-7, 4.6480977e-7
-0.194, 7.6265013e-7, 5.3511008e-7
-0.195, 7.1258410e-7, 4.1906426e-7
-0.196, 7.6469502e-7, 4.6263298e-7
-0.197, 7.1520606e-7, 3.8209191e-7
-0.198, 7.5859339e-7, 4.3329584e-7
-0.199, 7.6456308e-7, 4.7800239e-7
-0.200, 7.4360321e-7, 4.7402810e-7
-0.201, 7.8545690e-7, 5.4929211e-7
-0.202, 7.3613296e-7, 4.5616855e-7
-0.203, 8.0166740e-7, 4.7463828e-7
-0.204, 7.4891329e-7, 3.9929182e-7
-0.205, 8.0334951e-7, 4.4793967e-7
-0.206, 8.0587256e-7, 5.0712515e-7
-0.207, 7.6301296e-7, 4.9464165e-7
-0.208, 8.2937191e-7, 5.1982306e-7
-0.209, 7.5801620e-7, 4.7531441e-7
-0.210, 8.1603082e-7, 5.0755392e-7
-0.211, 8.0707639e-7, 4.3738555e-7
-0.212, 7.9436199e-7, 4.7778803e-7
-0.213, 8.3596825e-7, 5.1195696e-7
-0.214, 7.7905850e-7, 5.2623801e-7
-0.215, 8.4378490e-7, 5.2999792e-7
-0.216, 7.9497215e-7, 4.8486260e-7
-0.217, 8.5196433e-7, 4.9404798e-7
-0.218, 8.6256784e-7, 4.6606309e-7
-0.219, 8.1639371e-7, 5.0371159e-7
-0.220, 8.7872888e-7, 5.1131383e-7
-0.221, 8.1040753e-7, 5.3710545e-7
-0.222, 8.6680609e-7, 5.5234295e-7
-0.223, 8.6101784e-7, 5.1070367e-7
-0.224, 8.6739976e-7, 4.8199320e-7
-0.225, 8.9502186e-7, 5.3426902e-7
-0.226, 8.4009093e-7, 5.3545637e-7
-0.227, 9.0984702e-7, 5.2689762e-7
-0.228, 8.5880799e-7, 5.8969465e-7
-0.229, 9.0435560e-7, 5.6901513e-7
-0.230, 9.1461288e-7, 5.6372158e-7
-0.231, 8.8893671e-7, 4.7002084e-7
-0.232, 9.2432595e-7, 5.2510018e-7
-0.233, 8.7963599e-7, 5.5705931e-7
-0.234, 9.3725475e-7, 5.7816754e-7
-0.235, 9.2117625e-7, 6.2234642e-7
-0.236, 9.3557270e-7, 5.3103679e-7
-0.237, 9.6472843e-7, 5.8181200e-7
-0.238, 8.9970524e-7, 5.0761992e-7
-0.239, 9.6708663e-7, 5.6329282e-7
-0.240, 9.3055951e-7, 5.6245182e-7
-0.241, 9.6082010e-7, 6.0267291e-7
-0.242, 9.5991311e-7, 6.3758387e-7
-0.243, 9.4612676e-7, 5.6083570e-7
-0.244, 1.0040260e-6, 5.5298608e-7
-0.245, 9.3238998e-7, 5.2432506e-7
-0.246, 1.0172846e-6, 6.0600405e-7
-0.247, 9.5770338e-7, 5.9856666e-7
-0.248, 9.7173699e-7, 6.3421976e-7
-0.249, 1.0155532e-6, 6.6441442e-7
-0.250, 9.8102134e-7, 5.8059169e-7
-0.251, 1.0415921e-6, 5.5038049e-7
-0.252, 9.6563542e-7, 5.2554537e-7
-0.253, 1.0200056e-6, 6.2355025e-7
-0.254, 1.0319120e-6, 6.6189136e-7
-0.255, 1.0216711e-6, 6.4134383e-7
-0.256, 1.0503157e-6, 6.4375149e-7
-0.257, 1.0037127e-6, 6.1106670e-7
-0.258, 1.0679609e-6, 5.7163714e-7
-0.259, 1.0291581e-6, 5.9061813e-7
-0.260, 1.0328355e-6, 6.2140640e-7
-0.261, 1.0606554e-6, 6.9803923e-7
-0.262, 1.0149924e-6, 6.3080614e-7
-0.263, 1.0858204e-6, 6.2305548e-7
-0.264, 1.0251673e-6, 6.1167685e-7
-0.265, 1.0605399e-6, 5.8481334e-7
-0.266, 1.0759425e-6, 6.4871517e-7
-0.267, 1.0523440e-6, 5.9848418e-7
-0.268, 1.0940657e-6, 7.1088550e-7
-0.269, 1.0329509e-6, 6.6326004e-7
-0.270, 1.1128323e-6, 6.2782135e-7
-0.271, 1.0564833e-6, 6.1042351e-7
-0.272, 1.1033006e-6, 6.0353034e-7
-0.273, 1.1087096e-6, 6.6391971e-7
-0.274, 1.0474134e-6, 6.5212879e-7
-0.275, 1.1230071e-6, 6.8694089e-7
-0.276, 1.0579674e-6, 6.4911103e-7
-0.277, 1.1135744e-6, 6.5049619e-7
-0.278, 1.0931424e-6, 5.8822695e-7
-0.279, 1.0826377e-6, 6.2686490e-7
-0.280, 1.1235843e-6, 6.7684846e-7
-0.281, 1.0587755e-6, 6.6693752e-7
-0.282, 1.1159327e-6, 6.9162428e-7
-0.283, 1.0742109e-6, 6.3911750e-7
-0.284, 1.1225125e-6, 6.4111293e-7
-0.285, 1.1315988e-6, 6.0235959e-7
-0.286, 1.0651574e-6, 6.5138670e-7
-0.287, 1.1148773e-6, 6.4858330e-7
-0.288, 1.0647451e-6, 6.9929246e-7
-0.289, 1.1239802e-6, 6.5748827e-7
-0.290, 1.0892174e-6, 6.5910439e-7
-0.291, 1.0918066e-6, 5.8687471e-7
-0.292, 1.1173508e-6, 6.3159774e-7
-0.293, 1.0534819e-6, 6.6802590e-7
-0.294, 1.1077367e-6, 6.9518626e-7
-0.295, 1.0894978e-6, 6.9606028e-7
-0.296, 1.1021298e-6, 6.6495863e-7
-0.297, 1.1178126e-6, 6.8928261e-7
-0.298, 1.0974629e-6, 5.8547295e-7
-0.299, 1.1164109e-6, 6.6645930e-7
-0.300, 1.0662458e-6, 6.6932870e-7
-0.301, 1.1084622e-6, 6.9309192e-7
-0.302, 1.0833138e-6, 6.9488942e-7
-0.303, 1.1005137e-6, 6.4009049e-7
-0.304, 1.1087261e-6, 6.9947384e-7
-0.305, 1.0366778e-6, 6.3092159e-7
-0.306, 1.1271958e-6, 6.5796655e-7
-0.307, 1.0658335e-6, 6.4533458e-7
-0.308, 1.1047518e-6, 7.4055248e-7
-0.309, 1.1046365e-6, 7.1949370e-7
-0.310, 1.0943791e-6, 6.3578642e-7
-0.311, 1.1141515e-6, 5.9020584e-7
-0.312, 1.0601773e-6, 6.4551597e-7
-0.313, 1.1226279e-6, 6.7368228e-7
-0.314, 1.0778720e-6, 6.8507745e-7
-0.315, 1.0669055e-6, 7.1444754e-7
-0.316, 1.1164109e-6, 6.9749501e-7
-0.317, 1.0670374e-6, 6.5141967e-7
-0.318, 1.1199563e-6, 6.0239256e-7
-0.319, 1.0524101e-6, 6.5921984e-7
-0.320, 1.0965559e-6, 6.7455630e-7
-0.321, 1.0975289e-6, 6.9812165e-7
-0.322, 1.0769154e-6, 6.4977058e-7
-0.323, 1.1136568e-6, 6.9525220e-7
-0.324, 1.0578849e-6, 6.3459908e-7
-0.325, 1.1192473e-6, 6.1174279e-7
-0.326, 1.0776409e-6, 6.7073040e-7
-0.327, 1.0841054e-6, 6.9172324e-7
-0.328, 1.1137064e-6, 7.6772926e-7
-0.329, 1.0655367e-6, 6.2295658e-7
-0.330, 1.1203027e-6, 6.4851730e-7
-0.331, 1.0651574e-6, 5.8689119e-7
-0.332, 1.0941812e-6, 6.7246197e-7
-0.333, 1.0989966e-6, 6.6913083e-7
-0.334, 1.0769318e-6, 6.7871196e-7
-0.335, 1.1150091e-6, 7.0705966e-7
-0.336, 1.0578354e-6, 6.5643286e-7
-0.337, 1.1155039e-6, 6.6299623e-7
-0.338, 1.0721001e-6, 6.0202973e-7
-0.339, 1.1176641e-6, 6.7737619e-7
-0.340, 1.1044056e-6, 6.9985316e-7
-0.341, 1.0650585e-6, 7.3712238e-7
-0.342, 1.1193791e-6, 6.8090526e-7
-0.343, 1.0677135e-6, 6.6504106e-7
-0.344, 1.1200059e-6, 6.4172309e-7
-0.345, 1.0846825e-6, 6.3539062e-7
-0.346, 1.0858039e-6, 6.7132407e-7
-0.347, 1.1319453e-6, 7.3288425e-7
-0.348, 1.0780861e-6, 7.2546339e-7
-0.349, 1.1308073e-6, 6.6911429e-7
-0.350, 1.0955170e-6, 6.7726080e-7
-0.351, 1.1175816e-6, 6.2069734e-7
-0.352, 1.1420871e-6, 7.0463545e-7
-0.353, 1.0782676e-6, 6.8893627e-7
-0.354, 1.1443133e-6, 7.1164408e-7
-0.355, 1.0735678e-6, 7.2134065e-7
-0.356, 1.1381951e-6, 7.0412432e-7
-0.357, 1.1201707e-6, 6.7543033e-7
-0.358, 1.1102762e-6, 5.9350401e-7
-0.359, 1.1310547e-6, 7.2295677e-7
-0.360, 1.0768165e-6, 7.0270607e-7
-0.361, 1.1337921e-6, 7.5379455e-7
-0.362, 1.1122552e-6, 7.1578324e-7
-0.363, 1.1521794e-6, 6.9426278e-7
-0.364, 1.1446596e-6, 6.9033797e-7
-0.365, 1.1343199e-6, 6.1805878e-7
-0.366, 1.1477598e-6, 7.1767977e-7
-0.367, 1.1154050e-6, 7.4009074e-7
-0.368, 1.1669387e-6, 7.7404525e-7
-0.369, 1.1443298e-6, 7.2295677e-7
-0.370, 1.1497717e-6, 7.0519616e-7
-0.371, 1.1731556e-6, 6.9640663e-7
-0.372, 1.1294551e-6, 7.2188487e-7
-0.373, 1.1817639e-6, 7.4505454e-7
-0.374, 1.1375521e-6, 7.6027544e-7
-0.375, 1.1872388e-6, 7.5417381e-7
-0.376, 1.1854083e-6, 7.5692788e-7
-0.377, 1.1690330e-6, 6.9988613e-7
-0.378, 1.2061868e-6, 6.9279508e-7
-0.379, 1.1608701e-6, 7.4535126e-7
-0.380, 1.2101775e-6, 7.4660466e-7
-0.381, 1.1817639e-6, 7.6045689e-7
-0.382, 1.1783668e-6, 7.7102754e-7
-0.383, 1.2221828e-6, 7.8177948e-7
-0.384, 1.1887890e-6, 7.0827997e-7
-0.385, 1.2249203e-6, 7.2638687e-7
-0.386, 1.1688187e-6, 7.4736317e-7
-0.387, 1.2232053e-6, 7.6979069e-7
-0.388, 1.2258603e-6, 8.3507780e-7
-0.389, 1.2200061e-6, 7.5247533e-7
-0.390, 1.2482549e-6, 8.0521284e-7
-0.391, 1.2068465e-6, 7.1288093e-7
-0.392, 1.2538947e-6, 7.6398589e-7
-0.393, 1.2242442e-6, 7.8156512e-7
-0.394, 1.2569949e-6, 8.0085931e-7
-0.395, 1.2629482e-6, 8.6453031e-7
-0.396, 1.2209625e-6, 7.5203008e-7
-0.397, 1.2770313e-6, 7.7739287e-7
-0.398, 1.2335615e-6, 7.1032480e-7
-0.399, 1.2672027e-6, 7.8933226e-7
-0.400, 1.2664441e-6, 7.9380129e-7
-0.401, 1.2579019e-6, 7.9121219e-7
-0.402, 1.2997721e-6, 8.2655197e-7
-0.403, 1.2330668e-6, 7.8313178e-7
-0.404, 1.2876183e-6, 7.7787115e-7
-0.405, 1.2597159e-6, 7.1466189e-7
-0.406, 1.3029219e-6, 8.0857694e-7
-0.407, 1.3083968e-6, 8.1298009e-7
-0.408, 1.2461439e-6, 8.2595830e-7
-0.409, 1.3164442e-6, 8.0704336e-7
-0.410, 1.2618762e-6, 7.9460932e-7
-0.411, 1.3122061e-6, 7.8763372e-7
-0.412, 1.2869423e-6, 7.5574053e-7
-0.413, 1.2887891e-6, 7.9159150e-7
-0.414, 1.3195115e-6, 8.0892335e-7
-0.415, 1.2784660e-6, 8.6245245e-7
-0.416, 1.3231231e-6, 7.9993583e-7
-0.417, 1.2860517e-6, 8.0461928e-7
-0.418, 1.3232880e-6, 7.7928939e-7
-0.419, 1.3365795e-6, 7.7693113e-7
-0.420, 1.3007450e-6, 7.9635731e-7
-0.421, 1.3299008e-6, 8.4526908e-7
-0.422, 1.2903392e-6, 8.7084629e-7
-0.423, 1.3321600e-6, 8.0738971e-7
-0.424, 1.3021962e-6, 8.2084620e-7
-0.425, 1.3139211e-6, 7.2097788e-7
-0.426, 1.3301481e-6, 8.1495898e-7
-0.427, 1.2761407e-6, 8.1192468e-7
-0.428, 1.3348481e-6, 8.3298346e-7
-0.429, 1.2926150e-6, 8.6739976e-7
-0.430, 1.3170049e-6, 8.0277232e-7
-0.431, 1.3267511e-6, 8.4198746e-7
-0.432, 1.3141191e-6, 7.2472130e-7
-0.433, 1.3354911e-6, 8.0115615e-7
-0.434, 1.2767674e-6, 8.2439169e-7
-0.435, 1.3303625e-6, 8.6547033e-7
-0.436, 1.2813683e-6, 8.3039436e-7
-0.437, 1.2920380e-6, 7.9884745e-7
-0.438, 1.3162464e-6, 8.4096501e-7
-0.439, 1.2651744e-6, 7.4028861e-7
-0.440, 1.3204021e-6, 8.1119907e-7
-0.441, 1.2679943e-6, 8.0039757e-7
-0.442, 1.3008605e-6, 8.5107388e-7
-0.443, 1.2941653e-6, 8.4886409e-7
-0.444, 1.2855735e-6, 7.7091204e-7
-0.445, 1.3162133e-6, 8.0856057e-7
-0.446, 1.2620411e-6, 7.3872195e-7
-0.447, 1.3157187e-6, 8.0908825e-7
-0.448, 1.2716882e-6, 7.6309539e-7
-0.449, 1.2706657e-6, 8.3135080e-7
-0.450, 1.2912462e-6, 8.4241611e-7
-0.451, 1.2640036e-6, 7.4462571e-7
-0.452, 1.2954515e-6, 7.3352737e-7
-0.453, 1.2319454e-6, 7.2223122e-7
-0.454, 1.2633603e-6, 8.0752159e-7
-0.455, 1.2621235e-6, 8.1039104e-7
-0.456, 1.2468861e-6, 8.0734026e-7
-0.457, 1.2695774e-6, 8.2966881e-7
-0.458, 1.2169553e-6, 7.8486323e-7
-0.459, 1.2716553e-6, 7.2153858e-7
-0.460, 1.2261078e-6, 7.4091525e-7
-0.461, 1.2419388e-6, 7.6571746e-7
-0.462, 1.2390694e-6, 8.0193126e-7
-0.463, 1.1972487e-6, 7.8133428e-7
-0.464, 1.2363649e-6, 7.2264345e-7
-0.465, 1.1873708e-6, 7.3700699e-7
-0.466, 1.2242276e-6, 7.0537760e-7
-0.467, 1.2111175e-6, 7.5008415e-7
-0.468, 1.1781524e-6, 7.2539746e-7
-0.469, 1.2139209e-6, 7.6683887e-7
-0.470, 1.1541254e-6, 7.7045030e-7
-0.471, 1.2007118e-6, 7.1314480e-7
-0.472, 1.1615132e-6, 7.2681564e-7
-0.473, 1.1875686e-6, 6.5715847e-7
-0.474, 1.2060714e-6, 7.4439481e-7
-0.475, 1.1332315e-6, 7.0806556e-7
-0.476, 1.1794057e-6, 7.2498517e-7
-0.477, 1.1041087e-6, 7.3664410e-7
-0.478, 1.1506293e-6, 7.1934534e-7
-0.479, 1.1268000e-6, 7.1377139e-7
-0.480, 1.1253983e-6, 6.0437139e-7
-0.481, 1.1388383e-6, 7.2587568e-7
-0.482, 1.0703850e-6, 6.8895270e-7
-0.483, 1.1341715e-6, 7.2404521e-7
-0.484, 1.0770308e-6, 7.0501483e-7
-0.485, 1.0991449e-6, 6.8397253e-7
-0.486, 1.1163779e-6, 7.0387694e-7
-0.487, 1.0786305e-6, 5.9678564e-7
-0.488, 1.0828851e-6, 6.7851408e-7
-0.489, 1.0320439e-6, 6.7445734e-7
-0.490, 1.0852928e-6, 6.8830963e-7
-0.491, 1.0412953e-6, 6.8080629e-7
-0.492, 1.0568295e-6, 6.2857993e-7
-0.493, 1.0608533e-6, 6.4136026e-7
-0.494, 1.0024099e-6, 5.9267944e-7
-0.495, 1.0517668e-6, 6.4467497e-7
-0.496, 9.8496264e-7, 6.4676925e-7
-0.497, 1.0175485e-6, 6.6448035e-7
-0.498, 1.0066151e-6, 6.8626480e-7
-0.499, 9.8408862e-7, 6.1317752e-7
-0.500, 1.0171857e-6, 6.1235301e-7
