Dec. 9, 2005   02:33:56
Square Wave Voltammetry
File: d:\ida_biofilms\11_28_18_blankidapyo\50um_transfer\50um_pyo_transfer_swv_39.txt
Data Source:  Experiment
Instrument Model:  CHI760B
Header: 
Note: 

Init E (V) = 0.1
Final E (V) = -0.5
Incr E (V) = 0.001
Amplitude (V) = 0.025
Frequency (Hz) = 300
Quiet Time (sec) = 2
Sensitivity (A/V) = 1e-6
Sens 2 (A/V) = 1e-6

Potential/V, i1/A, i2/A

0.099, 6.9302604e-7, 3.7970074e-7
0.098, 5.9632390e-7, 4.5672925e-7
0.097, 6.5069412e-7, 4.2635321e-7
0.096, 6.5018287e-7, 4.6253402e-7
0.095, 6.2826655e-7, 3.6139593e-7
0.094, 6.5486631e-7, 4.2656760e-7
0.093, 5.8766625e-7, 4.1624435e-7
0.092, 6.3867230e-7, 4.6662376e-7
0.091, 6.0427249e-7, 4.3088818e-7
0.090, 6.1081926e-7, 3.7389594e-7
0.089, 6.1576657e-7, 4.1680505e-7
0.088, 5.6853690e-7, 3.3642885e-7
0.087, 6.2051595e-7, 4.1710189e-7
0.086, 5.6683837e-7, 3.9727993e-7
0.085, 5.9017282e-7, 4.3425229e-7
0.084, 5.8365902e-7, 4.3707223e-7
0.083, 5.8430214e-7, 3.7432474e-7
0.082, 5.9497165e-7, 3.7727659e-7
0.081, 5.4225058e-7, 3.3359242e-7
0.080, 5.9103036e-7, 3.9528453e-7
0.079, 5.4726377e-7, 3.8014599e-7
0.078, 5.5461868e-7, 4.3405441e-7
0.077, 5.7031792e-7, 4.2595744e-7
0.076, 5.1888310e-7, 3.5757006e-7
0.075, 5.6423278e-7, 3.3529099e-7
0.074, 5.1261657e-7, 3.0476653e-7
0.073, 5.5570706e-7, 3.8238875e-7
0.072, 5.1914697e-7, 4.0310118e-7
0.071, 5.3306519e-7, 3.7861236e-7
0.070, 5.4447679e-7, 3.9511963e-7
0.069, 5.0966474e-7, 3.5067688e-7
0.068, 5.5679544e-7, 3.2848033e-7
0.067, 5.0935142e-7, 3.2475339e-7
0.066, 5.1490883e-7, 3.5461821e-7
0.065, 5.2444045e-7, 4.0423902e-7
0.064, 4.7978341e-7, 3.5639923e-7
0.063, 5.2508364e-7, 3.3558786e-7
0.062, 4.7257691e-7, 3.1255018e-7
0.061, 5.0971425e-7, 2.9051847e-7
0.060, 4.9004069e-7, 3.1673886e-7
0.059, 4.8357629e-7, 3.1177512e-7
0.058, 5.0763634e-7, 3.8167963e-7
0.057, 4.5826292e-7, 3.8075615e-7
0.056, 5.1297940e-7, 3.1238528e-7
0.055, 4.7618840e-7, 3.1482591e-7
0.054, 5.0765283e-7, 2.6398476e-7
0.053, 4.9246484e-7, 3.2293940e-7
0.052, 4.4309138e-7, 3.2975009e-7
0.051, 4.9297603e-7, 3.2975009e-7
0.050, 4.2381362e-7, 3.4604301e-7
0.049, 4.8387312e-7, 3.1743144e-7
0.048, 4.5508023e-7, 3.1812408e-7
0.047, 4.4818705e-7, 2.4894516e-7
0.046, 4.9411392e-7, 3.2874414e-7
0.045, 4.2325294e-7, 2.9812074e-7
0.044, 4.7778803e-7, 3.2849678e-7
0.043, 4.2336836e-7, 3.1508978e-7
0.042, 4.5709206e-7, 2.9406397e-7
0.041, 4.7074644e-7, 3.1431469e-7
0.040, 4.2730969e-7, 2.4276110e-7
0.039, 4.6911384e-7, 3.0075927e-7
0.038, 4.0758670e-7, 2.9073286e-7
0.037, 4.6197334e-7, 3.1802512e-7
0.036, 4.1464472e-7, 3.1626061e-7
0.035, 4.4690074e-7, 2.6222025e-7
0.034, 4.4802212e-7, 2.9149140e-7
0.033, 3.9878057e-7, 2.3758300e-7
0.032, 4.5151819e-7, 3.0811415e-7
0.031, 4.0009985e-7, 2.7572622e-7
0.030, 4.4503730e-7, 3.2054820e-7
0.029, 4.3534070e-7, 3.2188399e-7
0.028, 4.2279117e-7, 2.7295576e-7
0.027, 4.4005708e-7, 2.8306465e-7
0.026, 3.9459192e-7, 2.3014563e-7
0.025, 4.4554849e-7, 2.8407058e-7
0.024, 3.9304177e-7, 2.8148150e-7
0.023, 4.2862894e-7, 2.9901122e-7
0.022, 4.3294955e-7, 2.9487205e-7
0.021, 3.8195998e-7, 2.7615499e-7
0.020, 4.4602672e-7, 2.4482244e-7
0.019, 3.8194349e-7, 2.1665616e-7
0.018, 4.2587496e-7, 2.8858904e-7
0.017, 4.0216119e-7, 2.9480609e-7
0.016, 4.0346399e-7, 3.0478301e-7
0.015, 4.4211842e-7, 2.9422890e-7
0.014, 3.8868822e-7, 2.5847686e-7
0.013, 4.2914013e-7, 2.2597348e-7
0.012, 3.8715456e-7, 2.1967398e-7
0.011, 4.0011633e-7, 2.8087135e-7
0.010, 4.1998777e-7, 3.2328569e-7
0.009, 3.7345072e-7, 2.8881993e-7
0.008, 4.2661708e-7, 2.6180800e-7
0.007, 3.6433130e-7, 2.6296235e-7
0.006, 4.0753719e-7, 2.4048538e-7
0.005, 4.0295276e-7, 2.5184752e-7
0.004, 3.8888612e-7, 2.4742801e-7
0.003, 4.1388614e-7, 3.1563394e-7
0.002, 3.7894216e-7, 3.2226325e-7
0.001, 4.1710186e-7, 2.5903753e-7
-0.000, 3.7798569e-7, 2.5087456e-7
-0.001, 4.2105967e-7, 2.1950908e-7
-0.002, 4.1195673e-7, 2.7132319e-7
-0.003, 3.8070667e-7, 2.4800516e-7
-0.004, 4.1970742e-7, 2.9098021e-7
-0.005, 3.6693683e-7, 3.0448615e-7
-0.006, 4.1235251e-7, 2.7002039e-7
-0.007, 3.8969415e-7, 2.6462791e-7
-0.008, 3.8395535e-7, 2.0499716e-7
-0.009, 4.2016916e-7, 2.7791950e-7
-0.010, 3.5605291e-7, 2.6724996e-7
-0.011, 4.1441388e-7, 3.0366164e-7
-0.012, 3.6134645e-7, 2.8496106e-7
-0.013, 4.0260645e-7, 2.5595375e-7
-0.014, 4.0822982e-7, 2.7485220e-7
-0.015, 3.7368159e-7, 2.0006641e-7
-0.016, 4.3590140e-7, 2.6972359e-7
-0.017, 3.4723035e-7, 2.6215429e-7
-0.018, 4.1601345e-7, 2.9797232e-7
-0.019, 3.7612222e-7, 2.8393862e-7
-0.020, 3.8443358e-7, 2.4046889e-7
-0.021, 4.2244488e-7, 2.8031064e-7
-0.022, 3.6878382e-7, 2.0514558e-7
-0.023, 4.2003722e-7, 2.7983242e-7
-0.024, 3.6136296e-7, 2.5887260e-7
-0.025, 4.1476017e-7, 3.1466101e-7
-0.026, 4.0115526e-7, 2.9670252e-7
-0.027, 3.8933135e-7, 2.4782378e-7
-0.028, 4.2007022e-7, 2.7300524e-7
-0.029, 3.6728318e-7, 2.2528084e-7
-0.030, 4.1797588e-7, 2.8309759e-7
-0.031, 3.7730956e-7, 2.6235219e-7
-0.032, 4.0174893e-7, 2.8502703e-7
-0.033, 4.0313415e-7, 3.0841099e-7
-0.034, 3.7516577e-7, 2.4873077e-7
-0.035, 4.2447328e-7, 2.5277103e-7
-0.036, 3.7752395e-7, 2.3687389e-7
-0.037, 4.0451940e-7, 2.8128363e-7
-0.038, 3.8842438e-7, 2.8690698e-7
-0.039, 3.9780764e-7, 3.0740506e-7
-0.040, 4.2851349e-7, 2.8125064e-7
-0.041, 3.8154769e-7, 2.5946628e-7
-0.042, 4.3022854e-7, 2.3085474e-7
-0.043, 3.8679178e-7, 2.2983232e-7
-0.044, 3.9749429e-7, 2.7981594e-7
-0.045, 4.2046599e-7, 3.2493477e-7
-0.046, 3.8525812e-7, 3.1034040e-7
-0.047, 4.4103004e-7, 2.9906070e-7
-0.048, 3.7813410e-7, 2.6014240e-7
-0.049, 4.2538025e-7, 2.3614831e-7
-0.050, 4.1797588e-7, 2.7488520e-7
-0.051, 4.1050552e-7, 2.6574929e-7
-0.052, 4.2915664e-7, 3.3703901e-7
-0.053, 3.8539002e-7, 3.2528106e-7
-0.054, 4.4332222e-7, 2.8364178e-7
-0.055, 4.1429843e-7, 2.6233570e-7
-0.056, 4.3568701e-7, 2.2623732e-7
-0.057, 4.3603330e-7, 3.1319331e-7
-0.058, 4.0227664e-7, 2.6019188e-7
-0.059, 4.5006698e-7, 3.0399144e-7
-0.060, 3.9365193e-7, 2.8453229e-7
-0.061, 4.3956231e-7, 2.9140898e-7
-0.062, 4.2447328e-7, 2.7844720e-7
-0.063, 4.3204255e-7, 2.1527093e-7
-0.064, 4.4906102e-7, 3.1060426e-7
-0.065, 3.9685116e-7, 2.9366822e-7
-0.066, 4.6350698e-7, 3.1100006e-7
-0.067, 4.1795937e-7, 3.0064382e-7
-0.068, 4.6884998e-7, 2.7483571e-7
-0.069, 4.6929523e-7, 2.6807447e-7
-0.070, 4.1541978e-7, 2.4162324e-7
-0.071, 4.7859606e-7, 2.9737865e-7
-0.072, 4.0374431e-7, 2.9505344e-7
-0.073, 4.6868507e-7, 3.2838133e-7
-0.074, 4.3265271e-7, 3.2978306e-7
-0.075, 4.5306831e-7, 2.7671567e-7
-0.076, 4.9165675e-7, 2.8489512e-7
-0.077, 4.2270875e-7, 2.2900777e-7
-0.078, 4.7955257e-7, 3.1538661e-7
-0.079, 4.2061441e-7, 2.9825264e-7
-0.080, 4.8014624e-7, 3.5842757e-7
-0.081, 4.6997138e-7, 3.1180809e-7
-0.082, 4.6375436e-7, 2.8121767e-7
-0.083, 4.8692391e-7, 2.8393865e-7
-0.084, 4.3967779e-7, 2.4958828e-7
-0.085, 4.9168978e-7, 3.2376391e-7
-0.086, 4.5186448e-7, 3.3359242e-7
-0.087, 4.8606643e-7, 3.3054164e-7
-0.088, 4.9218448e-7, 3.3431803e-7
-0.089, 4.5583877e-7, 3.0846047e-7
-0.090, 5.0504730e-7, 2.5313381e-7
-0.091, 4.6391926e-7, 2.9079882e-7
-0.092, 4.9129397e-7, 3.3398823e-7
-0.093, 4.9629068e-7, 3.5860899e-7
-0.094, 4.9516933e-7, 3.6146190e-7
-0.095, 5.1192399e-7, 3.1677183e-7
-0.096, 4.7308816e-7, 3.1146178e-7
-0.097, 5.3572023e-7, 2.8835817e-7
-0.098, 4.9831908e-7, 3.2287340e-7
-0.099, 4.9838502e-7, 3.3252053e-7
-0.100, 5.2579276e-7, 3.7295598e-7
-0.101, 4.7117521e-7, 3.4991834e-7
-0.102, 5.4183829e-7, 3.3220721e-7
-0.103, 4.8916667e-7, 3.2430813e-7
-0.104, 5.3633039e-7, 2.8865500e-7
-0.105, 5.2554537e-7, 3.5974688e-7
-0.106, 5.1842136e-7, 3.1786021e-7
-0.107, 5.5562464e-7, 3.8504376e-7
-0.108, 4.9223399e-7, 3.6363869e-7
-0.109, 5.6767936e-7, 3.5524488e-7
-0.110, 5.2031783e-7, 3.3656079e-7
-0.111, 5.3812789e-7, 2.9020515e-7
-0.112, 5.7312138e-7, 3.8875419e-7
-0.113, 5.1316078e-7, 3.0705877e-7
-0.114, 5.7251123e-7, 4.0184787e-7
-0.115, 5.1667331e-7, 3.4917628e-7
-0.116, 5.7574340e-7, 3.5667955e-7
-0.117, 5.6652505e-7, 3.4005683e-7
-0.118, 5.5888978e-7, 2.8731927e-7
-0.119, 5.8710555e-7, 3.9127730e-7
-0.120, 5.2778813e-7, 3.6944346e-7
-0.121, 5.9035426e-7, 4.1388617e-7
-0.122, 5.5554216e-7, 3.5339792e-7
-0.123, 5.9924275e-7, 3.6784382e-7
-0.124, 5.9129422e-7, 3.6629370e-7
-0.125, 5.6324336e-7, 3.4018876e-7
-0.126, 6.0827978e-7, 3.6457868e-7
-0.127, 5.5831265e-7, 3.6109910e-7
-0.128, 6.0603702e-7, 4.3895221e-7
-0.129, 5.9492220e-7, 3.9406422e-7
-0.130, 5.8771570e-7, 3.6337485e-7
-0.131, 6.3379105e-7, 3.3022832e-7
-0.132, 5.6133041e-7, 3.2724347e-7
-0.133, 6.3077323e-7, 3.9150814e-7
-0.134, 5.8024540e-7, 4.0092436e-7
-0.135, 6.2406144e-7, 4.2274175e-7
-0.136, 6.3395589e-7, 4.1373778e-7
-0.137, 5.9068407e-7, 3.7910706e-7
-0.138, 6.4342157e-7, 3.1380347e-7
-0.139, 5.7749139e-7, 3.6570003e-7
-0.140, 6.3479695e-7, 3.9426209e-7
-0.141, 6.0498155e-7, 4.0422253e-7
-0.142, 6.1457922e-7, 3.9863215e-7
-0.143, 6.2604033e-7, 4.0877399e-7
-0.144, 5.9269593e-7, 3.8139927e-7
-0.145, 6.4957271e-7, 3.3644537e-7
-0.146, 6.1269930e-7, 3.9071659e-7
-0.147, 6.4175606e-7, 4.0095739e-7
-0.148, 6.3812809e-7, 4.4492185e-7
-0.149, 6.2770590e-7, 4.3045941e-7
-0.150, 6.5722440e-7, 3.9708206e-7
-0.151, 6.1881735e-7, 3.9460838e-7
-0.152, 6.6073699e-7, 3.4515250e-7
-0.153, 6.3357663e-7, 3.9584523e-7
-0.154, 6.4167364e-7, 3.9220075e-7
-0.155, 6.6391971e-7, 4.4088162e-7
-0.156, 5.9952310e-7, 4.3446667e-7
-0.157, 6.7999821e-7, 3.8941380e-7
-0.158, 6.2785432e-7, 3.7603979e-7
-0.159, 6.7035114e-7, 3.4924221e-7
-0.160, 6.7190126e-7, 4.4591133e-7
-0.161, 6.4630751e-7, 3.8911696e-7
-0.162, 6.9404837e-7, 4.3598385e-7
-0.163, 6.3031143e-7, 4.2589144e-7
-0.164, 6.9482348e-7, 4.0733931e-7
-0.165, 6.5019935e-7, 4.1200622e-7
-0.166, 6.6736629e-7, 3.7430823e-7
-0.167, 6.9223438e-7, 4.7114219e-7
-0.168, 6.3563795e-7, 3.7120793e-7
-0.169, 6.9338876e-7, 4.4441066e-7
-0.170, 6.3626464e-7, 4.3199304e-7
-0.171, 6.9485645e-7, 4.3016257e-7
-0.172, 6.9086570e-7, 3.9731287e-7
-0.173, 6.7938811e-7, 3.3238862e-7
-0.174, 7.0306885e-7, 4.7643579e-7
-0.175, 6.4650544e-7, 4.2524834e-7
-0.176, 7.0984663e-7, 4.7791991e-7
-0.177, 6.7373173e-7, 4.4389941e-7
-0.178, 7.1385386e-7, 4.2663356e-7
-0.179, 7.1520611e-7, 4.5171606e-7
-0.180, 6.8428585e-7, 3.4581211e-7
-0.181, 7.2759065e-7, 4.4106301e-7
-0.182, 6.7534785e-7, 4.4147527e-7
-0.183, 7.2353396e-7, 4.7866206e-7
-0.184, 7.1464547e-7, 4.5641593e-7
-0.185, 7.1245211e-7, 4.1546929e-7
-0.186, 7.5628469e-7, 4.2541325e-7
-0.187, 6.8697386e-7, 3.8469744e-7
-0.188, 7.4754456e-7, 4.5552542e-7
-0.189, 6.8715525e-7, 4.2846403e-7
-0.190, 7.4345485e-7, 4.9007366e-7
-0.191, 7.5160131e-7, 5.0348069e-7
-0.192, 7.1335910e-7, 4.3703926e-7
-0.193, 7.6980712e-7, 3.9338806e-7
-0.194, 7.1154511e-7, 4.0024827e-7
-0.195, 7.6875176e-7, 4.7991534e-7
-0.196, 7.3628132e-7, 4.6213825e-7
-0.197, 7.4075035e-7, 5.0926900e-7
-0.198, 7.8393975e-7, 4.8886983e-7
-0.199, 7.3626484e-7, 4.5252409e-7
-0.200, 7.9159145e-7, 4.6022532e-7
-0.201, 7.4111313e-7, 4.0925227e-7
-0.202, 7.8230721e-7, 4.8347738e-7
-0.203, 7.8877156e-7, 5.2044976e-7
-0.204, 7.6903211e-7, 5.2239562e-7
-0.205, 8.0359683e-7, 5.0921949e-7
-0.206, 7.5757100e-7, 4.7821675e-7
-0.207, 8.1611336e-7, 4.3903464e-7
-0.208, 7.8492917e-7, 4.4810457e-7
-0.209, 8.0900577e-7, 4.5959865e-7
-0.210, 8.1713574e-7, 5.3217468e-7
-0.211, 7.6947731e-7, 5.5768595e-7
-0.212, 8.2894320e-7, 4.8994173e-7
-0.213, 8.0235998e-7, 4.8138304e-7
-0.214, 8.4231726e-7, 4.6779459e-7
-0.215, 8.3379143e-7, 4.8021218e-7
-0.216, 8.2102758e-7, 5.0341475e-7
-0.217, 8.5973153e-7, 5.3233958e-7
-0.218, 8.1593191e-7, 5.5729015e-7
-0.219, 8.8308246e-7, 5.5448675e-7
-0.220, 8.5242607e-7, 5.1461200e-7
-0.221, 8.5638391e-7, 4.7617192e-7
-0.222, 9.0010099e-7, 4.9335534e-7
-0.223, 8.4850126e-7, 5.3489566e-7
-0.224, 9.0311880e-7, 5.4957252e-7
-0.225, 8.4549993e-7, 5.8207587e-7
-0.226, 8.9950731e-7, 5.4084887e-7
-0.227, 9.0519660e-7, 5.6250127e-7
-0.228, 8.9648944e-7, 4.7143908e-7
-0.229, 9.2834966e-7, 5.1009351e-7
-0.230, 8.7259428e-7, 5.5788382e-7
-0.231, 9.5615314e-7, 5.7328623e-7
-0.232, 9.0826393e-7, 5.9658777e-7
-0.233, 9.3590251e-7, 5.8977707e-7
-0.234, 9.5531220e-7, 6.0280479e-7
-0.235, 9.1457991e-7, 4.6894894e-7
-0.236, 9.7579368e-7, 5.0791675e-7
-0.237, 9.0902245e-7, 5.6672292e-7
-0.238, 9.4672049e-7, 6.0216166e-7
-0.239, 9.7181942e-7, 6.4671985e-7
-0.240, 9.5310241e-7, 5.2730991e-7
-0.241, 9.9825434e-7, 5.9944068e-7
-0.242, 9.3867294e-7, 5.3306519e-7
-0.243, 9.9701742e-7, 5.1904806e-7
-0.244, 9.7142379e-7, 5.8613261e-7
-0.245, 9.9848512e-7, 6.1456274e-7
-0.246, 1.0165591e-6, 6.8344480e-7
-0.247, 9.7013742e-7, 6.1487606e-7
-0.248, 1.0429774e-6, 5.7848086e-7
-0.249, 9.7853115e-7, 5.4358634e-7
-0.250, 1.0250188e-6, 5.5813121e-7
-0.251, 1.0153717e-6, 6.1368871e-7
-0.252, 9.9338945e-7, 6.0902187e-7
-0.253, 1.0722649e-6, 6.9132739e-7
-0.254, 9.8893690e-7, 6.1212211e-7
-0.255, 1.0578354e-6, 6.1876790e-7
-0.256, 1.0166744e-6, 5.7541354e-7
-0.257, 1.0588250e-6, 5.5305202e-7
-0.258, 1.0822420e-6, 6.5958261e-7
-0.259, 1.0147451e-6, 6.2984969e-7
-0.260, 1.0839734e-6, 6.9178918e-7
-0.261, 1.0201046e-6, 6.4726396e-7
-0.262, 1.0893164e-6, 6.3202651e-7
-0.263, 1.0638546e-6, 6.0179889e-7
-0.264, 1.0580334e-6, 5.4248142e-7
-0.265, 1.0895308e-6, 6.7104372e-7
-0.266, 1.0237820e-6, 6.3082268e-7
-0.267, 1.1083304e-6, 6.6810833e-7
-0.268, 1.0687030e-6, 6.4947375e-7
-0.269, 1.1013217e-6, 6.5003439e-7
-0.270, 1.1076047e-6, 6.4571384e-7
-0.271, 1.0737491e-6, 5.6574999e-7
-0.272, 1.1165922e-6, 6.4340520e-7
-0.273, 1.0450881e-6, 6.5448694e-7
-0.274, 1.1066647e-6, 6.8161432e-7
-0.275, 1.0866613e-6, 6.8418694e-7
-0.276, 1.1015361e-6, 6.2942092e-7
-0.277, 1.1312856e-6, 6.7096130e-7
-0.278, 1.0445439e-6, 5.8725396e-7
-0.279, 1.1280699e-6, 6.6734981e-7
-0.280, 1.0680598e-6, 6.5189795e-7
-0.281, 1.1130137e-6, 7.0288746e-7
-0.282, 1.1186701e-6, 7.1114937e-7
-0.283, 1.0987162e-6, 6.1992228e-7
-0.284, 1.1507282e-6, 6.3817760e-7
-0.285, 1.0752827e-6, 5.8156462e-7
-0.286, 1.1403060e-6, 6.9004113e-7
-0.287, 1.1024761e-6, 6.5893948e-7
-0.288, 1.0919880e-6, 6.9949033e-7
-0.289, 1.1327038e-6, 7.3748515e-7
-0.290, 1.0766350e-6, 6.2389654e-7
-0.291, 1.1395475e-6, 6.6502457e-7
-0.292, 1.0827366e-6, 5.7752436e-7
-0.293, 1.1424498e-6, 6.7437486e-7
-0.294, 1.1221827e-6, 6.6556879e-7
-0.295, 1.0992110e-6, 6.7122517e-7
-0.296, 1.1310217e-6, 7.2389673e-7
-0.297, 1.0728421e-6, 6.7318757e-7
-0.298, 1.1342538e-6, 6.6581617e-7
-0.299, 1.0994747e-6, 5.6561805e-7
-0.300, 1.1299663e-6, 6.7960246e-7
-0.301, 1.1302961e-6, 7.1078659e-7
-0.302, 1.0901246e-6, 6.6375480e-7
-0.303, 1.1330994e-6, 6.9939142e-7
-0.304, 1.0586600e-6, 6.5857671e-7
-0.305, 1.1258106e-6, 6.7966846e-7
-0.306, 1.1163448e-6, 6.0521245e-7
-0.307, 1.0912788e-6, 6.1555215e-7
-0.308, 1.1437031e-6, 6.6997188e-7
-0.309, 1.0608699e-6, 6.8961231e-7
-0.310, 1.1284161e-6, 7.3055901e-7
-0.311, 1.0880797e-6, 6.5282143e-7
-0.312, 1.1205005e-6, 6.4863275e-7
-0.313, 1.1291418e-6, 6.3004757e-7
-0.314, 1.0718197e-6, 5.9536745e-7
-0.315, 1.1188349e-6, 6.5496516e-7
-0.316, 1.0451540e-6, 6.8329638e-7
-0.317, 1.1055764e-6, 7.4620880e-7
-0.318, 1.0893494e-6, 7.0250820e-7
-0.319, 1.0876179e-6, 6.2719471e-7
-0.320, 1.1253983e-6, 6.4634054e-7
-0.321, 1.0682082e-6, 6.2536424e-7
-0.322, 1.1245409e-6, 6.7315455e-7
-0.323, 1.0648771e-6, 6.4667034e-7
-0.324, 1.1117934e-6, 7.2719490e-7
-0.325, 1.1085777e-6, 7.1901547e-7
-0.326, 1.0830994e-6, 6.6926270e-7
-0.327, 1.1266186e-6, 6.5267301e-7
-0.328, 1.0649925e-6, 6.1073683e-7
-0.329, 1.1061701e-6, 6.6939469e-7
-0.330, 1.0878323e-6, 6.6647578e-7
-0.331, 1.0820935e-6, 6.7828319e-7
-0.332, 1.1054444e-6, 7.3046010e-7
-0.333, 1.0619417e-6, 6.6121521e-7
-0.334, 1.1254642e-6, 6.7571068e-7
-0.335, 1.0675157e-6, 5.9160755e-7
-0.336, 1.1034160e-6, 6.8548968e-7
-0.337, 1.1060382e-6, 7.0067773e-7
-0.338, 1.0794714e-6, 7.2087892e-7
-0.339, 1.1286140e-6, 6.8934850e-7
-0.340, 1.0591053e-6, 6.7020267e-7
-0.341, 1.1196265e-6, 6.7932211e-7
-0.342, 1.0835282e-6, 6.3034446e-7
-0.343, 1.0904378e-6, 6.8893627e-7
-0.344, 1.1146133e-6, 7.2505111e-7
-0.345, 1.0649760e-6, 6.9553255e-7
-0.346, 1.1177301e-6, 7.4051945e-7
-0.347, 1.0560379e-6, 6.5766972e-7
-0.348, 1.1126180e-6, 6.7920666e-7
-0.349, 1.1293891e-6, 6.2599088e-7
-0.350, 1.1138548e-6, 6.5394278e-7
-0.351, 1.1449894e-6, 7.3859007e-7
-0.352, 1.0878323e-6, 7.2241255e-7
-0.353, 1.1342704e-6, 7.5621870e-7
-0.354, 1.1017340e-6, 6.8631425e-7
-0.355, 1.1431424e-6, 6.9972123e-7
-0.356, 1.1455171e-6, 6.8201012e-7
-0.357, 1.1071595e-6, 6.0476719e-7
-0.358, 1.1536471e-6, 6.8511036e-7
-0.359, 1.1015196e-6, 7.1410125e-7
-0.360, 1.1508766e-6, 7.8339554e-7
-0.361, 1.1366120e-6, 7.0260717e-7
-0.362, 1.1404049e-6, 6.8695738e-7
-0.363, 1.1702368e-6, 7.0672979e-7
-0.364, 1.1123046e-6, 6.4579632e-7
-0.365, 1.1650093e-6, 7.1476086e-7
-0.366, 1.1210448e-6, 7.0026545e-7
-0.367, 1.1765198e-6, 7.2585919e-7
-0.368, 1.1674168e-6, 7.7193442e-7
-0.369, 1.1342539e-6, 7.0818101e-7
-0.370, 1.1928787e-6, 6.9980371e-7
-0.371, 1.1318461e-6, 6.5737288e-7
-0.372, 1.1899268e-6, 7.4152541e-7
-0.373, 1.1484690e-6, 7.4287766e-7
-0.374, 1.1616122e-6, 7.4266330e-7
-0.375, 1.2012065e-6, 7.8379139e-7
-0.376, 1.1391517e-6, 7.1888360e-7
-0.377, 1.2088088e-6, 7.3323054e-7
-0.378, 1.1656193e-6, 6.7023564e-7
-0.379, 1.2153391e-6, 7.4742917e-7
-0.380, 1.2151743e-6, 7.9078347e-7
-0.381, 1.1797355e-6, 7.6034144e-7
-0.382, 1.2228095e-6, 8.0958296e-7
-0.383, 1.1698080e-6, 7.4756105e-7
-0.384, 1.2286803e-6, 7.5156834e-7
-0.385, 1.2140199e-6, 7.0950028e-7
-0.386, 1.2246400e-6, 7.0404178e-7
-0.387, 1.2398446e-6, 7.7506769e-7
-0.388, 1.1861339e-6, 7.7162122e-7
-0.389, 1.2498544e-6, 8.1898270e-7
-0.390, 1.2245740e-6, 7.9051961e-7
-0.391, 1.2555273e-6, 7.6706965e-7
-0.392, 1.2521302e-6, 7.4340539e-7
-0.393, 1.2486177e-6, 7.1167710e-7
-0.394, 1.2640364e-6, 7.9635737e-7
-0.395, 1.2267508e-6, 7.7676623e-7
-0.396, 1.2831329e-6, 8.2613974e-7
-0.397, 1.2480734e-6, 8.0755456e-7
-0.398, 1.2730570e-6, 7.7655187e-7
-0.399, 1.2908176e-6, 8.2533171e-7
-0.400, 1.2513881e-6, 7.1278197e-7
-0.401, 1.3044885e-6, 8.0851100e-7
-0.402, 1.2354250e-6, 7.9129461e-7
-0.403, 1.2870742e-6, 8.2762392e-7
-0.404, 1.2972820e-6, 8.4259750e-7
-0.405, 1.2796697e-6, 7.5915409e-7
-0.406, 1.3194785e-6, 8.1667406e-7
-0.407, 1.2731394e-6, 7.2439150e-7
-0.408, 1.3274602e-6, 7.9864958e-7
-0.409, 1.2876349e-6, 8.0191478e-7
-0.410, 1.3080174e-6, 8.3519325e-7
-0.411, 1.3251184e-6, 9.0204685e-7
-0.412, 1.2768004e-6, 7.6967524e-7
-0.413, 1.3436870e-6, 8.1716871e-7
-0.414, 1.2837925e-6, 7.5763694e-7
-0.415, 1.3196930e-6, 7.6880121e-7
-0.416, 1.3240465e-6, 8.3692476e-7
-0.417, 1.3032517e-6, 7.8469839e-7
-0.418, 1.3407187e-6, 8.8016361e-7
-0.419, 1.2785649e-6, 8.4411471e-7
-0.420, 1.3523284e-6, 8.2884424e-7
-0.421, 1.3106725e-6, 7.9568122e-7
-0.422, 1.3461442e-6, 7.6593187e-7
-0.423, 1.3499041e-6, 8.5115630e-7
-0.424, 1.3005141e-6, 7.9431254e-7
-0.425, 1.3646799e-6, 8.2259419e-7
-0.426, 1.3020478e-6, 8.3395634e-7
-0.427, 1.3265367e-6, 8.3234028e-7
-0.428, 1.3367444e-6, 8.4129476e-7
-0.429, 1.3193467e-6, 7.4513696e-7
-0.430, 1.3602273e-6, 7.9436199e-7
-0.431, 1.2867938e-6, 8.1908172e-7
-0.432, 1.3488486e-6, 8.3636405e-7
-0.433, 1.3006131e-6, 8.7274276e-7
-0.434, 1.3438851e-6, 8.3831003e-7
-0.435, 1.3492775e-6, 8.3974464e-7
-0.436, 1.3012068e-6, 8.0481715e-7
-0.437, 1.3408012e-6, 7.6490943e-7
-0.438, 1.2913288e-6, 8.1619578e-7
-0.439, 1.3264212e-6, 8.2511724e-7
-0.440, 1.3033506e-6, 8.5818141e-7
-0.441, 1.3062859e-6, 8.0961598e-7
-0.442, 1.3298843e-6, 8.2727757e-7
-0.443, 1.2773446e-6, 8.0318455e-7
-0.444, 1.3347656e-6, 7.4340539e-7
-0.445, 1.2921369e-6, 7.7726099e-7
-0.446, 1.3148447e-6, 7.9516997e-7
-0.447, 1.3041091e-6, 8.6354083e-7
-0.448, 1.2955010e-6, 8.4154215e-7
-0.449, 1.3023612e-6, 7.8360995e-7
-0.450, 1.2622390e-6, 7.9167393e-7
-0.451, 1.3117279e-6, 7.5674649e-7
-0.452, 1.2717048e-6, 7.3931562e-7
-0.453, 1.2714903e-6, 7.9355391e-7
-0.454, 1.2834297e-6, 8.1771287e-7
-0.455, 1.2293399e-6, 8.1271622e-7
-0.456, 1.2847984e-6, 8.1342529e-7
-0.457, 1.2342706e-6, 7.6016005e-7
-0.458, 1.2881956e-6, 7.6972469e-7
-0.459, 1.2678129e-6, 7.4508745e-7
-0.460, 1.2504316e-6, 7.4053594e-7
-0.461, 1.2648611e-6, 7.8158155e-7
-0.462, 1.2124368e-6, 8.0872542e-7
-0.463, 1.2762891e-6, 8.2943791e-7
-0.464, 1.2224302e-6, 7.7653544e-7
-0.465, 1.2306756e-6, 7.4996876e-7
-0.466, 1.2456658e-6, 7.3746867e-7
-0.467, 1.1926478e-6, 6.6515651e-7
-0.468, 1.2417904e-6, 7.5918706e-7
-0.469, 1.1772454e-6, 7.3136709e-7
-0.470, 1.2146465e-6, 7.7991604e-7
-0.471, 1.1934394e-6, 7.7854730e-7
-0.472, 1.1911802e-6, 6.9986964e-7
-0.473, 1.2205832e-6, 7.7444111e-7
-0.474, 1.1502004e-6, 6.8867240e-7
-0.475, 1.2071927e-6, 7.4272924e-7
-0.476, 1.1535647e-6, 7.1934528e-7
-0.477, 1.1768497e-6, 7.3987638e-7
-0.478, 1.1771959e-6, 7.8786462e-7
-0.479, 1.1421200e-6, 6.8581949e-7
-0.480, 1.1803127e-6, 7.0298643e-7
-0.481, 1.1155038e-6, 6.5722446e-7
-0.482, 1.1432085e-6, 6.6959251e-7
-0.483, 1.1310876e-6, 7.0918696e-7
-0.484, 1.0956323e-6, 6.7993227e-7
-0.485, 1.1441319e-6, 7.3052610e-7
-0.486, 1.0701376e-6, 7.0465205e-7
-0.487, 1.1128818e-6, 6.8324692e-7
-0.488, 1.0776574e-6, 6.6975747e-7
-0.489, 1.1012557e-6, 6.0682856e-7
-0.490, 1.1010250e-6, 7.0603721e-7
-0.491, 1.0491943e-6, 6.6263340e-7
-0.492, 1.1014207e-6, 6.7693099e-7
-0.493, 1.0234028e-6, 7.1022589e-7
-0.494, 1.0790261e-6, 6.9154180e-7
-0.495, 1.0432907e-6, 6.4949023e-7
-0.496, 1.0308236e-6, 5.7030144e-7
-0.497, 1.0544219e-6, 6.2932202e-7
-0.498, 9.9492308e-7, 6.4630751e-7
-0.499, 1.0196758e-6, 6.4187151e-7
-0.500, 9.8707346e-7, 6.8806224e-7
