Dec. 9, 2005   02:58:22
Square Wave Voltammetry
File: d:\ida_biofilms\11_28_18_blankidapyo\75um_transfer\75um_pyo_transfer_swv_17.txt
Data Source:  Experiment
Instrument Model:  CHI760B
Header: 
Note: 

Init E (V) = 0.1
Final E (V) = -0.5
Incr E (V) = 0.001
Amplitude (V) = 0.025
Frequency (Hz) = 300
Quiet Time (sec) = 2
Sensitivity (A/V) = 1e-6
Sens 2 (A/V) = 1e-6

Potential/V, i1/A, i2/A

0.099, 6.0707595e-7, 2.5745439e-7
0.098, 5.9944068e-7, 3.6419939e-7
0.097, 5.9721441e-7, 3.8870473e-7
0.096, 5.5806527e-7, 4.1790992e-7
0.095, 6.1208914e-7, 3.5709184e-7
0.094, 5.3809492e-7, 3.4563072e-7
0.093, 6.0047955e-7, 3.8543953e-7
0.092, 5.5638316e-7, 2.9866493e-7
0.091, 5.6913058e-7, 3.4531740e-7
0.090, 5.9211874e-7, 3.6947642e-7
0.089, 5.2505067e-7, 3.6040649e-7
0.088, 5.8606668e-7, 3.9203587e-7
0.087, 5.2910741e-7, 3.1701919e-7
0.086, 5.5733960e-7, 3.3636292e-7
0.085, 5.5245840e-7, 3.0824609e-7
0.084, 5.2681526e-7, 2.7536339e-7
0.083, 5.6294652e-7, 3.3723691e-7
0.082, 4.7856309e-7, 3.3913335e-7
0.081, 5.3890290e-7, 3.8634653e-7
0.080, 5.0318386e-7, 3.4328906e-7
0.079, 5.1917993e-7, 2.9747758e-7
0.078, 5.2575979e-7, 3.5349683e-7
0.077, 4.8728668e-7, 2.5742145e-7
0.076, 5.3557176e-7, 3.2335163e-7
0.075, 4.6401823e-7, 3.1532065e-7
0.074, 5.1662386e-7, 3.4638930e-7
0.073, 5.0588835e-7, 3.6545268e-7
0.072, 4.8743516e-7, 2.8751714e-7
0.071, 4.9780783e-7, 3.1246771e-7
0.070, 4.6467784e-7, 2.4920899e-7
0.069, 5.0887320e-7, 2.7066352e-7
0.068, 4.6167651e-7, 3.2033384e-7
0.067, 4.7561122e-7, 3.1213790e-7
0.066, 4.8210859e-7, 3.6921259e-7
0.065, 4.4015601e-7, 3.1073620e-7
0.064, 4.9746154e-7, 2.9629024e-7
0.063, 4.3530770e-7, 2.8662663e-7
0.062, 4.6855314e-7, 2.5046234e-7
0.061, 4.7338494e-7, 3.3289982e-7
0.060, 4.4480640e-7, 2.7503359e-7
0.059, 4.7885987e-7, 3.2998096e-7
0.058, 4.1464475e-7, 3.0936746e-7
0.057, 4.6640938e-7, 2.7554483e-7
0.056, 4.3835848e-7, 2.6880008e-7
0.055, 4.4149175e-7, 2.3853946e-7
0.054, 4.6405120e-7, 2.6449598e-7
0.053, 4.0705896e-7, 2.6790957e-7
0.052, 4.5984604e-7, 2.9487205e-7
0.051, 4.0674564e-7, 3.1052181e-7
0.050, 4.5061117e-7, 2.7331856e-7
0.049, 4.3771536e-7, 2.7163651e-7
0.048, 4.1993829e-7, 2.2211462e-7
0.047, 4.4864879e-7, 2.5694320e-7
0.046, 3.9507017e-7, 2.9249736e-7
0.045, 4.3806170e-7, 2.7328559e-7
0.044, 4.0872453e-7, 2.8484561e-7
0.043, 4.2732614e-7, 2.9380016e-7
0.042, 4.2505042e-7, 2.8758308e-7
0.041, 4.1185780e-7, 2.4508631e-7
0.040, 4.4277806e-7, 2.1005985e-7
0.039, 3.8586828e-7, 2.3703879e-7
0.038, 4.2892577e-7, 2.8291623e-7
0.037, 4.1629380e-7, 2.8042609e-7
0.036, 4.0047917e-7, 3.0527772e-7
0.035, 4.3128398e-7, 2.9353629e-7
0.034, 3.8827594e-7, 2.5742142e-7
0.033, 4.2935454e-7, 2.2943652e-7
0.032, 3.7818359e-7, 1.9337115e-7
0.031, 4.3324633e-7, 2.6814044e-7
0.030, 4.2041651e-7, 2.6546894e-7
0.029, 3.8357607e-7, 2.7773808e-7
0.028, 4.3844096e-7, 2.6034030e-7
0.027, 3.6347376e-7, 2.3573602e-7
0.026, 4.2435781e-7, 2.7881001e-7
0.025, 3.8680827e-7, 1.9909346e-7
0.024, 3.9427857e-7, 2.4843393e-7
0.023, 4.3040993e-7, 2.8044258e-7
0.022, 3.6258328e-7, 2.5724003e-7
0.021, 4.2514938e-7, 2.9196966e-7
0.020, 3.7460507e-7, 2.2232899e-7
0.019, 4.1733273e-7, 2.3901768e-7
0.018, 4.0135313e-7, 2.1466077e-7
0.017, 3.7739201e-7, 2.0023133e-7
0.016, 4.0428853e-7, 2.6504017e-7
0.015, 3.4744471e-7, 2.4660346e-7
0.014, 4.1271534e-7, 2.7452239e-7
0.013, 3.7315388e-7, 2.5867473e-7
0.012, 3.9935776e-7, 2.2223006e-7
0.011, 3.9739535e-7, 2.3649460e-7
0.010, 3.5573959e-7, 1.8987510e-7
0.009, 4.0819683e-7, 2.6223674e-7
0.008, 3.4955553e-7, 2.4239830e-7
0.007, 4.0153458e-7, 2.8016223e-7
0.006, 3.8456551e-7, 2.9732917e-7
0.005, 3.7895865e-7, 2.2758957e-7
0.004, 4.0483269e-7, 2.4508631e-7
0.003, 3.6001069e-7, 1.9205189e-7
0.002, 4.0146858e-7, 2.3029403e-7
0.001, 3.6950939e-7, 2.5479940e-7
-0.000, 3.8746788e-7, 2.3469711e-7
-0.001, 3.8903454e-7, 3.1525468e-7
-0.002, 3.5804831e-7, 2.6352302e-7
-0.003, 4.1197325e-7, 2.3626373e-7
-0.004, 3.5239196e-7, 2.3573602e-7
-0.005, 3.8835839e-7, 2.1312712e-7
-0.006, 3.8702265e-7, 2.7651777e-7
-0.007, 3.7615521e-7, 2.2500052e-7
-0.008, 4.0465130e-7, 2.7321963e-7
-0.009, 3.4930818e-7, 2.5498079e-7
-0.010, 4.0580568e-7, 2.3499393e-7
-0.011, 3.6452917e-7, 2.4117799e-7
-0.012, 3.7828252e-7, 2.0211129e-7
-0.013, 4.0552533e-7, 2.7542939e-7
-0.014, 3.6268221e-7, 2.3507640e-7
-0.015, 4.0461833e-7, 2.7805143e-7
-0.016, 3.5537681e-7, 2.5882315e-7
-0.017, 3.9671923e-7, 2.5509624e-7
-0.018, 3.8318029e-7, 2.4838448e-7
-0.019, 3.7437420e-7, 1.7793576e-7
-0.020, 4.1230305e-7, 2.3004668e-7
-0.021, 3.5066043e-7, 2.4647153e-7
-0.022, 4.0249103e-7, 2.4652101e-7
-0.023, 3.7068025e-7, 2.7391224e-7
-0.024, 4.0280435e-7, 2.6555139e-7
-0.025, 4.1015926e-7, 2.6375389e-7
-0.026, 3.7561102e-7, 1.9460795e-7
-0.027, 4.0362886e-7, 2.0659677e-7
-0.028, 3.5417298e-7, 2.3809422e-7
-0.029, 4.0382676e-7, 2.7815037e-7
-0.030, 3.8131682e-7, 2.7603954e-7
-0.031, 3.7305495e-7, 2.6850324e-7
-0.032, 4.1273179e-7, 2.5826245e-7
-0.033, 3.7763937e-7, 2.4797220e-7
-0.034, 4.1672257e-7, 1.9630653e-7
-0.035, 3.6696983e-7, 2.0964757e-7
-0.036, 4.1415001e-7, 2.5547550e-7
-0.037, 4.1604648e-7, 2.8543931e-7
-0.038, 3.7892565e-7, 2.9490502e-7
-0.039, 4.2800229e-7, 2.5283697e-7
-0.040, 3.6909717e-7, 2.4678485e-7
-0.041, 4.1761308e-7, 2.3034353e-7
-0.042, 3.9325613e-7, 2.2072939e-7
-0.043, 3.9662029e-7, 2.5280400e-7
-0.044, 4.2387956e-7, 2.8355936e-7
-0.045, 3.7289001e-7, 2.9102969e-7
-0.046, 4.3492844e-7, 2.8438387e-7
-0.047, 3.9332213e-7, 2.2711134e-7
-0.048, 4.3166324e-7, 2.5466747e-7
-0.049, 4.1751412e-7, 2.3454868e-7
-0.050, 3.9071659e-7, 2.6358899e-7
-0.051, 4.3575295e-7, 2.7041617e-7
-0.052, 3.7412684e-7, 2.9734565e-7
-0.053, 4.3509334e-7, 2.9170582e-7
-0.054, 4.0615197e-7, 2.5775125e-7
-0.055, 4.2589147e-7, 2.3433432e-7
-0.056, 4.3102011e-7, 2.3129999e-7
-0.057, 3.9505369e-7, 2.6391882e-7
-0.058, 4.3860589e-7, 2.7800195e-7
-0.059, 3.9591117e-7, 2.8042609e-7
-0.060, 4.3966128e-7, 3.1733254e-7
-0.061, 4.2871139e-7, 2.7053161e-7
-0.062, 4.3303197e-7, 2.6304477e-7
-0.063, 4.3735258e-7, 2.4145834e-7
-0.064, 4.0211171e-7, 2.2443982e-7
-0.065, 4.5758679e-7, 2.8631331e-7
-0.066, 4.1029116e-7, 3.0230939e-7
-0.067, 4.4404786e-7, 3.2848030e-7
-0.068, 4.5117184e-7, 3.0943340e-7
-0.069, 4.0747125e-7, 2.6992146e-7
-0.070, 4.7096083e-7, 2.6264902e-7
-0.071, 4.1471071e-7, 2.1934417e-7
-0.072, 4.5656435e-7, 2.9469066e-7
-0.073, 4.3980970e-7, 3.0986217e-7
-0.074, 4.4977014e-7, 2.8759962e-7
-0.075, 4.8121808e-7, 3.0615175e-7
-0.076, 4.2407748e-7, 2.7760615e-7
-0.077, 4.9254731e-7, 2.8118467e-7
-0.078, 4.4662039e-7, 2.2655064e-7
-0.079, 4.5959865e-7, 3.1743144e-7
-0.080, 4.7894235e-7, 3.3118476e-7
-0.081, 4.4670287e-7, 2.9706530e-7
-0.082, 4.9981975e-7, 3.3019535e-7
-0.083, 4.2970083e-7, 2.6886605e-7
-0.084, 4.9944043e-7, 3.1022498e-7
-0.085, 4.8131710e-7, 2.5390887e-7
-0.086, 4.8657762e-7, 2.6337460e-7
-0.087, 5.0578939e-7, 3.4478970e-7
-0.088, 4.6111580e-7, 3.1997104e-7
-0.089, 5.0945039e-7, 3.6937746e-7
-0.090, 4.8581904e-7, 3.0402444e-7
-0.091, 5.2031783e-7, 2.9401451e-7
-0.092, 5.1574983e-7, 2.9416293e-7
-0.093, 4.9576300e-7, 2.4602627e-7
-0.094, 5.2170304e-7, 3.3172898e-7
-0.095, 4.7541334e-7, 3.1726654e-7
-0.096, 5.3514304e-7, 3.8431813e-7
-0.097, 5.2419313e-7, 3.2658386e-7
-0.098, 5.2028486e-7, 3.0991166e-7
-0.099, 5.5732312e-7, 3.4183785e-7
-0.100, 4.9711525e-7, 2.6823938e-7
-0.101, 5.5780140e-7, 3.3679169e-7
-0.102, 5.0171616e-7, 3.1187403e-7
-0.103, 5.6096758e-7, 3.7173567e-7
-0.104, 5.5418991e-7, 3.6957539e-7
-0.105, 5.2392926e-7, 3.2961816e-7
-0.106, 5.9023876e-7, 3.0755348e-7
-0.107, 5.2099392e-7, 2.8388916e-7
-0.108, 5.7485289e-7, 3.6992168e-7
-0.109, 5.4436140e-7, 3.5163339e-7
-0.110, 5.5198012e-7, 3.6141245e-7
-0.111, 5.8981004e-7, 3.8141576e-7
-0.112, 5.3954608e-7, 3.3545592e-7
-0.113, 6.0644925e-7, 3.5252390e-7
-0.114, 5.5630073e-7, 2.8629682e-7
-0.115, 6.0422303e-7, 3.5082533e-7
-0.116, 5.9526849e-7, 3.8372448e-7
-0.117, 5.6860290e-7, 3.7635309e-7
-0.118, 6.1812477e-7, 3.8337816e-7
-0.119, 5.5996168e-7, 3.3720391e-7
-0.120, 6.2040050e-7, 3.5217758e-7
-0.121, 5.7592479e-7, 3.0499740e-7
-0.122, 6.1322697e-7, 3.2857923e-7
-0.123, 6.1634375e-7, 3.8799561e-7
-0.124, 5.6944390e-7, 3.8898503e-7
-0.125, 6.3417031e-7, 4.3636311e-7
-0.126, 5.9162403e-7, 3.5333193e-7
-0.127, 6.3260370e-7, 3.7648502e-7
-0.128, 6.1863591e-7, 3.6457868e-7
-0.129, 6.1601395e-7, 3.0976324e-7
-0.130, 6.3769937e-7, 3.8580231e-7
-0.131, 5.8793012e-7, 4.0417308e-7
-0.132, 6.6507403e-7, 4.2112563e-7
-0.133, 6.1743214e-7, 4.2204908e-7
-0.134, 6.5282137e-7, 3.6175874e-7
-0.135, 6.5636692e-7, 3.6972381e-7
-0.136, 6.0862607e-7, 3.4434444e-7
-0.137, 6.7933865e-7, 3.9693361e-7
-0.138, 6.1170982e-7, 3.8383990e-7
-0.139, 6.6607998e-7, 4.2096070e-7
-0.140, 6.5745530e-7, 4.3456561e-7
-0.141, 6.5209576e-7, 3.7518225e-7
-0.142, 6.9505433e-7, 3.7317039e-7
-0.143, 6.3713867e-7, 3.3690711e-7
-0.144, 6.9502141e-7, 4.2101021e-7
-0.145, 6.5110635e-7, 3.9713152e-7
-0.146, 6.6970802e-7, 4.3448318e-7
-0.147, 6.9482348e-7, 4.5634997e-7
-0.148, 6.5181547e-7, 3.8469744e-7
-0.149, 7.1215527e-7, 4.1461178e-7
-0.150, 6.4714857e-7, 3.5052850e-7
-0.151, 7.0831288e-7, 4.3181166e-7
-0.152, 6.8939801e-7, 4.3451615e-7
-0.153, 6.8656158e-7, 4.1736570e-7
-0.154, 7.1276543e-7, 4.7386322e-7
-0.155, 6.6213869e-7, 4.0671267e-7
-0.156, 7.2012040e-7, 4.3098714e-7
-0.157, 6.9075020e-7, 3.5704238e-7
-0.158, 7.1464547e-7, 4.4083211e-7
-0.159, 7.1731694e-7, 4.6748124e-7
-0.160, 6.8431882e-7, 4.2003722e-7
-0.161, 7.3570413e-7, 4.7932167e-7
-0.162, 6.8560519e-7, 4.2221401e-7
-0.163, 7.3331296e-7, 4.4564746e-7
-0.164, 7.2323712e-7, 3.8257014e-7
-0.165, 7.1057218e-7, 3.9643891e-7
-0.166, 7.4871542e-7, 4.6677218e-7
-0.167, 6.8481353e-7, 4.4846738e-7
-0.168, 7.4556567e-7, 5.0074323e-7
-0.169, 7.0087560e-7, 4.4632355e-7
-0.170, 7.6222136e-7, 4.2602335e-7
-0.171, 7.5423981e-7, 4.1307814e-7
-0.172, 7.1269949e-7, 3.9023834e-7
-0.173, 7.6225433e-7, 4.2745808e-7
-0.174, 6.9723114e-7, 4.3449967e-7
-0.175, 7.6436515e-7, 5.0646554e-7
-0.176, 7.4512047e-7, 4.8329593e-7
-0.177, 7.4873191e-7, 4.2031758e-7
-0.178, 7.9665415e-7, 4.6842126e-7
-0.179, 7.1894948e-7, 3.9366842e-7
-0.180, 7.8966207e-7, 4.6573325e-7
-0.181, 7.1927934e-7, 4.3552211e-7
-0.182, 7.7938830e-7, 5.0285405e-7
-0.183, 7.7694767e-7, 5.1076961e-7
-0.184, 7.5483354e-7, 4.4211839e-7
-0.185, 8.0437189e-7, 4.5559142e-7
-0.186, 7.4833611e-7, 3.9912686e-7
-0.187, 8.0765358e-7, 4.7643579e-7
-0.188, 7.6675633e-7, 4.7211518e-7
-0.189, 7.8392333e-7, 4.8301558e-7
-0.190, 8.0458631e-7, 5.5051248e-7
-0.191, 7.6479392e-7, 4.5824643e-7
-0.192, 8.2948736e-7, 4.8776496e-7
-0.193, 7.8080654e-7, 4.0989539e-7
-0.194, 8.2035149e-7, 4.7918974e-7
-0.195, 8.1509086e-7, 5.1660737e-7
-0.196, 8.0987979e-7, 4.9754397e-7
-0.197, 8.3608364e-7, 5.5994519e-7
-0.198, 8.0297013e-7, 5.1147873e-7
-0.199, 8.6095190e-7, 4.9249786e-7
-0.200, 8.3786472e-7, 4.5308479e-7
-0.201, 8.4754481e-7, 4.2976683e-7
-0.202, 8.6675664e-7, 5.3725387e-7
-0.203, 8.1604736e-7, 5.1349059e-7
-0.204, 8.7732724e-7, 5.6020906e-7
-0.205, 8.2749199e-7, 5.1733298e-7
-0.206, 8.8423678e-7, 5.0687777e-7
-0.207, 8.9022296e-7, 5.0788373e-7
-0.208, 8.7345182e-7, 4.4223387e-7
-0.209, 9.2267692e-7, 5.3758367e-7
-0.210, 8.5795045e-7, 5.2292330e-7
-0.211, 9.2615647e-7, 5.5234295e-7
-0.212, 8.8356074e-7, 5.6166022e-7
-0.213, 9.0217884e-7, 5.3093788e-7
-0.214, 9.3791436e-7, 5.7302236e-7
-0.215, 8.8539116e-7, 4.5981304e-7
-0.216, 9.5582334e-7, 5.4810482e-7
-0.217, 9.0724154e-7, 5.2470432e-7
-0.218, 9.5206349e-7, 5.9317415e-7
-0.219, 9.5424025e-7, 5.9716496e-7
-0.220, 9.3976132e-7, 5.2044976e-7
-0.221, 9.9480769e-7, 5.9291028e-7
-0.222, 9.4878186e-7, 4.8073986e-7
-0.223, 1.0038282e-6, 5.7617217e-7
-0.224, 9.6654242e-7, 5.7148873e-7
-0.225, 9.8798046e-7, 5.8717154e-7
-0.226, 1.0097318e-6, 6.8060842e-7
-0.227, 9.8133467e-7, 5.7437467e-7
-0.228, 1.0418064e-6, 5.9289380e-7
-0.229, 9.8417104e-7, 5.1576637e-7
-0.230, 1.0389700e-6, 5.7572692e-7
-0.231, 1.0493263e-6, 5.8854027e-7
-0.232, 1.0111501e-6, 5.7406135e-7
-0.233, 1.0736997e-6, 6.9075020e-7
-0.234, 1.0190162e-6, 6.3192755e-7
-0.235, 1.0913777e-6, 6.0897230e-7
-0.236, 1.0606554e-6, 5.4322356e-7
-0.237, 1.0862657e-6, 5.5933504e-7
-0.238, 1.1108864e-6, 6.5659776e-7
-0.239, 1.0467867e-6, 6.1513992e-7
-0.240, 1.1275586e-6, 6.3987613e-7
-0.241, 1.0654048e-6, 6.4490581e-7
-0.242, 1.1307249e-6, 6.5110635e-7
-0.243, 1.1219518e-6, 6.5493225e-7
-0.244, 1.1020803e-6, 5.5198018e-7
-0.245, 1.1625192e-6, 6.6715188e-7
-0.246, 1.0832314e-6, 6.4149219e-7
-0.247, 1.1764373e-6, 7.0437159e-7
-0.248, 1.1178620e-6, 6.5950019e-7
-0.249, 1.1542078e-6, 6.4025539e-7
-0.250, 1.1833965e-6, 6.9213547e-7
-0.251, 1.1308073e-6, 5.8357654e-7
-0.252, 1.2194619e-6, 6.4962217e-7
-0.253, 1.1232710e-6, 6.6477719e-7
-0.254, 1.1873378e-6, 7.0804907e-7
-0.255, 1.1677138e-6, 7.4363629e-7
-0.256, 1.1789110e-6, 6.3451660e-7
-0.257, 1.2125028e-6, 6.9520274e-7
-0.258, 1.1591220e-6, 5.9761015e-7
-0.259, 1.2290595e-6, 6.6922973e-7
-0.260, 1.1861505e-6, 6.7876141e-7
-0.261, 1.2055602e-6, 7.2110981e-7
-0.262, 1.2390199e-6, 7.9236656e-7
-0.263, 1.2014705e-6, 6.9526874e-7
-0.264, 1.2332316e-6, 6.9833607e-7
-0.265, 1.1973807e-6, 6.3558855e-7
-0.266, 1.2398116e-6, 6.2881077e-7
-0.267, 1.2147950e-6, 7.2704648e-7
-0.268, 1.2281855e-6, 6.9469155e-7
-0.269, 1.2551150e-6, 8.0087580e-7
-0.270, 1.1960285e-6, 7.1128125e-7
-0.271, 1.2826877e-6, 6.9251473e-7
-0.272, 1.2060879e-6, 6.7045005e-7
-0.273, 1.2533999e-6, 6.5377787e-7
-0.274, 1.2565167e-6, 7.6627816e-7
-0.275, 1.2186867e-6, 6.9680237e-7
-0.276, 1.2812693e-6, 7.5618578e-7
-0.277, 1.2228754e-6, 7.5191463e-7
-0.278, 1.2724138e-6, 7.0968167e-7
-0.279, 1.2582483e-6, 7.1047327e-7
-0.280, 1.2386076e-6, 6.3981014e-7
-0.281, 1.2891685e-6, 7.6542062e-7
-0.282, 1.1992936e-6, 7.1586572e-7
-0.283, 1.2763386e-6, 7.6157824e-7
-0.284, 1.2157844e-6, 7.3466526e-7
-0.285, 1.2652898e-6, 7.2775561e-7
-0.286, 1.2865299e-6, 7.1476086e-7
-0.287, 1.2422852e-6, 6.1640969e-7
-0.288, 1.2894983e-6, 7.7409476e-7
-0.289, 1.2221664e-6, 7.0582280e-7
-0.290, 1.2772621e-6, 7.7816799e-7
-0.291, 1.2537132e-6, 7.3466526e-7
-0.292, 1.2445114e-6, 7.2355044e-7
-0.293, 1.2782186e-6, 7.5725768e-7
-0.294, 1.2273445e-6, 6.0902181e-7
-0.295, 1.2677469e-6, 7.0382742e-7
-0.296, 1.2183241e-6, 6.9409793e-7
-0.297, 1.2405866e-6, 7.5295355e-7
-0.298, 1.2663618e-6, 7.7275899e-7
-0.299, 1.2202534e-6, 6.9099758e-7
-0.300, 1.2640694e-6, 7.4828665e-7
-0.301, 1.2184395e-6, 6.5423961e-7
-0.302, 1.2504481e-6, 6.4427917e-7
-0.303, 1.2188682e-6, 7.0532815e-7
-0.304, 1.2352270e-6, 7.2590865e-7
-0.305, 1.2468531e-6, 7.9345494e-7
-0.306, 1.1952038e-6, 7.3359337e-7
-0.307, 1.2608702e-6, 6.7063149e-7
-0.308, 1.1807909e-6, 7.1081956e-7
-0.309, 1.2237331e-6, 6.6670668e-7
-0.310, 1.2173675e-6, 7.2467179e-7
-0.311, 1.1827863e-6, 6.9769294e-7
-0.312, 1.2484197e-6, 7.7419372e-7
-0.313, 1.1695113e-6, 7.3567116e-7
-0.314, 1.2150754e-6, 6.9408139e-7
-0.315, 1.1954843e-6, 6.9086570e-7
-0.316, 1.2072258e-6, 6.2513334e-7
-0.317, 1.2311374e-6, 7.3801289e-7
-0.318, 1.1609525e-6, 6.8771595e-7
-0.319, 1.2236176e-6, 7.2546339e-7
-0.320, 1.1428126e-6, 7.6660797e-7
-0.321, 1.2077369e-6, 6.9680232e-7
-0.322, 1.1837428e-6, 7.1171007e-7
-0.323, 1.1835119e-6, 6.0392620e-7
-0.324, 1.2155206e-6, 6.7340193e-7
-0.325, 1.1358535e-6, 7.1631098e-7
-0.326, 1.1960119e-6, 7.2633736e-7
-0.327, 1.1547520e-6, 7.5178275e-7
-0.328, 1.1828192e-6, 7.2744228e-7
-0.329, 1.1923015e-6, 7.3496210e-7
-0.330, 1.1770476e-6, 6.8070733e-7
-0.331, 1.1759591e-6, 6.3573691e-7
-0.332, 1.1585119e-6, 6.9474100e-7
-0.333, 1.1735845e-6, 6.9078322e-7
-0.334, 1.1659656e-6, 7.5188166e-7
-0.335, 1.1681755e-6, 7.0344817e-7
-0.336, 1.1815166e-6, 7.2186839e-7
-0.337, 1.1475784e-6, 7.1048976e-7
-0.338, 1.1971993e-6, 6.3331277e-7
-0.339, 1.1693628e-6, 7.0554250e-7
-0.340, 1.1726445e-6, 7.1396931e-7
-0.341, 1.1810878e-6, 7.6781174e-7
-0.342, 1.1762230e-6, 7.4784134e-7
-0.343, 1.1974961e-6, 7.1385386e-7
-0.344, 1.1390526e-6, 7.0610315e-7
-0.345, 1.1979414e-6, 6.5545993e-7
-0.346, 1.1748542e-6, 6.7298964e-7
-0.347, 1.1674169e-6, 7.1921335e-7
-0.348, 1.1904710e-6, 7.5738956e-7
-0.349, 1.1499696e-6, 7.7425966e-7
-0.350, 1.2016353e-6, 7.4142645e-7
-0.351, 1.1576543e-6, 6.8110313e-7
-0.352, 1.1971333e-6, 7.2800293e-7
-0.353, 1.1997388e-6, 6.8308202e-7
-0.354, 1.1948905e-6, 7.0089209e-7
-0.355, 1.2048840e-6, 7.6593176e-7
-0.356, 1.1638219e-6, 7.5311846e-7
-0.357, 1.2125192e-6, 7.8116926e-7
-0.358, 1.1898444e-6, 7.0907151e-7
-0.359, 1.2058734e-6, 7.3743570e-7
-0.360, 1.2229743e-6, 7.1091847e-7
-0.361, 1.1873213e-6, 6.6990589e-7
-0.362, 1.2164440e-6, 7.4668702e-7
-0.363, 1.1758601e-6, 7.4134402e-7
-0.364, 1.2339738e-6, 8.1710277e-7
-0.365, 1.2303293e-6, 7.6987311e-7
-0.366, 1.2023279e-6, 7.2666717e-7
-0.367, 1.2549996e-6, 7.5747204e-7
-0.368, 1.2024764e-6, 6.8158135e-7
-0.369, 1.2612165e-6, 7.6248523e-7
-0.370, 1.2093860e-6, 7.2952014e-7
-0.371, 1.2596664e-6, 7.9139363e-7
-0.372, 1.2648611e-6, 8.0651569e-7
-0.373, 1.2217706e-6, 7.5287107e-7
-0.374, 1.2947258e-6, 7.3890340e-7
-0.375, 1.2302634e-6, 7.0498180e-7
-0.376, 1.2759099e-6, 7.9975445e-7
-0.377, 1.2571434e-6, 7.8951371e-7
-0.378, 1.2623379e-6, 7.8280192e-7
-0.379, 1.3171864e-6, 8.5770307e-7
-0.380, 1.2432415e-6, 7.8628148e-7
-0.381, 1.3219686e-6, 7.9206973e-7
-0.382, 1.2752503e-6, 7.3418704e-7
-0.383, 1.3104911e-6, 7.3466526e-7
-0.384, 1.3150756e-6, 8.3741941e-7
-0.385, 1.2693960e-6, 7.9523602e-7
-0.386, 1.3315334e-6, 8.4998538e-7
-0.387, 1.2576711e-6, 8.1528879e-7
-0.388, 1.3276911e-6, 8.0270627e-7
-0.389, 1.3115795e-6, 8.1497546e-7
-0.390, 1.3231725e-6, 7.0600424e-7
-0.391, 1.3641193e-6, 8.3387391e-7
-0.392, 1.2887233e-6, 8.2259419e-7
-0.393, 1.3627339e-6, 8.5250849e-7
-0.394, 1.3290598e-6, 8.6909824e-7
-0.395, 1.3543566e-6, 8.2158829e-7
-0.396, 1.3708145e-6, 8.6304618e-7
-0.397, 1.3604583e-6, 7.8834285e-7
-0.398, 1.3798184e-6, 7.6944434e-7
-0.399, 1.3443303e-6, 8.4152566e-7
-0.400, 1.3869424e-6, 8.3446758e-7
-0.401, 1.3768502e-6, 8.8107060e-7
-0.402, 1.3793567e-6, 8.6263390e-7
-0.403, 1.4074735e-6, 8.8364322e-7
-0.404, 1.3590566e-6, 8.7270973e-7
-0.405, 1.4263884e-6, 7.9698395e-7
-0.406, 1.3832484e-6, 8.5013392e-7
-0.407, 1.4173020e-6, 8.6237003e-7
-0.408, 1.4198581e-6, 9.3306619e-7
-0.409, 1.4102275e-6, 8.8390698e-7
-0.410, 1.4439677e-6, 8.7195116e-7
-0.411, 1.4041093e-6, 8.7496892e-7
-0.412, 1.4628001e-6, 8.2711267e-7
-0.413, 1.4262895e-6, 8.1565156e-7
-0.414, 1.4250857e-6, 8.8624870e-7
-0.415, 1.4525758e-6, 9.3504502e-7
-0.416, 1.4081331e-6, 9.2153903e-7
-0.417, 1.4767513e-6, 9.2142358e-7
-0.418, 1.4315171e-6, 8.6192478e-7
-0.419, 1.4768339e-6, 8.9645653e-7
-0.420, 1.4765535e-6, 8.5818141e-7
-0.421, 1.4662137e-6, 8.6736679e-7
-0.422, 1.4921372e-6, 9.3537483e-7
-0.423, 1.4380969e-6, 9.2351792e-7
-0.424, 1.4885588e-6, 9.4366965e-7
-0.425, 1.4590403e-6, 8.9662137e-7
-0.426, 1.4937038e-6, 8.8577042e-7
-0.427, 1.4947759e-6, 8.8827710e-7
-0.428, 1.4632454e-6, 8.2162126e-7
-0.429, 1.4989810e-6, 9.1380491e-7
-0.430, 1.4520976e-6, 8.8075728e-7
-0.431, 1.4871241e-6, 9.8473174e-7
-0.432, 1.4812204e-6, 9.0923686e-7
-0.433, 1.4768668e-6, 8.8455016e-7
-0.434, 1.5113326e-6, 9.0084313e-7
-0.435, 1.4591557e-6, 8.4930929e-7
-0.436, 1.5128992e-6, 9.1568478e-7
-0.437, 1.4671868e-6, 9.0912147e-7
-0.438, 1.4999869e-6, 9.4853453e-7
-0.439, 1.4969855e-6, 9.6238671e-7
-0.440, 1.4583807e-6, 8.9215246e-7
-0.441, 1.5248056e-6, 8.9032187e-7
-0.442, 1.4598318e-6, 8.4350449e-7
-0.443, 1.4948582e-6, 9.1123229e-7
-0.444, 1.4692976e-6, 9.3507799e-7
-0.445, 1.4721339e-6, 9.0892354e-7
-0.446, 1.5153728e-6, 9.8258795e-7
-0.447, 1.4510587e-6, 9.1863660e-7
-0.448, 1.5095352e-6, 9.0064520e-7
-0.449, 1.4612665e-6, 8.4853423e-7
-0.450, 1.4869756e-6, 8.4409822e-7
-0.451, 1.4847329e-6, 9.3677653e-7
-0.452, 1.4558905e-6, 8.7564513e-7
-0.453, 1.4969692e-6, 9.3407203e-7
-0.454, 1.4264378e-6, 9.1819140e-7
-0.455, 1.4839413e-6, 8.8900265e-7
-0.456, 1.4571273e-6, 9.0755486e-7
-0.457, 1.4497230e-6, 8.0166734e-7
-0.458, 1.4848320e-6, 9.1560230e-7
-0.459, 1.4170382e-6, 8.7350134e-7
-0.460, 1.4587434e-6, 9.1580023e-7
-0.461, 1.4198745e-6, 9.1113338e-7
-0.462, 1.4462104e-6, 8.9449406e-7
-0.463, 1.4474966e-6, 9.0077708e-7
-0.464, 1.4179948e-6, 8.0201369e-7
-0.465, 1.4407519e-6, 8.2470501e-7
-0.466, 1.3873712e-6, 8.6931266e-7
-0.467, 1.4311048e-6, 8.7665103e-7
-0.468, 1.3927638e-6, 9.3128506e-7
-0.469, 1.4024108e-6, 8.4706664e-7
-0.470, 1.4122064e-6, 9.0275603e-7
-0.471, 1.3607221e-6, 8.1632766e-7
-0.472, 1.4075065e-6, 7.7854730e-7
-0.473, 1.3554450e-6, 8.3793066e-7
-0.474, 1.3775427e-6, 8.4056916e-7
-0.475, 1.3808078e-6, 8.8847497e-7
-0.476, 1.3513388e-6, 8.2388044e-7
-0.477, 1.3804946e-6, 8.2511730e-7
-0.478, 1.3208473e-6, 8.2122551e-7
-0.479, 1.3696600e-6, 7.6753145e-7
-0.480, 1.3350624e-6, 8.2122546e-7
-0.481, 1.3172358e-6, 8.0940157e-7
-0.482, 1.3543731e-6, 8.7877845e-7
-0.483, 1.2775590e-6, 8.1217206e-7
-0.484, 1.3321601e-6, 8.0087580e-7
-0.485, 1.2693631e-6, 7.7444105e-7
-0.486, 1.3075887e-6, 7.4597796e-7
-0.487, 1.3022457e-6, 8.0173339e-7
-0.488, 1.2610186e-6, 7.6410129e-7
-0.489, 1.2832977e-6, 8.3860675e-7
-0.490, 1.2316651e-6, 8.2579345e-7
-0.491, 1.2633934e-6, 7.8761718e-7
-0.492, 1.2356888e-6, 7.4949048e-7
-0.493, 1.2425820e-6, 7.0458606e-7
-0.494, 1.2467376e-6, 7.5798323e-7
-0.495, 1.2072587e-6, 7.2432545e-7
-0.496, 1.2202700e-6, 7.4756110e-7
-0.497, 1.1675488e-6, 7.7183552e-7
-0.498, 1.2013879e-6, 7.8509413e-7
-0.499, 1.1942144e-6, 7.3613296e-7
-0.500, 1.1665428e-6, 6.7069743e-7
