Dec. 9, 2005   03:00:57
Square Wave Voltammetry
File: d:\ida_biofilms\11_28_18_blankidapyo\75um_transfer\75um_pyo_transfer_swv_35.txt
Data Source:  Experiment
Instrument Model:  CHI760B
Header: 
Note: 

Init E (V) = 0.1
Final E (V) = -0.5
Incr E (V) = 0.001
Amplitude (V) = 0.025
Frequency (Hz) = 300
Quiet Time (sec) = 2
Sensitivity (A/V) = 1e-6
Sens 2 (A/V) = 1e-6

Potential/V, i1/A, i2/A

0.099, 6.0763659e-7, 2.9662004e-7
0.098, 6.1500793e-7, 3.7419278e-7
0.097, 5.8722100e-7, 3.2521513e-7
0.096, 6.0724085e-7, 3.6990519e-7
0.095, 6.0760362e-7, 4.1672257e-7
0.094, 5.5847750e-7, 4.0250748e-7
0.093, 6.1317746e-7, 4.2599044e-7
0.092, 5.4785744e-7, 3.6253380e-7
0.091, 5.9526849e-7, 3.7358262e-7
0.090, 5.8677574e-7, 3.3006341e-7
0.089, 5.6317742e-7, 3.3092095e-7
0.088, 5.8718803e-7, 3.7333527e-7
0.087, 5.3400515e-7, 3.8146521e-7
0.086, 5.9078297e-7, 4.2135650e-7
0.085, 5.4615890e-7, 3.5560765e-7
0.084, 5.3758367e-7, 3.5654764e-7
0.083, 5.5823011e-7, 3.3207530e-7
0.082, 5.1560141e-7, 3.0536017e-7
0.081, 5.5649866e-7, 3.6550216e-7
0.080, 5.0100709e-7, 3.5555820e-7
0.079, 5.3614895e-7, 4.1767905e-7
0.078, 5.4309157e-7, 3.4234904e-7
0.077, 5.1992197e-7, 3.1320980e-7
0.076, 5.4375118e-7, 3.1009304e-7
0.075, 4.9121155e-7, 2.8215760e-7
0.074, 5.2839835e-7, 3.4434444e-7
0.073, 4.9962182e-7, 3.3995789e-7
0.072, 5.0870824e-7, 3.9535050e-7
0.071, 5.2010341e-7, 3.6637618e-7
0.070, 4.8327945e-7, 2.9624078e-7
0.069, 5.2326965e-7, 2.7595709e-7
0.068, 4.7033416e-7, 2.9477309e-7
0.067, 4.9604336e-7, 3.3999086e-7
0.066, 4.7978341e-7, 3.1180809e-7
0.065, 4.7800239e-7, 3.4274484e-7
0.064, 5.1264959e-7, 3.4173891e-7
0.063, 4.5910394e-7, 2.8816027e-7
0.062, 5.0550909e-7, 2.6670574e-7
0.061, 4.4384996e-7, 2.4853290e-7
0.060, 4.8740219e-7, 3.2265905e-7
0.059, 4.8247142e-7, 3.3362545e-7
0.058, 4.4297593e-7, 3.4386622e-7
0.057, 4.7933815e-7, 3.1403437e-7
0.056, 4.3250429e-7, 2.8449932e-7
0.055, 4.8806180e-7, 2.7777105e-7
0.054, 4.3588489e-7, 2.7851317e-7
0.053, 4.4543305e-7, 2.8064048e-7
0.052, 4.7904132e-7, 2.8789646e-7
0.051, 4.1611241e-7, 3.2938726e-7
0.050, 4.6645886e-7, 3.1104952e-7
0.049, 4.2417642e-7, 2.7270841e-7
0.048, 4.5527807e-7, 2.5714107e-7
0.047, 4.3181166e-7, 2.5961469e-7
0.046, 4.3766590e-7, 2.7267544e-7
0.045, 4.5714154e-7, 2.7664970e-7
0.044, 3.9648836e-7, 3.1142878e-7
0.043, 4.3779784e-7, 3.1274806e-7
0.042, 4.1476017e-7, 2.7721040e-7
0.041, 4.3014609e-7, 2.5300187e-7
0.040, 4.4239874e-7, 2.3621425e-7
0.039, 3.8364203e-7, 2.7918929e-7
0.038, 4.4216790e-7, 2.6759625e-7
0.037, 3.8548899e-7, 3.2363198e-7
0.036, 4.2132353e-7, 2.8646173e-7
0.035, 4.1406753e-7, 3.0145188e-7
0.034, 4.1622786e-7, 2.5816351e-7
0.033, 4.2785388e-7, 2.1964100e-7
0.032, 3.9236568e-7, 2.8502703e-7
0.031, 4.3059134e-7, 2.7411011e-7
0.030, 4.0077597e-7, 2.8314707e-7
0.029, 4.0455237e-7, 2.7077897e-7
0.028, 4.3418635e-7, 2.7938717e-7
0.027, 3.8651143e-7, 2.5537656e-7
0.026, 4.2755704e-7, 2.2100973e-7
0.025, 3.7124096e-7, 2.7044916e-7
0.024, 4.0912033e-7, 2.6456195e-7
0.023, 4.0127071e-7, 3.2755679e-7
0.022, 3.9109588e-7, 2.5013250e-7
0.021, 4.1701941e-7, 2.6212132e-7
0.020, 3.7282405e-7, 2.6098343e-7
0.019, 4.3022857e-7, 2.1761264e-7
0.018, 3.9327267e-7, 2.5212788e-7
0.017, 3.9655433e-7, 2.5854280e-7
0.016, 4.1527139e-7, 3.0644861e-7
0.015, 3.7993161e-7, 2.4803816e-7
0.014, 4.1980636e-7, 2.5908699e-7
0.013, 3.6825611e-7, 2.3830859e-7
0.012, 4.0527794e-7, 2.2262584e-7
0.011, 3.9759323e-7, 2.5506324e-7
0.010, 3.7775482e-7, 2.2150445e-7
0.009, 4.1034065e-7, 3.1884969e-7
0.008, 3.5633326e-7, 2.7158703e-7
0.007, 4.0846069e-7, 2.5257313e-7
0.006, 3.7488542e-7, 2.2796885e-7
0.005, 4.0018233e-7, 2.1673861e-7
0.004, 4.0641584e-7, 2.7158700e-7
0.003, 3.7224689e-7, 2.2569313e-7
0.002, 4.0602004e-7, 2.6530404e-7
0.001, 3.5638271e-7, 2.5427170e-7
-0.000, 4.0628390e-7, 2.6035679e-7
-0.001, 3.8654440e-7, 2.5057776e-7
-0.002, 3.7618818e-7, 2.0178148e-7
-0.003, 4.1640925e-7, 2.6756328e-7
-0.004, 3.4135962e-7, 2.5493131e-7
-0.005, 4.1207215e-7, 3.0471705e-7
-0.006, 3.5707535e-7, 2.5105598e-7
-0.007, 3.9998440e-7, 2.3382309e-7
-0.008, 4.0232609e-7, 2.5552498e-7
-0.009, 3.6096719e-7, 1.8403736e-7
-0.010, 4.0991188e-7, 2.5117140e-7
-0.011, 3.4055157e-7, 2.4112850e-7
-0.012, 4.0862560e-7, 3.0285361e-7
-0.013, 3.5940056e-7, 2.7679812e-7
-0.014, 3.8748436e-7, 2.2818323e-7
-0.015, 4.1050555e-7, 2.5402431e-7
-0.016, 3.6799227e-7, 1.9399781e-7
-0.017, 4.0498111e-7, 2.7354940e-7
-0.018, 3.4792293e-7, 2.5389241e-7
-0.019, 3.9289338e-7, 3.0359567e-7
-0.020, 3.8853977e-7, 2.8682450e-7
-0.021, 3.9073308e-7, 2.4155727e-7
-0.022, 4.0831227e-7, 2.3886929e-7
-0.023, 3.5018221e-7, 2.0293582e-7
-0.024, 4.0666316e-7, 2.7859562e-7
-0.025, 3.6215451e-7, 2.6556791e-7
-0.026, 4.0674564e-7, 2.6701906e-7
-0.027, 3.9614207e-7, 2.7242805e-7
-0.028, 3.6809121e-7, 2.3684092e-7
-0.029, 4.1926216e-7, 2.5527763e-7
-0.030, 3.6667299e-7, 2.1837121e-7
-0.031, 3.9284390e-7, 2.5732248e-7
-0.032, 3.8342765e-7, 2.7158703e-7
-0.033, 3.8219082e-7, 2.8967744e-7
-0.034, 4.0923572e-7, 2.6917940e-7
-0.035, 3.7148831e-7, 2.5207842e-7
-0.036, 4.2953593e-7, 2.4111202e-7
-0.037, 3.7968425e-7, 1.9886259e-7
-0.038, 3.9662029e-7, 2.5674530e-7
-0.039, 4.1476017e-7, 2.8436742e-7
-0.040, 3.7422578e-7, 2.9917612e-7
-0.041, 4.2178524e-7, 2.7645183e-7
-0.042, 3.6786031e-7, 2.5451902e-7
-0.043, 4.1718431e-7, 2.6410021e-7
-0.044, 4.0481621e-7, 2.5885612e-7
-0.045, 3.9706555e-7, 2.4187059e-7
-0.046, 4.2373114e-7, 2.8573612e-7
-0.047, 3.6916310e-7, 3.0179820e-7
-0.048, 4.3243830e-7, 2.9083179e-7
-0.049, 3.9970405e-7, 2.3374064e-7
-0.050, 4.0522849e-7, 2.2214761e-7
-0.051, 4.2114212e-7, 2.5311732e-7
-0.052, 3.8703914e-7, 2.5507973e-7
-0.053, 4.3238884e-7, 2.9144195e-7
-0.054, 3.7933791e-7, 3.0254026e-7
-0.055, 4.2244488e-7, 3.0163326e-7
-0.056, 4.1842111e-7, 2.7155406e-7
-0.057, 4.1205567e-7, 2.1307766e-7
-0.058, 4.3606627e-7, 2.8209166e-7
-0.059, 3.8482938e-7, 2.8205869e-7
-0.060, 4.3740204e-7, 2.7541290e-7
-0.061, 4.0001740e-7, 3.0859240e-7
-0.062, 4.3532418e-7, 2.9790635e-7
-0.063, 4.4330574e-7, 2.8402110e-7
-0.064, 4.1439736e-7, 2.1576565e-7
-0.065, 4.5855973e-7, 2.2833166e-7
-0.066, 3.8999099e-7, 2.9233246e-7
-0.067, 4.3304846e-7, 3.1830547e-7
-0.068, 4.2948648e-7, 3.3212478e-7
-0.069, 4.1789340e-7, 2.8342743e-7
-0.070, 4.6330908e-7, 2.6848676e-7
-0.071, 4.0128720e-7, 2.5407377e-7
-0.072, 4.7485270e-7, 2.6386931e-7
-0.073, 4.0275489e-7, 2.7257647e-7
-0.074, 4.5296935e-7, 2.7038320e-7
-0.075, 4.5712505e-7, 3.4561424e-7
-0.076, 4.2185121e-7, 2.9107915e-7
-0.077, 4.7724382e-7, 2.7556132e-7
-0.078, 4.2246137e-7, 2.4784026e-7
-0.079, 4.7361584e-7, 2.5855928e-7
-0.080, 4.3837500e-7, 3.1076917e-7
-0.081, 4.4904456e-7, 2.8962796e-7
-0.082, 4.7368184e-7, 3.5620133e-7
-0.083, 4.2383013e-7, 3.0684436e-7
-0.084, 4.8141601e-7, 3.0926850e-7
-0.085, 4.4083214e-7, 2.6736538e-7
-0.086, 4.8593449e-7, 2.7366485e-7
-0.087, 4.6340807e-7, 3.3291633e-7
-0.088, 4.5987900e-7, 2.9637272e-7
-0.089, 4.9531775e-7, 3.4871454e-7
-0.090, 4.4088159e-7, 3.1025797e-7
-0.091, 5.0536062e-7, 3.0016560e-7
-0.092, 4.7218114e-7, 2.9089776e-7
-0.093, 4.9162378e-7, 2.5036337e-7
-0.094, 4.9881379e-7, 3.3875406e-7
-0.095, 4.4548256e-7, 3.0931798e-7
-0.096, 5.1505725e-7, 3.4950608e-7
-0.097, 4.5672925e-7, 3.2905746e-7
-0.098, 5.0710867e-7, 3.1731602e-7
-0.099, 4.9660400e-7, 3.2981603e-7
-0.100, 4.9394902e-7, 2.6546894e-7
-0.101, 5.1748140e-7, 3.3007990e-7
-0.102, 4.7547931e-7, 3.1367156e-7
-0.103, 5.4855002e-7, 3.7407736e-7
-0.104, 4.9699980e-7, 3.3852319e-7
-0.105, 5.2259355e-7, 3.3164656e-7
-0.106, 5.5354678e-7, 3.3702253e-7
-0.107, 5.0183161e-7, 2.6863518e-7
-0.108, 5.4945701e-7, 3.4803838e-7
-0.109, 4.7323655e-7, 3.2590773e-7
-0.110, 5.3435144e-7, 4.0534391e-7
-0.111, 5.2950321e-7, 3.6428185e-7
-0.112, 5.4211864e-7, 3.1154423e-7
-0.113, 5.7608975e-7, 3.5674555e-7
-0.114, 5.0791670e-7, 2.8834168e-7
-0.115, 5.7010357e-7, 3.6795927e-7
-0.116, 5.2968454e-7, 3.2938726e-7
-0.117, 5.6848745e-7, 3.7877723e-7
-0.118, 5.6754743e-7, 3.9957214e-7
-0.119, 5.3801244e-7, 3.2204889e-7
-0.120, 5.9112926e-7, 3.4650475e-7
-0.121, 5.3816086e-7, 2.7396169e-7
-0.122, 5.6950989e-7, 3.7800220e-7
-0.123, 5.6774536e-7, 3.5455224e-7
-0.124, 5.6474403e-7, 3.6809121e-7
-0.125, 5.9083249e-7, 4.1629380e-7
-0.126, 5.5504739e-7, 3.4863206e-7
-0.127, 6.0549280e-7, 3.7407739e-7
-0.128, 5.6169324e-7, 3.0867483e-7
-0.129, 6.0494858e-7, 3.8128385e-7
-0.130, 6.0003430e-7, 3.8115189e-7
-0.131, 5.6194057e-7, 4.1025820e-7
-0.132, 6.1888329e-7, 3.8060770e-7
-0.133, 5.6828958e-7, 3.4965450e-7
-0.134, 6.2841502e-7, 3.9129378e-7
-0.135, 5.9891295e-7, 3.2592422e-7
-0.136, 5.9932523e-7, 3.6512284e-7
-0.137, 6.3286757e-7, 3.8149824e-7
-0.138, 5.7711213e-7, 4.0631687e-7
-0.139, 6.3830947e-7, 3.9281093e-7
-0.140, 5.8621504e-7, 3.4566369e-7
-0.141, 6.4206938e-7, 3.8179508e-7
-0.142, 6.3933192e-7, 3.4825274e-7
-0.143, 6.0090838e-7, 3.8832542e-7
-0.144, 6.4312485e-7, 3.8611563e-7
-0.145, 5.9075006e-7, 4.2572657e-7
-0.146, 6.3826002e-7, 4.2280766e-7
-0.147, 6.1965841e-7, 3.8113544e-7
-0.148, 6.3694074e-7, 3.7486893e-7
-0.149, 6.4909449e-7, 3.7892565e-7
-0.150, 6.0941761e-7, 3.9777467e-7
-0.151, 6.6695407e-7, 3.9597717e-7
-0.152, 6.2162081e-7, 4.0730632e-7
-0.153, 6.6238601e-7, 4.0557481e-7
-0.154, 6.4451001e-7, 4.2033406e-7
-0.155, 6.4617564e-7, 3.9246459e-7
-0.156, 6.7533136e-7, 3.5038011e-7
-0.157, 6.2729362e-7, 4.0887295e-7
-0.158, 6.6197379e-7, 4.1398511e-7
-0.159, 6.3962875e-7, 4.5971410e-7
-0.160, 6.6261691e-7, 4.0196329e-7
-0.161, 6.7963549e-7, 4.2732614e-7
-0.162, 6.3247171e-7, 4.1147848e-7
-0.163, 6.8844150e-7, 3.5763603e-7
-0.164, 6.3164725e-7, 4.1741521e-7
-0.165, 6.7991579e-7, 4.1161044e-7
-0.166, 6.7511695e-7, 4.6909736e-7
-0.167, 6.7076337e-7, 4.2729317e-7
-0.168, 6.9785779e-7, 4.1104977e-7
-0.169, 6.4221780e-7, 4.2948645e-7
-0.170, 7.1296336e-7, 3.7467100e-7
-0.171, 6.7064798e-7, 4.2688092e-7
-0.172, 6.7841512e-7, 4.3095412e-7
-0.173, 7.0198047e-7, 4.8938102e-7
-0.174, 6.6802590e-7, 4.2943697e-7
-0.175, 7.2503457e-7, 4.1954252e-7
-0.176, 6.6114927e-7, 4.1814081e-7
-0.177, 7.1363945e-7, 3.8972712e-7
-0.178, 7.1212236e-7, 4.5135329e-7
-0.179, 6.9202002e-7, 4.1579909e-7
-0.180, 7.2684861e-7, 4.9018911e-7
-0.181, 6.7825022e-7, 4.6068706e-7
-0.182, 7.3796343e-7, 4.2592444e-7
-0.183, 7.0527864e-7, 4.1520542e-7
-0.184, 7.3128467e-7, 3.8036035e-7
-0.185, 7.4536780e-7, 4.9507037e-7
-0.186, 6.9899568e-7, 4.3042644e-7
-0.187, 7.4871537e-7, 4.8743510e-7
-0.188, 7.0521264e-7, 4.5351356e-7
-0.189, 7.4319098e-7, 4.6136319e-7
-0.190, 7.4848458e-7, 4.5816398e-7
-0.191, 7.3131758e-7, 3.7979970e-7
-0.192, 7.7285796e-7, 4.7773858e-7
-0.193, 7.0890661e-7, 4.4952282e-7
-0.194, 7.6177611e-7, 4.9587845e-7
-0.195, 7.3605048e-7, 5.0272212e-7
-0.196, 8.0107372e-7, 4.5503074e-7
-0.197, 8.0105724e-7, 4.7506705e-7
-0.198, 7.4742911e-7, 4.0597058e-7
-0.199, 8.0631776e-7, 4.5179851e-7
-0.200, 7.4813829e-7, 4.7092783e-7
-0.201, 8.0445432e-7, 5.1802556e-7
-0.202, 7.8674321e-7, 5.3441750e-7
-0.203, 7.8319772e-7, 4.5493175e-7
-0.204, 8.3915097e-7, 4.9591142e-7
-0.205, 7.5900567e-7, 4.1998777e-7
-0.206, 8.3248869e-7, 4.3270217e-7
-0.207, 7.7486982e-7, 4.6119828e-7
-0.208, 8.2140690e-7, 5.1190750e-7
-0.209, 8.3585280e-7, 5.7140630e-7
-0.210, 7.9568122e-7, 4.7999777e-7
-0.211, 8.7163784e-7, 4.8055847e-7
-0.212, 8.0216211e-7, 4.5450298e-7
-0.213, 8.6754812e-7, 4.5395882e-7
-0.214, 8.3890359e-7, 5.1748140e-7
-0.215, 8.4779219e-7, 4.9916008e-7
-0.216, 8.7346837e-7, 5.9337208e-7
-0.217, 8.2486997e-7, 5.2750778e-7
-0.218, 9.0414125e-7, 5.1850378e-7
-0.219, 8.5268994e-7, 4.7313762e-7
-0.220, 8.9246572e-7, 4.5532755e-7
-0.221, 8.9474156e-7, 5.5651509e-7
-0.222, 8.6616296e-7, 5.3661074e-7
-0.223, 9.1184245e-7, 5.5801576e-7
-0.224, 8.8196111e-7, 5.4779150e-7
-0.225, 9.4261429e-7, 5.2838180e-7
-0.226, 9.0894002e-7, 5.3364232e-7
-0.227, 9.2091238e-7, 4.6134670e-7
-0.228, 9.3893681e-7, 5.9289380e-7
-0.229, 8.8451719e-7, 5.6461209e-7
-0.230, 9.6486042e-7, 5.8296632e-7
-0.231, 9.0836289e-7, 5.7211543e-7
-0.232, 9.6586632e-7, 5.5064436e-7
-0.233, 9.6918097e-7, 6.0712540e-7
-0.234, 9.6139729e-7, 4.6345752e-7
-0.235, 1.0015029e-6, 5.7303885e-7
-0.236, 9.3359381e-7, 5.7199998e-7
-0.237, 1.0241943e-6, 6.1182527e-7
-0.238, 9.6741644e-7, 6.1311152e-7
-0.239, 9.7252860e-7, 5.7745842e-7
-0.240, 1.0331983e-6, 6.1985628e-7
-0.241, 9.7755833e-7, 5.1502423e-7
-0.242, 1.0427465e-6, 5.8519265e-7
-0.243, 9.7454051e-7, 5.9350396e-7
-0.244, 1.0325882e-6, 6.4594474e-7
-0.245, 1.0494417e-6, 6.8006420e-7
-0.246, 1.0404872e-6, 5.9892943e-7
-0.247, 1.0600453e-6, 6.4706609e-7
-0.248, 1.0114304e-6, 5.6500789e-7
-0.249, 1.0783665e-6, 5.9358644e-7
-0.250, 1.0505630e-6, 6.1380416e-7
-0.251, 1.0569779e-6, 6.2970128e-7
-0.252, 1.0941977e-6, 7.2638687e-7
-0.253, 1.0543889e-6, 6.3080620e-7
-0.254, 1.1076872e-6, 6.2669994e-7
-0.255, 1.0696758e-6, 5.8088852e-7
-0.256, 1.1053785e-6, 5.9333911e-7
-0.257, 1.0914273e-6, 6.5090848e-7
-0.258, 1.0703685e-6, 6.1847106e-7
-0.259, 1.1248542e-6, 7.0077664e-7
-0.260, 1.0643658e-6, 6.7447382e-7
-0.261, 1.1308567e-6, 6.3822705e-7
-0.262, 1.1004807e-6, 6.4432868e-7
-0.263, 1.1338582e-6, 5.8796309e-7
-0.264, 1.1560712e-6, 6.6860309e-7
-0.265, 1.0874035e-6, 6.6090195e-7
-0.266, 1.1616780e-6, 6.7625479e-7
-0.267, 1.0857544e-6, 6.9289405e-7
-0.268, 1.1484195e-6, 6.7331945e-7
-0.269, 1.1424663e-6, 6.6766313e-7
-0.270, 1.1139701e-6, 5.8921637e-7
-0.271, 1.1779216e-6, 6.5493225e-7
-0.272, 1.1033501e-6, 6.5733991e-7
-0.273, 1.1644156e-6, 6.8934855e-7
-0.274, 1.1196430e-6, 7.0298643e-7
-0.275, 1.1549664e-6, 6.7856354e-7
-0.276, 1.1758436e-6, 6.9424630e-7
-0.277, 1.1284656e-6, 6.3730351e-7
-0.278, 1.1906855e-6, 6.1154492e-7
-0.279, 1.1077532e-6, 6.6471125e-7
-0.280, 1.1584955e-6, 6.7742565e-7
-0.281, 1.1462591e-6, 7.1756432e-7
-0.282, 1.1460778e-6, 6.7178587e-7
-0.283, 1.1611833e-6, 7.0649901e-7
-0.284, 1.1116945e-6, 6.7810180e-7
-0.285, 1.1858535e-6, 6.1022570e-7
-0.286, 1.1506622e-6, 6.7226404e-7
-0.287, 1.1526577e-6, 6.8372515e-7
-0.288, 1.1649763e-6, 7.4610989e-7
-0.289, 1.1497223e-6, 7.1210582e-7
-0.290, 1.1746729e-6, 6.6746520e-7
-0.291, 1.1251675e-6, 6.8133403e-7
-0.292, 1.1876841e-6, 6.0066100e-7
-0.293, 1.1510085e-6, 6.8131749e-7
-0.294, 1.1470838e-6, 6.7816779e-7
-0.295, 1.1716716e-6, 7.4188824e-7
-0.296, 1.1184393e-6, 7.4746214e-7
-0.297, 1.1744914e-6, 7.1081956e-7
-0.298, 1.1201212e-6, 6.7523240e-7
-0.299, 1.1679117e-6, 6.3934840e-7
-0.300, 1.1574234e-6, 6.6817432e-7
-0.301, 1.1463086e-6, 6.4968810e-7
-0.302, 1.1528555e-6, 6.9681886e-7
-0.303, 1.1229412e-6, 7.4408149e-7
-0.304, 1.1637394e-6, 7.0823046e-7
-0.305, 1.1331325e-6, 6.6825680e-7
-0.306, 1.1367110e-6, 6.8115259e-7
-0.307, 1.1672685e-6, 6.5709253e-7
-0.308, 1.1256127e-6, 6.5120531e-7
-0.309, 1.1555105e-6, 6.7900879e-7
-0.310, 1.0969517e-6, 6.9957287e-7
-0.311, 1.1511075e-6, 7.5224449e-7
-0.312, 1.1639868e-6, 6.8572052e-7
-0.313, 1.1254643e-6, 6.3585236e-7
-0.314, 1.1435711e-6, 6.4823701e-7
-0.315, 1.0880631e-6, 6.3697371e-7
-0.316, 1.1475620e-6, 6.9709921e-7
-0.317, 1.1244913e-6, 6.7538082e-7
-0.318, 1.1393000e-6, 7.3539081e-7
-0.319, 1.1511074e-6, 7.3207616e-7
-0.320, 1.1019320e-6, 6.4327321e-7
-0.321, 1.1431589e-6, 6.3393941e-7
-0.322, 1.0939998e-6, 6.0433842e-7
-0.323, 1.1423178e-6, 6.9577993e-7
-0.324, 1.1484690e-6, 6.8507745e-7
-0.325, 1.1162294e-6, 6.9568102e-7
-0.326, 1.1382941e-6, 7.2874508e-7
-0.327, 1.0854741e-6, 6.7152200e-7
-0.328, 1.1520310e-6, 6.4627454e-7
-0.329, 1.0998706e-6, 5.9002440e-7
-0.330, 1.1554281e-6, 6.7275880e-7
-0.331, 1.1501345e-6, 6.9752798e-7
-0.332, 1.0920375e-6, 7.0239275e-7
-0.333, 1.1555270e-6, 7.0920345e-7
-0.334, 1.0879808e-6, 6.7503447e-7
-0.335, 1.1473476e-6, 7.0395936e-7
-0.336, 1.1193627e-6, 6.2679891e-7
-0.337, 1.1136075e-6, 6.2580943e-7
-0.338, 1.1578356e-6, 7.1484328e-7
-0.339, 1.0932083e-6, 6.8308202e-7
-0.340, 1.1426148e-6, 7.4426282e-7
-0.341, 1.1023607e-6, 6.9218493e-7
-0.342, 1.1488153e-6, 6.7430892e-7
-0.343, 1.1447751e-6, 6.7302261e-7
-0.344, 1.1107049e-6, 6.1446377e-7
-0.345, 1.1499531e-6, 6.9949039e-7
-0.346, 1.0901574e-6, 7.0049629e-7
-0.347, 1.1487658e-6, 7.3834269e-7
-0.348, 1.1210448e-6, 7.2966850e-7
-0.349, 1.1411470e-6, 6.4116239e-7
-0.350, 1.1605732e-6, 7.1904844e-7
-0.351, 1.1002993e-6, 6.3054233e-7
-0.352, 1.1608041e-6, 7.1659133e-7
-0.353, 1.1247387e-6, 7.0989609e-7
-0.354, 1.1493265e-6, 7.3392317e-7
-0.355, 1.1477434e-6, 7.6553602e-7
-0.356, 1.1512559e-6, 6.7411099e-7
-0.357, 1.1671366e-6, 7.1601414e-7
-0.358, 1.1195935e-6, 6.4126135e-7
-0.359, 1.1848642e-6, 6.8357673e-7
-0.360, 1.1413615e-6, 7.2056559e-7
-0.361, 1.1459624e-6, 7.3598449e-7
-0.362, 1.1780040e-6, 8.0252494e-7
-0.363, 1.1255302e-6, 7.0818101e-7
-0.364, 1.2127501e-6, 7.1537102e-7
-0.365, 1.1373212e-6, 6.7709584e-7
-0.366, 1.1862824e-6, 6.8171329e-7
-0.367, 1.1970344e-6, 7.6377148e-7
-0.368, 1.1611504e-6, 7.0979712e-7
-0.369, 1.2080833e-6, 8.0105724e-7
-0.370, 1.1640363e-6, 7.5085916e-7
-0.371, 1.2397786e-6, 7.3982687e-7
-0.372, 1.1900918e-6, 7.2587568e-7
-0.373, 1.1818299e-6, 6.7834918e-7
-0.374, 1.2333966e-6, 7.9103086e-7
-0.375, 1.1675488e-6, 7.1251810e-7
-0.376, 1.2242772e-6, 7.8110338e-7
-0.377, 1.1798675e-6, 7.5392649e-7
-0.378, 1.2192310e-6, 7.6894963e-7
-0.379, 1.2335615e-6, 7.4543379e-7
-0.380, 1.2214573e-6, 6.7175284e-7
-0.381, 1.2635088e-6, 8.0821422e-7
-0.382, 1.2085450e-6, 7.6227087e-7
-0.383, 1.2641353e-6, 8.0458631e-7
-0.384, 1.2466882e-6, 7.7757431e-7
-0.385, 1.2445608e-6, 7.6942786e-7
-0.386, 1.2799666e-6, 7.9551626e-7
-0.387, 1.2463419e-6, 6.7605697e-7
-0.388, 1.2887233e-6, 7.4172334e-7
-0.389, 1.2392344e-6, 7.6700371e-7
-0.390, 1.2841717e-6, 8.1164433e-7
-0.391, 1.2896467e-6, 8.4396629e-7
-0.392, 1.2705505e-6, 7.6713570e-7
-0.393, 1.3251349e-6, 7.9701692e-7
-0.394, 1.2638386e-6, 7.4154195e-7
-0.395, 1.3176975e-6, 7.4231696e-7
-0.396, 1.2594521e-6, 7.9292727e-7
-0.397, 1.3061210e-6, 8.0917073e-7
-0.398, 1.3317149e-6, 8.7012069e-7
-0.399, 1.2723808e-6, 8.0935206e-7
-0.400, 1.3525921e-6, 7.9141006e-7
-0.401, 1.2749204e-6, 8.0189824e-7
-0.402, 1.3394160e-6, 7.9253147e-7
-0.403, 1.3191982e-6, 8.3369258e-7
-0.404, 1.3038123e-6, 7.9620895e-7
-0.405, 1.3726778e-6, 9.0305286e-7
-0.406, 1.2953195e-6, 8.3830997e-7
-0.407, 1.3661146e-6, 8.3230725e-7
-0.408, 1.3320941e-6, 8.1396945e-7
-0.409, 1.3507945e-6, 7.7246216e-7
-0.410, 1.3694621e-6, 8.6807586e-7
-0.411, 1.3253328e-6, 8.0415748e-7
-0.412, 1.3768665e-6, 8.5928627e-7
-0.413, 1.3214080e-6, 8.5775258e-7
-0.414, 1.3710949e-6, 8.4480729e-7
-0.415, 1.3491785e-6, 8.4531848e-7
-0.416, 1.3629979e-6, 7.5018306e-7
-0.417, 1.3768830e-6, 8.6355737e-7
-0.418, 1.3268170e-6, 8.3471491e-7
-0.419, 1.3766191e-6, 8.7846507e-7
-0.420, 1.3577372e-6, 8.9736352e-7
-0.421, 1.3684067e-6, 8.4180601e-7
-0.422, 1.3764873e-6, 8.8128502e-7
-0.423, 1.3642511e-6, 7.6944434e-7
-0.424, 1.3827538e-6, 7.9950712e-7
-0.425, 1.3552142e-6, 8.4871562e-7
-0.426, 1.4016687e-6, 8.7483716e-7
-0.427, 1.3785321e-6, 9.0743936e-7
-0.428, 1.3877670e-6, 8.2869587e-7
-0.429, 1.4103759e-6, 8.8047693e-7
-0.430, 1.3588257e-6, 8.1467863e-7
-0.431, 1.4036806e-6, 8.0752159e-7
-0.432, 1.3536311e-6, 8.5856067e-7
-0.433, 1.3815335e-6, 8.6309558e-7
-0.434, 1.3894326e-6, 9.0249216e-7
-0.435, 1.3658342e-6, 8.5861018e-7
-0.436, 1.4103595e-6, 8.5681268e-7
-0.437, 1.3696435e-6, 8.3685882e-7
-0.438, 1.4064676e-6, 8.0710936e-7
-0.439, 1.3808904e-6, 8.4884755e-7
-0.440, 1.3637234e-6, 8.5849467e-7
-0.441, 1.3886245e-6, 9.1514062e-7
-0.442, 1.3491619e-6, 8.2523275e-7
-0.443, 1.4036475e-6, 8.5110685e-7
-0.444, 1.3526580e-6, 8.4411471e-7
-0.445, 1.3778561e-6, 8.1182566e-7
-0.446, 1.3850131e-6, 8.5877502e-7
-0.447, 1.3534661e-6, 8.3062525e-7
-0.448, 1.3935553e-6, 8.9602770e-7
-0.449, 1.3420215e-6, 9.0847828e-7
-0.450, 1.3925988e-6, 8.5935221e-7
-0.451, 1.3516357e-6, 8.3736995e-7
-0.452, 1.3793402e-6, 7.9525250e-7
-0.453, 1.3775262e-6, 8.3174655e-7
-0.454, 1.3370908e-6, 8.1324396e-7
-0.455, 1.3770646e-6, 8.3196096e-7
-0.456, 1.3182089e-6, 8.9075070e-7
-0.457, 1.3534002e-6, 8.6984039e-7
-0.458, 1.3578361e-6, 8.2800318e-7
-0.459, 1.3296039e-6, 8.0481715e-7
-0.460, 1.3571436e-6, 7.7961920e-7
-0.461, 1.2937694e-6, 8.3715560e-7
-0.462, 1.3419885e-6, 8.3458303e-7
-0.463, 1.2936539e-6, 8.2665093e-7
-0.464, 1.3308902e-6, 8.2127497e-7
-0.465, 1.3420050e-6, 8.3286795e-7
-0.466, 1.2919060e-6, 7.9452684e-7
-0.467, 1.3293730e-6, 7.3238954e-7
-0.468, 1.2865299e-6, 7.8807898e-7
-0.469, 1.3110188e-6, 8.1766348e-7
-0.470, 1.2816816e-6, 8.2483700e-7
-0.471, 1.2710782e-6, 7.8674321e-7
-0.472, 1.2963915e-6, 7.9668717e-7
-0.473, 1.2425326e-6, 7.6236978e-7
-0.474, 1.3040597e-6, 7.2252800e-7
-0.475, 1.2469685e-6, 7.7302286e-7
-0.476, 1.2764541e-6, 7.8285137e-7
-0.477, 1.2547852e-6, 8.2457308e-7
-0.478, 1.2346828e-6, 8.0869245e-7
-0.479, 1.2585781e-6, 7.4678599e-7
-0.480, 1.2102764e-6, 7.3606697e-7
-0.481, 1.2432415e-6, 7.2770615e-7
-0.482, 1.2051148e-6, 7.1144621e-7
-0.483, 1.2050489e-6, 7.3219161e-7
-0.484, 1.2127830e-6, 7.7703010e-7
-0.485, 1.1639703e-6, 7.9683559e-7
-0.486, 1.2081657e-6, 7.4985326e-7
-0.487, 1.1746234e-6, 7.2247855e-7
-0.488, 1.1775257e-6, 7.0991257e-7
-0.489, 1.1755303e-6, 6.8839205e-7
-0.490, 1.1545046e-6, 7.0766976e-7
-0.491, 1.1606886e-6, 7.0903855e-7
-0.492, 1.1087261e-6, 7.2655178e-7
-0.493, 1.1666418e-6, 7.1520606e-7
-0.494, 1.1119254e-6, 6.8308202e-7
-0.495, 1.1245244e-6, 6.6833923e-7
-0.496, 1.1402730e-6, 6.7244548e-7
-0.497, 1.0853091e-6, 7.0036441e-7
-0.498, 1.1306095e-6, 6.7567771e-7
-0.499, 1.0547518e-6, 7.0351416e-7
-0.500, 1.0950223e-6, 7.1883414e-7
