Dec. 9, 2005   02:56:21
Square Wave Voltammetry
File: d:\ida_biofilms\11_28_18_blankidapyo\75um_transfer\75um_pyo_transfer_swv_3.txt
Data Source:  Experiment
Instrument Model:  CHI760B
Header: 
Note: 

Init E (V) = 0.1
Final E (V) = -0.5
Incr E (V) = 0.001
Amplitude (V) = 0.025
Frequency (Hz) = 300
Quiet Time (sec) = 2
Sensitivity (A/V) = 1e-6
Sens 2 (A/V) = 1e-6

Potential/V, i1/A, i2/A

0.099, 5.7153818e-7, 2.9145843e-7
0.098, 5.7298945e-7, 3.4817032e-7
0.097, 5.6121496e-7, 3.5077585e-7
0.096, 5.5522884e-7, 3.2750734e-7
0.095, 5.6255072e-7, 2.8745117e-7
0.094, 5.3431847e-7, 3.2582528e-7
0.093, 5.6040693e-7, 3.3423561e-7
0.092, 5.2909093e-7, 3.5239196e-7
0.091, 5.4347089e-7, 3.2076258e-7
0.090, 5.4764308e-7, 3.4711491e-7
0.089, 5.1424922e-7, 3.1569994e-7
0.088, 5.5000123e-7, 2.6320970e-7
0.087, 4.9523533e-7, 3.1569994e-7
0.086, 5.3499463e-7, 3.1693673e-7
0.085, 5.1558493e-7, 3.5954895e-7
0.084, 5.0592132e-7, 3.3543941e-7
0.083, 5.2481977e-7, 3.0008312e-7
0.082, 4.8288371e-7, 2.9818671e-7
0.081, 5.2752426e-7, 2.5435412e-7
0.080, 4.9940746e-7, 2.7290631e-7
0.079, 4.9348728e-7, 3.1414979e-7
0.078, 5.0664693e-7, 3.1911350e-7
0.077, 4.6454591e-7, 3.3415313e-7
0.076, 5.1062119e-7, 3.1335824e-7
0.075, 4.5206238e-7, 2.7053161e-7
0.074, 5.0077620e-7, 2.8684104e-7
0.073, 4.8217458e-7, 2.6738186e-7
0.072, 4.7328604e-7, 2.8075593e-7
0.071, 4.8875438e-7, 3.0987866e-7
0.070, 4.4742845e-7, 2.9192017e-7
0.069, 4.8656113e-7, 3.2857923e-7
0.068, 4.4836844e-7, 2.6185745e-7
0.067, 4.6848720e-7, 2.7272489e-7
0.066, 4.7671611e-7, 2.4934093e-7
0.065, 4.4920947e-7, 2.5773477e-7
0.064, 4.6324311e-7, 2.7956855e-7
0.063, 4.2600689e-7, 2.7585816e-7
0.062, 4.6640935e-7, 3.0940043e-7
0.061, 4.4279452e-7, 2.4376703e-7
0.060, 4.4591130e-7, 2.4462457e-7
0.059, 4.5677876e-7, 2.3822614e-7
0.058, 4.1654118e-7, 2.3271821e-7
0.057, 4.5735590e-7, 2.7129019e-7
0.056, 4.0229313e-7, 2.4835148e-7
0.055, 4.5222728e-7, 3.1217087e-7
0.054, 4.4627410e-7, 2.6749731e-7
0.053, 4.1256692e-7, 2.4297549e-7
0.052, 4.7074644e-7, 2.0732236e-7
0.051, 3.9409719e-7, 1.9572934e-7
0.050, 4.4406431e-7, 2.8761610e-7
0.049, 4.0399169e-7, 2.5481589e-7
0.048, 4.1283073e-7, 2.5621762e-7
0.047, 4.5122135e-7, 2.7579219e-7
0.046, 3.8804507e-7, 2.2938707e-7
0.045, 4.4490537e-7, 2.4802168e-7
0.044, 3.8776471e-7, 1.8583484e-7
0.043, 4.2519883e-7, 2.4244778e-7
0.042, 4.2605637e-7, 2.5948279e-7
0.041, 3.9558137e-7, 2.5819651e-7
0.040, 4.3492841e-7, 2.5557446e-7
0.039, 3.7181815e-7, 2.2443982e-7
0.038, 4.3425229e-7, 2.3881978e-7
0.037, 3.8039335e-7, 1.9858226e-7
0.036, 4.1748115e-7, 2.3162981e-7
0.035, 4.1073645e-7, 2.6137923e-7
0.034, 3.7074619e-7, 2.6190693e-7
0.033, 4.2094422e-7, 2.8205869e-7
0.032, 3.7493487e-7, 2.3402097e-7
0.031, 4.1141254e-7, 2.3494447e-7
0.030, 3.9853322e-7, 2.0933425e-7
0.029, 4.1050555e-7, 2.1878348e-7
0.028, 3.9879706e-7, 2.5026441e-7
0.027, 3.6784382e-7, 2.3093719e-7
0.026, 4.1141254e-7, 2.7974997e-7
0.025, 3.7603974e-7, 2.4538315e-7
0.024, 4.0283732e-7, 2.2740817e-7
0.023, 4.1047258e-7, 2.3085474e-7
0.022, 3.6123103e-7, 1.9327220e-7
0.021, 4.0963153e-7, 2.4122747e-7
0.020, 3.4511953e-7, 2.2005327e-7
0.019, 4.0057807e-7, 2.7353295e-7
0.018, 3.8238875e-7, 2.7899139e-7
0.017, 3.8215785e-7, 2.1329205e-7
0.016, 4.1736570e-7, 2.3886929e-7
0.015, 3.5728974e-7, 1.7640211e-7
0.014, 4.1306163e-7, 2.3903416e-7
0.013, 3.7460507e-7, 2.4386597e-7
0.012, 3.8789665e-7, 2.6908043e-7
0.011, 3.9272845e-7, 2.9645514e-7
0.010, 3.6240186e-7, 2.0384280e-7
0.009, 4.1578261e-7, 2.3301504e-7
0.008, 3.5407402e-7, 1.6548520e-7
0.007, 3.9917637e-7, 2.0372738e-7
0.006, 3.8809458e-7, 2.4498735e-7
0.005, 3.7138938e-7, 2.3797877e-7
0.004, 4.0509656e-7, 3.0511282e-7
0.003, 3.5432140e-7, 2.2526436e-7
0.002, 4.1504052e-7, 2.2927162e-7
0.001, 3.6696983e-7, 1.9594373e-7
-0.000, 4.0611900e-7, 1.9945625e-7
-0.001, 3.9678520e-7, 2.5907050e-7
-0.002, 3.7328579e-7, 2.1254996e-7
-0.003, 4.0989539e-7, 2.7595709e-7
-0.004, 3.5298564e-7, 2.4027099e-7
-0.005, 4.0747125e-7, 2.4914306e-7
-0.006, 3.8657740e-7, 2.3431782e-7
-0.007, 3.6875085e-7, 1.8733552e-7
-0.008, 4.1276479e-7, 2.5221033e-7
-0.009, 3.4714787e-7, 2.4036993e-7
-0.010, 4.1010975e-7, 2.5684426e-7
-0.011, 3.5618484e-7, 2.3288311e-7
-0.012, 4.1227008e-7, 2.2285670e-7
-0.013, 4.1190728e-7, 2.3440026e-7
-0.014, 3.6174225e-7, 1.7671545e-7
-0.015, 4.2010319e-7, 2.3304801e-7
-0.016, 3.4228310e-7, 2.2867795e-7
-0.017, 4.1001084e-7, 2.7194983e-7
-0.018, 3.8022844e-7, 2.5740493e-7
-0.019, 3.8690723e-7, 2.1566672e-7
-0.020, 4.2064738e-7, 2.4879674e-7
-0.021, 3.6823963e-7, 1.7509934e-7
-0.022, 4.2599041e-7, 2.2683099e-7
-0.023, 3.6134645e-7, 2.3557112e-7
-0.024, 4.1903129e-7, 2.5892211e-7
-0.025, 3.9137620e-7, 2.9150792e-7
-0.026, 3.9231620e-7, 2.3761598e-7
-0.027, 4.1692050e-7, 2.2330195e-7
-0.028, 3.7196654e-7, 1.8357562e-7
-0.029, 4.3019557e-7, 2.0418912e-7
-0.030, 3.8532409e-7, 2.4920902e-7
-0.031, 4.0921927e-7, 2.1243451e-7
-0.032, 4.1334198e-7, 3.0720713e-7
-0.033, 3.7656747e-7, 2.6215429e-7
-0.034, 4.3369158e-7, 2.4254672e-7
-0.035, 3.8060773e-7, 2.4182111e-7
-0.036, 4.1339143e-7, 2.1279732e-7
-0.037, 4.1790992e-7, 2.7307118e-7
-0.038, 4.0834527e-7, 2.2712781e-7
-0.039, 4.2389610e-7, 2.9528428e-7
-0.040, 3.8722055e-7, 2.6205535e-7
-0.041, 4.4272855e-7, 2.5455202e-7
-0.042, 4.1334198e-7, 2.3494445e-7
-0.043, 4.2330240e-7, 1.9262906e-7
-0.044, 4.4906102e-7, 2.8075590e-7
-0.045, 3.9343757e-7, 2.5112195e-7
-0.046, 4.5353005e-7, 2.7104284e-7
-0.047, 3.9429509e-7, 2.8454878e-7
-0.048, 4.4726355e-7, 2.5989505e-7
-0.049, 4.3646207e-7, 2.6360547e-7
-0.050, 4.2534731e-7, 1.9236521e-7
-0.051, 4.6725037e-7, 2.6291286e-7
-0.052, 3.9985247e-7, 2.5616814e-7
-0.053, 4.6797598e-7, 2.8662663e-7
-0.054, 4.3487896e-7, 2.8774801e-7
-0.055, 4.4307490e-7, 2.6131326e-7
-0.056, 4.6817388e-7, 2.8388916e-7
-0.057, 4.4061773e-7, 1.8680781e-7
-0.058, 4.7077941e-7, 2.3143193e-7
-0.059, 4.1908075e-7, 2.5768529e-7
-0.060, 4.6474378e-7, 2.9620779e-7
-0.061, 4.6532097e-7, 3.0839450e-7
-0.062, 4.7000435e-7, 2.2782044e-7
-0.063, 4.9180517e-7, 2.9041951e-7
-0.064, 4.4340470e-7, 2.5163317e-7
-0.065, 4.9787383e-7, 2.4464106e-7
-0.066, 4.5405775e-7, 2.7315366e-7
-0.067, 4.9134349e-7, 2.8728627e-7
-0.068, 5.1223731e-7, 3.0948289e-7
-0.069, 4.7757362e-7, 2.8393862e-7
-0.070, 5.2274197e-7, 2.6817344e-7
-0.071, 4.6375436e-7, 2.7453888e-7
-0.072, 5.2343455e-7, 2.6240164e-7
-0.073, 4.8943059e-7, 3.0308445e-7
-0.074, 4.9175571e-7, 2.8534035e-7
-0.075, 5.3187784e-7, 3.1995455e-7
-0.076, 4.6710198e-7, 3.1665638e-7
-0.077, 5.4902830e-7, 2.8898484e-7
-0.078, 4.9182171e-7, 2.6878359e-7
-0.079, 5.4515294e-7, 2.5005002e-7
-0.080, 5.5212854e-7, 3.3100338e-7
-0.081, 5.1162715e-7, 3.0648158e-7
-0.082, 5.7684827e-7, 3.3987544e-7
-0.083, 5.0290350e-7, 3.2326921e-7
-0.084, 5.6759694e-7, 3.2002052e-7
-0.085, 5.4469126e-7, 3.0898818e-7
-0.086, 5.5689441e-7, 2.5054476e-7
-0.087, 5.8220775e-7, 3.2076258e-7
-0.088, 5.2915686e-7, 3.1827250e-7
-0.089, 5.9292677e-7, 3.4109576e-7
-0.090, 5.4911072e-7, 3.5720728e-7
-0.091, 5.8633043e-7, 3.1634306e-7
-0.092, 6.0235953e-7, 3.5247439e-7
-0.093, 5.9843472e-7, 2.7669915e-7
-0.094, 6.1055550e-7, 2.9810423e-7
-0.095, 5.6068728e-7, 3.5329896e-7
-0.096, 6.2887676e-7, 3.6207206e-7
-0.097, 6.1504102e-7, 3.9404773e-7
-0.098, 6.2928905e-7, 3.6071981e-7
-0.099, 6.3227390e-7, 3.8646195e-7
-0.100, 6.0856007e-7, 3.3210824e-7
-0.101, 6.5733991e-7, 3.2096051e-7
-0.102, 6.0405813e-7, 3.5409050e-7
-0.103, 6.4358653e-7, 3.8179508e-7
-0.104, 6.6358990e-7, 4.4869824e-7
-0.105, 6.5117229e-7, 3.5938407e-7
-0.106, 6.8723773e-7, 3.5859250e-7
-0.107, 6.4310831e-7, 3.7602328e-7
-0.108, 7.0611969e-7, 3.3337807e-7
-0.109, 6.7228052e-7, 3.8342765e-7
-0.110, 6.7590850e-7, 3.9625752e-7
-0.111, 7.1939473e-7, 4.4530111e-7
-0.112, 6.6289726e-7, 4.1278128e-7
-0.113, 7.2599107e-7, 3.9530104e-7
-0.114, 6.7320400e-7, 3.8924890e-7
-0.115, 7.3436843e-7, 3.6169277e-7
-0.116, 7.2928924e-7, 4.3397196e-7
-0.117, 7.2035118e-7, 3.9005695e-7
-0.118, 7.5265672e-7, 4.7795288e-7
-0.119, 7.0832948e-7, 4.2467116e-7
-0.120, 7.6561849e-7, 4.0916979e-7
-0.121, 7.3873844e-7, 3.9861570e-7
-0.122, 7.5646608e-7, 3.7290653e-7
-0.123, 7.9142654e-7, 4.4413031e-7
-0.124, 7.4724773e-7, 4.0554181e-7
-0.125, 7.9078347e-7, 4.4749441e-7
-0.126, 7.4888032e-7, 4.5064417e-7
-0.127, 7.9733030e-7, 4.3743506e-7
-0.128, 7.8624851e-7, 4.3341123e-7
-0.129, 7.8598464e-7, 3.7872775e-7
-0.130, 8.2132442e-7, 4.0697654e-7
-0.131, 7.5852745e-7, 4.5422269e-7
-0.132, 8.1860344e-7, 4.6378733e-7
-0.133, 7.7305583e-7, 4.8215810e-7
-0.134, 8.3705663e-7, 4.8041005e-7
-0.135, 8.4540102e-7, 4.6903142e-7
-0.136, 7.8426962e-7, 4.0806492e-7
-0.137, 8.6004485e-7, 3.9074956e-7
-0.138, 7.8171354e-7, 4.6662376e-7
-0.139, 8.4615954e-7, 4.8816071e-7
-0.140, 8.2988311e-7, 4.9706580e-7
-0.141, 8.2374856e-7, 4.6743179e-7
-0.142, 8.8074080e-7, 4.8275172e-7
-0.143, 8.0447080e-7, 4.4121140e-7
-0.144, 8.7209958e-7, 4.2295613e-7
-0.145, 8.3087264e-7, 4.7033421e-7
-0.146, 8.6580008e-7, 4.8395555e-7
-0.147, 8.6593201e-7, 5.3065753e-7
-0.148, 8.3108705e-7, 4.9637316e-7
-0.149, 8.9136086e-7, 4.7346742e-7
-0.150, 8.4007445e-7, 4.7498457e-7
-0.151, 8.8994261e-7, 4.2963487e-7
-0.152, 8.5722490e-7, 4.8697342e-7
-0.153, 8.7874537e-7, 4.5651490e-7
-0.154, 8.8766689e-7, 5.2966811e-7
-0.155, 8.5206329e-7, 4.9998465e-7
-0.156, 8.9495586e-7, 4.8702287e-7
-0.157, 8.6260093e-7, 4.9775838e-7
-0.158, 9.0747233e-7, 4.2890929e-7
-0.159, 8.8862339e-7, 5.2465487e-7
-0.160, 8.9155878e-7, 4.7561122e-7
-0.161, 8.9366949e-7, 5.3342796e-7
-0.162, 8.6481072e-7, 5.4940756e-7
-0.163, 9.2552983e-7, 5.3802893e-7
-0.164, 9.0146966e-7, 5.0029792e-7
-0.165, 8.9802313e-7, 4.3880377e-7
-0.166, 9.3029564e-7, 4.9465808e-7
-0.167, 8.8192809e-7, 5.2534750e-7
-0.168, 9.3641376e-7, 5.1830591e-7
-0.169, 8.8862339e-7, 5.6170973e-7
-0.170, 9.3652920e-7, 5.3882047e-7
-0.171, 9.3812878e-7, 5.4220106e-7
-0.172, 9.2125867e-7, 4.9126101e-7
-0.173, 9.6190843e-7, 4.7938761e-7
-0.174, 9.1505819e-7, 5.2348400e-7
-0.175, 9.6062217e-7, 5.3336203e-7
-0.176, 9.3210963e-7, 5.3979346e-7
-0.177, 9.4484051e-7, 5.4759357e-7
-0.178, 9.7460645e-7, 5.5475061e-7
-0.179, 9.4009113e-7, 4.9561459e-7
-0.180, 9.8549037e-7, 4.8446680e-7
-0.181, 9.3811229e-7, 5.3026173e-7
-0.182, 9.7844884e-7, 5.6139635e-7
-0.183, 9.8229111e-7, 5.7137333e-7
-0.184, 9.6801011e-7, 5.5940097e-7
-0.185, 1.0132774e-6, 5.6723411e-7
-0.186, 9.6819156e-7, 5.6385352e-7
-0.187, 1.0283005e-6, 5.1761333e-7
-0.188, 9.9190527e-7, 5.3374134e-7
-0.189, 1.0187853e-6, 5.6363911e-7
-0.190, 1.0372714e-6, 6.0562473e-7
-0.191, 1.0049330e-6, 5.9975400e-7
-0.192, 1.0641186e-6, 5.6243528e-7
-0.193, 1.0038282e-6, 5.6476051e-7
-0.194, 1.0662129e-6, 5.5762001e-7
-0.195, 1.0626178e-6, 5.3433502e-7
-0.196, 1.0405037e-6, 5.7571043e-7
-0.197, 1.0928785e-6, 6.1738263e-7
-0.198, 1.0384588e-6, 6.5483329e-7
-0.199, 1.1018989e-6, 6.3723758e-7
-0.200, 1.0830499e-6, 5.7988257e-7
-0.201, 1.1194122e-6, 5.9042020e-7
-0.202, 1.1502830e-6, 5.6652505e-7
-0.203, 1.0869088e-6, 6.1202314e-7
-0.204, 1.1620574e-6, 6.1581602e-7
-0.205, 1.1037459e-6, 6.4667034e-7
-0.206, 1.1594848e-6, 6.8031159e-7
-0.207, 1.1424993e-6, 6.5478378e-7
-0.208, 1.1487328e-6, 5.8459898e-7
-0.209, 1.2124037e-6, 6.0630083e-7
-0.210, 1.1565990e-6, 6.5255756e-7
-0.211, 1.2282844e-6, 6.7064798e-7
-0.212, 1.1772124e-6, 6.7907479e-7
-0.213, 1.2359196e-6, 7.0546002e-7
-0.214, 1.2486835e-6, 7.1197394e-7
-0.215, 1.2268827e-6, 6.8034456e-7
-0.216, 1.2831329e-6, 6.3745199e-7
-0.217, 1.2368762e-6, 6.8184522e-7
-0.218, 1.3067643e-6, 7.2110981e-7
-0.219, 1.2866290e-6, 7.4223453e-7
-0.220, 1.3237168e-6, 7.5348123e-7
-0.221, 1.3554450e-6, 7.7178606e-7
-0.222, 1.3136078e-6, 7.4498848e-7
-0.223, 1.3969359e-6, 6.7584256e-7
-0.224, 1.3374206e-6, 6.8943098e-7
-0.225, 1.3987664e-6, 7.6946083e-7
-0.226, 1.4138060e-6, 8.4538453e-7
-0.227, 1.4026252e-6, 8.1901567e-7
-0.228, 1.4732718e-6, 8.1420035e-7
-0.229, 1.4247229e-6, 7.9864958e-7
-0.230, 1.5187040e-6, 8.0244240e-7
-0.231, 1.4823252e-6, 7.5804917e-7
-0.232, 1.5021308e-6, 8.3459952e-7
-0.233, 1.5415108e-6, 8.8931608e-7
-0.234, 1.5077046e-6, 8.9991960e-7
-0.235, 1.5740306e-6, 8.8456670e-7
-0.236, 1.5353266e-6, 8.5257454e-7
-0.237, 1.5969529e-6, 8.9566504e-7
-0.238, 1.6343870e-6, 8.4099793e-7
-0.239, 1.6251191e-6, 8.7417743e-7
-0.240, 1.6641858e-6, 9.5478447e-7
-0.241, 1.6144000e-6, 9.4474160e-7
-0.242, 1.7086945e-6, 9.9779254e-7
-0.243, 1.6881966e-6, 9.3520987e-7
-0.244, 1.7180944e-6, 9.5491646e-7
-0.245, 1.7610198e-6, 9.5102462e-7
-0.246, 1.7414452e-6, 9.3215908e-7
-0.247, 1.7976294e-6, 9.9930958e-7
-0.248, 1.7444629e-6, 1.0177134e-6
-0.249, 1.8141368e-6, 1.0976607e-6
-0.250, 1.8409507e-6, 1.0485842e-6
-0.251, 1.8296874e-6, 1.0154541e-6
-0.252, 1.8912806e-6, 1.0208796e-6
-0.253, 1.8435069e-6, 9.6474491e-7
-0.254, 1.9157367e-6, 1.0834457e-6
-0.255, 1.8873393e-6, 1.0797353e-6
-0.256, 1.9365973e-6, 1.1599301e-6
-0.257, 1.9807269e-6, 1.1352929e-6
-0.258, 1.9216072e-6, 1.0886898e-6
-0.259, 2.0095199e-6, 1.0559226e-6
-0.260, 1.9391205e-6, 1.0521296e-6
-0.261, 2.0009115e-6, 1.1816155e-6
-0.262, 2.0018679e-6, 1.1646464e-6
-0.263, 1.9814358e-6, 1.1693628e-6
-0.264, 2.0609050e-6, 1.2092540e-6
-0.265, 1.9852619e-6, 1.1466220e-6
-0.266, 2.0720033e-6, 1.1742111e-6
-0.267, 2.0390382e-6, 1.0722155e-6
-0.268, 2.0881973e-6, 1.1751016e-6
-0.269, 2.0924026e-6, 1.2332812e-6
-0.270, 2.0439029e-6, 1.2135746e-6
-0.271, 2.1166438e-6, 1.2419058e-6
-0.272, 2.0413470e-6, 1.2029710e-6
-0.273, 2.1175015e-6, 1.1976940e-6
-0.274, 2.0906709e-6, 1.1490791e-6
-0.275, 2.0974817e-6, 1.1558238e-6
-0.276, 2.1106578e-6, 1.2639705e-6
-0.277, 2.0668581e-6, 1.2238979e-6
-0.278, 2.1177159e-6, 1.3053295e-6
-0.279, 2.0675509e-6, 1.2084461e-6
-0.280, 2.1094374e-6, 1.2313022e-6
-0.281, 2.1058920e-6, 1.1939835e-6
-0.282, 2.0829698e-6, 1.1658832e-6
-0.283, 2.0927489e-6, 1.2245905e-6
-0.284, 2.0340085e-6, 1.2121235e-6
-0.285, 2.1025112e-6, 1.2804614e-6
-0.286, 2.0724981e-6, 1.2643334e-6
-0.287, 2.0639395e-6, 1.1752666e-6
-0.288, 2.0970199e-6, 1.1950884e-6
-0.289, 1.9955025e-6, 1.1260249e-6
-0.290, 2.0631974e-6, 1.2083966e-6
-0.291, 1.9855090e-6, 1.1823576e-6
-0.292, 2.0254004e-6, 1.2279052e-6
-0.293, 2.0119439e-6, 1.2601281e-6
-0.294, 1.9972836e-6, 1.1216548e-6
-0.295, 2.0191997e-6, 1.1782513e-6
-0.296, 1.9548529e-6, 1.0790427e-6
-0.297, 2.0002683e-6, 1.1495245e-6
-0.298, 1.9391368e-6, 1.1332314e-6
-0.299, 1.8993283e-6, 1.1760580e-6
-0.300, 1.9513072e-6, 1.2056755e-6
-0.301, 1.8589258e-6, 1.0663942e-6
-0.302, 1.9256311e-6, 1.1133270e-6
-0.303, 1.8372405e-6, 1.0022616e-6
-0.304, 1.8728933e-6, 1.0865294e-6
-0.305, 1.8611685e-6, 1.0791086e-6
-0.306, 1.8159508e-6, 1.0567636e-6
-0.307, 1.8401590e-6, 1.1730403e-6
-0.308, 1.7683417e-6, 1.0437194e-6
-0.309, 1.7976624e-6, 1.0515030e-6
-0.310, 1.7809737e-6, 9.3826065e-7
-0.311, 1.7636585e-6, 9.5706025e-7
-0.312, 1.7845357e-6, 1.0474133e-6
-0.313, 1.6967551e-6, 9.9121269e-7
-0.314, 1.7226951e-6, 1.0436700e-6
-0.315, 1.6696442e-6, 1.0025913e-6
-0.316, 1.7000533e-6, 9.9386762e-7
-0.317, 1.6839090e-6, 9.2712941e-7
-0.318, 1.6280710e-6, 8.5463591e-7
-0.319, 1.6679128e-6, 9.6627855e-7
-0.320, 1.5810722e-6, 9.4884786e-7
-0.321, 1.6457161e-6, 9.8943156e-7
-0.322, 1.5817814e-6, 9.0658187e-7
-0.323, 1.6057423e-6, 9.1194136e-7
-0.324, 1.6287966e-6, 9.1829031e-7
-0.325, 1.5291921e-6, 8.1924657e-7
-0.326, 1.6003994e-6, 8.9678633e-7
-0.327, 1.4999869e-6, 9.0071114e-7
-0.328, 1.5585788e-6, 9.4851794e-7
-0.329, 1.5235029e-6, 9.1949420e-7
-0.330, 1.5120253e-6, 8.3948078e-7
-0.331, 1.5450728e-6, 8.8664444e-7
-0.332, 1.4637237e-6, 7.7630455e-7
-0.333, 1.5296373e-6, 8.5762065e-7
-0.334, 1.4547361e-6, 8.6756461e-7
-0.335, 1.4810555e-6, 8.9345519e-7
-0.336, 1.4768339e-6, 9.1720193e-7
-0.337, 1.4465072e-6, 8.2851437e-7
-0.338, 1.4843702e-6, 8.4960612e-7
-0.339, 1.4118931e-6, 7.6926301e-7
-0.340, 1.4623549e-6, 8.3816155e-7
-0.341, 1.4302639e-6, 8.5039767e-7
-0.342, 1.4232883e-6, 8.3786472e-7
-0.343, 1.4419063e-6, 9.3870597e-7
-0.344, 1.3843863e-6, 8.4762723e-7
-0.345, 1.4440171e-6, 8.2674984e-7
-0.346, 1.3945447e-6, 7.6744897e-7
-0.347, 1.4274603e-6, 8.0109027e-7
-0.348, 1.4289776e-6, 8.7411149e-7
-0.349, 1.3904714e-6, 8.2637064e-7
-0.350, 1.4307750e-6, 8.8468209e-7
-0.351, 1.3837268e-6, 8.5719194e-7
-0.352, 1.4401253e-6, 8.4667073e-7
-0.353, 1.4113159e-6, 7.7518314e-7
-0.354, 1.4012235e-6, 7.5458615e-7
-0.355, 1.4443140e-6, 8.7333638e-7
-0.356, 1.3668567e-6, 8.4157512e-7
-0.357, 1.4321272e-6, 8.8143344e-7
-0.358, 1.3855079e-6, 8.4190498e-7
-0.359, 1.4320779e-6, 8.3755134e-7
-0.360, 1.4311213e-6, 8.7322098e-7
-0.361, 1.4067643e-6, 7.2879448e-7
-0.362, 1.4460124e-6, 8.7477110e-7
-0.363, 1.3724800e-6, 8.2897611e-7
-0.364, 1.4264874e-6, 9.2350143e-7
-0.365, 1.4135916e-6, 8.5910483e-7
-0.366, 1.4122559e-6, 8.3214240e-7
-0.367, 1.4532354e-6, 8.9307593e-7
-0.368, 1.4080013e-6, 7.4642321e-7
-0.369, 1.4592381e-6, 8.6002831e-7
-0.370, 1.4037796e-6, 8.3887068e-7
-0.371, 1.4450891e-6, 9.0720852e-7
-0.372, 1.4719690e-6, 8.9325727e-7
-0.373, 1.4352934e-6, 8.2427630e-7
-0.374, 1.4848154e-6, 8.9647301e-7
-0.375, 1.4306926e-6, 8.0245889e-7
-0.376, 1.4878992e-6, 8.7589251e-7
-0.377, 1.4567480e-6, 8.7073090e-7
-0.378, 1.4827211e-6, 9.1075401e-7
-0.379, 1.5111347e-6, 9.5222845e-7
-0.380, 1.4567315e-6, 8.7378169e-7
-0.381, 1.5348814e-6, 8.6850457e-7
-0.382, 1.4623879e-6, 8.1959291e-7
-0.383, 1.5291097e-6, 8.5745575e-7
-0.384, 1.5039283e-6, 9.0564185e-7
-0.385, 1.4891690e-6, 9.0849483e-7
-0.386, 1.5602774e-6, 9.8182943e-7
-0.387, 1.4820944e-6, 8.9891364e-7
-0.388, 1.5604753e-6, 9.2157200e-7
-0.389, 1.5347000e-6, 8.7477110e-7
-0.390, 1.5661315e-6, 8.6225464e-7
-0.391, 1.5850464e-6, 9.7778911e-7
-0.392, 1.5369428e-6, 9.2315514e-7
-0.393, 1.6079521e-6, 9.9231761e-7
-0.394, 1.5350629e-6, 9.7191844e-7
-0.395, 1.6086943e-6, 9.4886428e-7
-0.396, 1.5866460e-6, 9.6655890e-7
-0.397, 1.6023453e-6, 8.4305930e-7
-0.398, 1.6283680e-6, 9.8529244e-7
-0.399, 1.5701057e-6, 9.7028590e-7
-0.400, 1.6349970e-6, 1.0052463e-6
-0.401, 1.6043903e-6, 9.9581359e-7
-0.402, 1.6421541e-6, 9.6370593e-7
-0.403, 1.6586448e-6, 9.9058593e-7
-0.404, 1.6522795e-6, 9.0953370e-7
-0.405, 1.6671706e-6, 1.0253322e-6
-0.406, 1.6447101e-6, 9.9865008e-7
-0.407, 1.6839912e-6, 1.0277068e-6
-0.408, 1.6747729e-6, 1.0558731e-6
-0.409, 1.6605084e-6, 9.9761110e-7
-0.410, 1.7112836e-6, 1.0485018e-6
-0.411, 1.6656206e-6, 9.3999222e-7
-0.412, 1.7361352e-6, 9.9208671e-7
-0.413, 1.6700731e-6, 1.0272780e-6
-0.414, 1.7211285e-6, 1.0673342e-6
-0.415, 1.7420555e-6, 1.1048343e-6
-0.416, 1.7154721e-6, 1.0020142e-6
-0.417, 1.7593213e-6, 1.0396791e-6
-0.418, 1.7097499e-6, 9.7844884e-7
-0.419, 1.7771478e-6, 9.9873250e-7
-0.420, 1.7374875e-6, 1.0490953e-6
-0.421, 1.7330019e-6, 1.0823244e-6
-0.422, 1.7808253e-6, 1.1550818e-6
-0.423, 1.7335792e-6, 1.0568460e-6
-0.424, 1.7992290e-6, 1.0790922e-6
-0.425, 1.7438034e-6, 1.0582313e-6
-0.426, 1.7833318e-6, 1.0408829e-6
-0.427, 1.7926986e-6, 1.0848310e-6
-0.428, 1.7584473e-6, 1.0355070e-6
-0.429, 1.7979756e-6, 1.1675818e-6
-0.430, 1.7540937e-6, 1.1010414e-6
-0.431, 1.8077549e-6, 1.0844351e-6
-0.432, 1.7824909e-6, 1.0725453e-6
-0.433, 1.7941663e-6, 1.0172187e-6
-0.434, 1.8314686e-6, 1.1140197e-6
-0.435, 1.7711618e-6, 1.0566812e-6
-0.436, 1.8330351e-6, 1.1100949e-6
-0.437, 1.7626525e-6, 1.1159985e-6
-0.438, 1.8138562e-6, 1.1034490e-6
-0.439, 1.8205845e-6, 1.1017340e-6
-0.440, 1.7726787e-6, 1.0053453e-6
-0.441, 1.8414125e-6, 1.0975454e-6
-0.442, 1.7744103e-6, 1.1033171e-6
-0.443, 1.8273457e-6, 1.1119254e-6
-0.444, 1.7806274e-6, 1.0999861e-6
-0.445, 1.8060726e-6, 1.0810052e-6
-0.446, 1.8428470e-6, 1.1126344e-6
-0.447, 1.7598159e-6, 1.0089072e-6
-0.448, 1.8394666e-6, 1.0136401e-6
-0.449, 1.7600469e-6, 1.0798178e-6
-0.450, 1.8038135e-6, 1.1378654e-6
-0.451, 1.7880484e-6, 1.1526741e-6
-0.452, 1.7765211e-6, 1.0335941e-6
-0.453, 1.8236353e-6, 1.1068792e-6
-0.454, 1.7554294e-6, 1.0307245e-6
-0.455, 1.8000040e-6, 1.0310545e-6
-0.456, 1.7619763e-6, 1.0789933e-6
-0.457, 1.7869600e-6, 1.0853257e-6
-0.458, 1.7776920e-6, 1.1740133e-6
-0.459, 1.7562541e-6, 1.0752992e-6
-0.460, 1.7849809e-6, 1.0713745e-6
-0.461, 1.7335461e-6, 1.0510578e-6
-0.462, 1.7771807e-6, 1.0108532e-6
-0.463, 1.7401260e-6, 1.0710776e-6
-0.464, 1.7344862e-6, 1.0112819e-6
-0.465, 1.7609868e-6, 1.1059888e-6
-0.466, 1.7078205e-6, 1.0708138e-6
-0.467, 1.7480745e-6, 1.0358038e-6
-0.468, 1.7049347e-6, 1.0282180e-6
-0.469, 1.7214089e-6, 9.8740338e-7
-0.470, 1.7284176e-6, 1.0747385e-6
-0.471, 1.6899280e-6, 1.0237654e-6
-0.472, 1.7167420e-6, 1.0525090e-6
-0.473, 1.6480084e-6, 1.0542570e-6
-0.474, 1.7128007e-6, 1.0203189e-6
-0.475, 1.6699246e-6, 1.0169383e-6
-0.476, 1.6539120e-6, 9.2073100e-7
-0.477, 1.6872895e-6, 1.0395802e-6
-0.478, 1.6176982e-6, 1.0070438e-6
-0.479, 1.6762076e-6, 1.0248868e-6
-0.480, 1.5967549e-6, 1.0121066e-6
-0.481, 1.6369265e-6, 1.0088248e-6
-0.482, 1.6302479e-6, 1.0023110e-6
-0.483, 1.5991461e-6, 8.7038455e-7
-0.484, 1.6379488e-6, 9.7792110e-7
-0.485, 1.5565504e-6, 9.6110057e-7
-0.486, 1.6034337e-6, 1.0105399e-6
-0.487, 1.5592548e-6, 9.9080034e-7
-0.488, 1.5540273e-6, 9.2808591e-7
-0.489, 1.5744264e-6, 9.7894349e-7
-0.490, 1.5298847e-6, 8.2973474e-7
-0.491, 1.5657522e-6, 9.0760432e-7
-0.492, 1.4950726e-6, 8.9916102e-7
-0.493, 1.5192152e-6, 9.4754500e-7
-0.494, 1.5146472e-6, 9.7315524e-7
-0.495, 1.4777407e-6, 9.1177645e-7
-0.496, 1.5029223e-6, 9.2871255e-7
-0.497, 1.4437369e-6, 8.2252825e-7
-0.498, 1.4817151e-6, 8.2618919e-7
-0.499, 1.4321768e-6, 8.5734035e-7
-0.500, 1.4500858e-6, 8.8903562e-7
