Dec. 9, 2005   02:59:31
Square Wave Voltammetry
File: d:\ida_biofilms\11_28_18_blankidapyo\75um_transfer\75um_pyo_transfer_swv_25.txt
Data Source:  Experiment
Instrument Model:  CHI760B
Header: 
Note: 

Init E (V) = 0.1
Final E (V) = -0.5
Incr E (V) = 0.001
Amplitude (V) = 0.025
Frequency (Hz) = 300
Quiet Time (sec) = 2
Sensitivity (A/V) = 1e-6
Sens 2 (A/V) = 1e-6

Potential/V, i1/A, i2/A

0.099, 5.9479027e-7, 2.4071622e-7
0.098, 6.1146244e-7, 3.8497780e-7
0.097, 5.6632712e-7, 3.6480952e-7
0.096, 6.1225398e-7, 3.9736238e-7
0.095, 6.0080936e-7, 4.1675557e-7
0.094, 5.5011668e-7, 3.6619474e-7
0.093, 6.1736614e-7, 3.4480621e-7
0.092, 5.3799590e-7, 3.0908711e-7
0.091, 5.8583578e-7, 3.2049877e-7
0.090, 5.5892275e-7, 3.6602984e-7
0.089, 5.3867205e-7, 3.2881013e-7
0.088, 5.8969459e-7, 3.9868164e-7
0.087, 5.1248469e-7, 3.6159383e-7
0.086, 5.8644594e-7, 3.4038666e-7
0.085, 5.2612256e-7, 2.9403100e-7
0.084, 5.5483304e-7, 2.8802836e-7
0.083, 5.6182517e-7, 3.8014599e-7
0.082, 5.2127427e-7, 3.3786355e-7
0.081, 5.5400847e-7, 3.6119803e-7
0.080, 4.9106313e-7, 3.6954239e-7
0.079, 5.4439437e-7, 3.4823626e-7
0.078, 5.0618519e-7, 3.2495126e-7
0.077, 5.1751437e-7, 2.5216087e-7
0.076, 5.3197675e-7, 3.1710164e-7
0.075, 4.7612247e-7, 3.2399481e-7
0.074, 5.1174260e-7, 3.3382332e-7
0.073, 4.7857952e-7, 3.5611887e-7
0.072, 5.1027496e-7, 3.2800207e-7
0.071, 4.9289361e-7, 3.3580221e-7
0.070, 4.8967786e-7, 3.0938395e-7
0.069, 4.9798928e-7, 2.5593724e-7
0.068, 4.6284737e-7, 3.0301851e-7
0.067, 5.0127096e-7, 3.0529421e-7
0.066, 4.6856965e-7, 3.2064719e-7
0.065, 4.8204265e-7, 3.4901134e-7
0.064, 4.8299910e-7, 3.2137277e-7
0.063, 4.3933147e-7, 2.8809433e-7
0.062, 4.8763303e-7, 2.8573612e-7
0.061, 4.3542315e-7, 2.4139237e-7
0.060, 4.7955257e-7, 3.2232921e-7
0.059, 4.6192389e-7, 3.1807460e-7
0.058, 4.5155116e-7, 3.0615175e-7
0.057, 4.8037708e-7, 3.3186092e-7
0.056, 4.2259330e-7, 2.8256989e-7
0.055, 4.7791997e-7, 2.9104615e-7
0.054, 4.3817710e-7, 2.3647812e-7
0.053, 4.4500430e-7, 2.7585816e-7
0.052, 4.5898850e-7, 3.2589122e-7
0.051, 4.0532746e-7, 2.6449598e-7
0.050, 4.6245157e-7, 3.4309113e-7
0.049, 3.9254707e-7, 2.8618138e-7
0.048, 4.5359599e-7, 2.7841423e-7
0.047, 4.4662039e-7, 2.8553825e-7
0.046, 4.3489544e-7, 1.9635598e-7
0.045, 4.5682822e-7, 2.8446635e-7
0.044, 4.0006688e-7, 2.6884953e-7
0.043, 4.4373451e-7, 2.8987535e-7
0.042, 4.0771863e-7, 3.1414976e-7
0.041, 4.3276810e-7, 2.4934093e-7
0.040, 4.4238226e-7, 2.9727971e-7
0.039, 4.0692706e-7, 2.1475972e-7
0.038, 4.3606630e-7, 2.1879997e-7
0.037, 3.9635646e-7, 2.4531718e-7
0.036, 4.2541325e-7, 2.8520842e-7
0.035, 4.0869156e-7, 2.8763259e-7
0.034, 3.9741184e-7, 3.1164319e-7
0.033, 4.3778135e-7, 3.1250070e-7
0.032, 3.8593424e-7, 2.4993460e-7
0.031, 4.3008015e-7, 2.5202894e-7
0.030, 3.7506680e-7, 2.0212777e-7
0.029, 4.2979980e-7, 2.7519849e-7
0.028, 4.1665663e-7, 2.8306465e-7
0.027, 3.7815056e-7, 2.9101318e-7
0.026, 4.3672591e-7, 2.6159358e-7
0.025, 3.6584845e-7, 2.3830859e-7
0.024, 4.2363223e-7, 2.6807447e-7
0.023, 3.8783068e-7, 2.0326563e-7
0.022, 3.9399828e-7, 1.8588432e-7
0.021, 4.2813423e-7, 2.7341753e-7
0.020, 3.5260632e-7, 2.4840097e-7
0.019, 4.2143895e-7, 2.7488517e-7
0.018, 3.6469407e-7, 2.5354609e-7
0.017, 4.1284724e-7, 2.2650117e-7
0.016, 4.1210515e-7, 2.6622752e-7
0.015, 3.7630363e-7, 1.9614160e-7
0.014, 4.1837166e-7, 2.0211128e-7
0.013, 3.4944009e-7, 2.4261269e-7
0.012, 4.0595410e-7, 2.6461140e-7
0.011, 3.6746457e-7, 2.7054810e-7
0.010, 3.9027134e-7, 2.4297549e-7
0.009, 4.1164341e-7, 2.6583172e-7
0.008, 3.5913669e-7, 2.3430133e-7
0.007, 4.0945014e-7, 2.0194636e-7
0.006, 3.6469410e-7, 2.0857567e-7
0.005, 3.9858270e-7, 2.5397486e-7
0.004, 3.8359258e-7, 2.7140561e-7
0.003, 3.8817700e-7, 2.8786343e-7
0.002, 3.8595076e-7, 2.7607254e-7
0.001, 3.5760303e-7, 2.2915620e-7
-0.000, 4.1396862e-7, 2.4861532e-7
-0.001, 3.7206547e-7, 1.9404729e-7
-0.002, 3.8642895e-7, 2.2255988e-7
-0.003, 3.9028782e-7, 2.7288979e-7
-0.004, 3.4046911e-7, 2.4874726e-7
-0.005, 4.0318361e-7, 2.8652769e-7
-0.006, 3.4500408e-7, 2.4792271e-7
-0.007, 3.9546592e-7, 2.4284356e-7
-0.008, 3.8547250e-7, 2.6551842e-7
-0.009, 3.6937746e-7, 1.7181767e-7
-0.010, 4.1335846e-7, 2.4195305e-7
-0.011, 3.4980289e-7, 2.4472351e-7
-0.012, 4.1543629e-7, 2.7349995e-7
-0.013, 3.6555161e-7, 2.8291620e-7
-0.014, 3.7556154e-7, 2.4370107e-7
-0.015, 4.0151807e-7, 2.5803160e-7
-0.016, 3.6231944e-7, 2.2137252e-7
-0.017, 4.0597058e-7, 1.9742789e-7
-0.018, 3.5212810e-7, 2.3842404e-7
-0.019, 3.8974360e-7, 2.6413318e-7
-0.020, 3.9091447e-7, 2.7196631e-7
-0.021, 3.8235572e-7, 2.8090435e-7
-0.022, 4.1088484e-7, 2.9040302e-7
-0.023, 3.5778447e-7, 2.3872087e-7
-0.024, 4.1502403e-7, 2.5778422e-7
-0.025, 3.6947642e-7, 1.8641202e-7
-0.026, 4.0816383e-7, 2.6223674e-7
-0.027, 3.9632346e-7, 2.8725327e-7
-0.028, 3.7826604e-7, 2.4594382e-7
-0.029, 4.1212164e-7, 2.8947954e-7
-0.030, 3.6278118e-7, 2.5061073e-7
-0.031, 4.0882350e-7, 2.6299531e-7
-0.032, 3.9553191e-7, 2.5407380e-7
-0.033, 3.7892565e-7, 1.9559741e-7
-0.034, 4.1210515e-7, 2.7859562e-7
-0.035, 3.5870795e-7, 2.5846035e-7
-0.036, 4.1908078e-7, 2.7582516e-7
-0.037, 3.6401798e-7, 2.7851314e-7
-0.038, 4.2064738e-7, 2.5021495e-7
-0.039, 4.1911375e-7, 2.6309425e-7
-0.040, 3.7996458e-7, 2.2760605e-7
-0.041, 4.3057486e-7, 1.8743447e-7
-0.042, 3.7091115e-7, 2.5773477e-7
-0.043, 4.1789343e-7, 2.7119125e-7
-0.044, 3.8903451e-7, 2.8182779e-7
-0.045, 4.0201280e-7, 2.8863849e-7
-0.046, 4.3067382e-7, 2.5356258e-7
-0.047, 3.7918952e-7, 2.3728617e-7
-0.048, 4.3542315e-7, 2.1500709e-7
-0.049, 3.7142235e-7, 1.9899451e-7
-0.050, 4.3106959e-7, 2.6663980e-7
-0.051, 4.0799895e-7, 2.7976648e-7
-0.052, 3.9831883e-7, 2.8464774e-7
-0.053, 4.3143240e-7, 2.7988190e-7
-0.054, 3.7826604e-7, 2.4368458e-7
-0.055, 4.3728659e-7, 2.6126378e-7
-0.056, 3.9757674e-7, 2.0400772e-7
-0.057, 4.2658411e-7, 2.1729929e-7
-0.058, 4.2424239e-7, 2.9737865e-7
-0.059, 3.8552201e-7, 2.6489175e-7
-0.060, 4.4805512e-7, 3.1880020e-7
-0.061, 3.8974360e-7, 2.7058110e-7
-0.062, 4.3473057e-7, 2.6682119e-7
-0.063, 4.2589147e-7, 2.9192017e-7
-0.064, 4.2381365e-7, 2.2636925e-7
-0.065, 4.3611578e-7, 2.6393528e-7
-0.066, 4.0864211e-7, 2.8032716e-7
-0.067, 4.5781763e-7, 2.8454880e-7
-0.068, 4.2021864e-7, 3.3868810e-7
-0.069, 4.3525827e-7, 2.7818334e-7
-0.070, 4.5709206e-7, 2.9714778e-7
-0.071, 4.1456229e-7, 2.5397486e-7
-0.072, 4.6255053e-7, 2.3910013e-7
-0.073, 4.1461175e-7, 2.9239843e-7
-0.074, 4.6134670e-7, 3.0042943e-7
-0.075, 4.5639945e-7, 3.2533055e-7
-0.076, 4.4231632e-7, 3.1604623e-7
-0.077, 4.7427545e-7, 3.1762934e-7
-0.078, 4.2945345e-7, 2.8661015e-7
-0.079, 4.9596088e-7, 2.8738521e-7
-0.080, 4.4262964e-7, 2.3644515e-7
-0.081, 4.6530448e-7, 3.0300203e-7
-0.082, 4.7610595e-7, 3.3042619e-7
-0.083, 4.5034730e-7, 2.9853300e-7
-0.084, 4.8161388e-7, 3.3164653e-7
-0.085, 4.4073320e-7, 2.7348347e-7
-0.086, 4.9089817e-7, 3.0981272e-7
-0.087, 4.7602350e-7, 2.6141220e-7
-0.088, 4.7376426e-7, 2.3741808e-7
-0.089, 5.0766937e-7, 3.4525146e-7
-0.090, 4.4511975e-7, 2.9924212e-7
-0.091, 5.0011658e-7, 3.4462477e-7
-0.092, 4.7089489e-7, 3.0496440e-7
-0.093, 5.0750441e-7, 3.0478301e-7
-0.094, 5.2313771e-7, 3.2559439e-7
-0.095, 4.8844106e-7, 2.3636268e-7
-0.096, 5.3060808e-7, 3.1611219e-7
-0.097, 4.7066399e-7, 2.9693339e-7
-0.098, 5.1538706e-7, 3.5227652e-7
-0.099, 5.1434813e-7, 3.6896523e-7
-0.100, 5.1090154e-7, 3.1998752e-7
-0.101, 5.4404808e-7, 3.3972702e-7
-0.102, 4.9780783e-7, 3.2130680e-7
-0.103, 5.5080932e-7, 2.8596702e-7
-0.104, 5.0260667e-7, 3.1805808e-7
-0.105, 5.4955603e-7, 3.2823294e-7
-0.106, 5.4973736e-7, 3.7462155e-7
-0.107, 5.1479338e-7, 3.5877389e-7
-0.108, 5.7030144e-7, 3.1860230e-7
-0.109, 5.0565745e-7, 3.1807457e-7
-0.110, 5.6782784e-7, 3.0381005e-7
-0.111, 5.3657772e-7, 2.9825264e-7
-0.112, 5.4477368e-7, 3.2135625e-7
-0.113, 5.7658440e-7, 3.6353975e-7
-0.114, 5.2580924e-7, 3.5521188e-7
-0.115, 5.8459898e-7, 3.6144542e-7
-0.116, 5.4436134e-7, 3.1583187e-7
-0.117, 5.8012995e-7, 3.5135304e-7
-0.118, 5.7984960e-7, 3.2026787e-7
-0.119, 5.6522225e-7, 3.5666307e-7
-0.120, 5.9289380e-7, 3.6314395e-7
-0.121, 5.4248142e-7, 3.8336168e-7
-0.122, 6.0465175e-7, 4.1449633e-7
-0.123, 5.6728362e-7, 3.7072971e-7
-0.124, 5.9802244e-7, 3.3106937e-7
-0.125, 6.0574018e-7, 3.3893548e-7
-0.126, 5.6903167e-7, 3.4426199e-7
-0.127, 6.0804888e-7, 3.8327926e-7
-0.128, 5.6344129e-7, 3.5475014e-7
-0.129, 6.1159437e-7, 4.3961182e-7
-0.130, 6.1340836e-7, 4.0438744e-7
-0.131, 6.0150199e-7, 3.5724025e-7
-0.132, 6.2686490e-7, 3.8768229e-7
-0.133, 5.7869522e-7, 3.2511616e-7
-0.134, 6.4582929e-7, 3.7599031e-7
-0.135, 6.0163393e-7, 3.9071659e-7
-0.136, 6.1865245e-7, 4.0158403e-7
-0.137, 6.4422966e-7, 4.5308479e-7
-0.138, 5.9627445e-7, 3.8149824e-7
-0.139, 6.5902191e-7, 3.8156418e-7
-0.140, 5.9515310e-7, 3.4929170e-7
-0.141, 6.5607009e-7, 3.4122769e-7
-0.142, 6.4089858e-7, 4.2323643e-7
-0.143, 6.1467819e-7, 3.8410374e-7
-0.144, 6.6142962e-7, 4.3131692e-7
-0.145, 6.1053902e-7, 4.2696337e-7
-0.146, 6.7961895e-7, 3.9663678e-7
-0.147, 6.3558855e-7, 3.9851676e-7
-0.148, 6.5023232e-7, 3.5176532e-7
-0.149, 6.7416050e-7, 4.4053530e-7
-0.150, 6.2526527e-7, 3.8614866e-7
-0.151, 6.8403847e-7, 4.4422924e-7
-0.152, 6.2152185e-7, 4.2117506e-7
-0.153, 6.7683197e-7, 4.1241850e-7
-0.154, 6.7612291e-7, 4.1452930e-7
-0.155, 6.6180894e-7, 3.3075602e-7
-0.156, 6.9658796e-7, 3.9437754e-7
-0.157, 6.3969469e-7, 4.2043303e-7
-0.158, 6.8764996e-7, 4.3768239e-7
-0.159, 6.6156156e-7, 4.5051223e-7
-0.160, 6.8908469e-7, 4.3360916e-7
-0.161, 6.9914404e-7, 4.4032092e-7
-0.162, 6.6627786e-7, 3.8987554e-7
-0.163, 7.1363945e-7, 3.7368159e-7
-0.164, 6.6194082e-7, 4.0903785e-7
-0.165, 6.9328985e-7, 4.4843443e-7
-0.166, 6.9093164e-7, 4.4909405e-7
-0.167, 6.7421001e-7, 4.3169621e-7
-0.168, 7.2760719e-7, 4.3113553e-7
-0.169, 6.6009386e-7, 4.2889280e-7
-0.170, 7.2945414e-7, 3.7889268e-7
-0.171, 6.7843155e-7, 3.7824952e-7
-0.172, 7.2643633e-7, 4.3530770e-7
-0.173, 7.3372530e-7, 4.7244498e-7
-0.174, 6.9421333e-7, 4.8196023e-7
-0.175, 7.4934201e-7, 4.2373119e-7
-0.176, 6.7947053e-7, 4.2371468e-7
-0.177, 7.4477413e-7, 4.3946335e-7
-0.178, 7.1111640e-7, 3.8092105e-7
-0.179, 7.1452996e-7, 4.3758342e-7
-0.180, 7.4988628e-7, 4.6466135e-7
-0.181, 7.0296994e-7, 4.4111249e-7
-0.182, 7.6284800e-7, 4.7228008e-7
-0.183, 7.1044030e-7, 4.2239543e-7
-0.184, 7.6070421e-7, 4.4883018e-7
-0.185, 7.5722471e-7, 4.1431491e-7
-0.186, 7.3347792e-7, 4.3957880e-7
-0.187, 7.7498527e-7, 4.5897207e-7
-0.188, 7.1118234e-7, 4.7773852e-7
-0.189, 7.7851428e-7, 5.2104338e-7
-0.190, 7.4972138e-7, 4.9013966e-7
-0.191, 7.7412778e-7, 4.2742511e-7
-0.192, 7.8943123e-7, 4.4210191e-7
-0.193, 7.4160789e-7, 4.0691054e-7
-0.194, 8.0755461e-7, 4.7983286e-7
-0.195, 7.5137041e-7, 4.6982296e-7
-0.196, 8.0186533e-7, 5.0250770e-7
-0.197, 7.9523596e-7, 5.2783759e-7
-0.198, 7.8422011e-7, 4.6139618e-7
-0.199, 8.2175313e-7, 4.8789690e-7
-0.200, 7.6810863e-7, 4.2562760e-7
-0.201, 8.4688514e-7, 4.8738571e-7
-0.202, 7.9734684e-7, 4.9523533e-7
-0.203, 8.1499195e-7, 5.0329930e-7
-0.204, 8.4246562e-7, 5.5954945e-7
-0.205, 7.9322410e-7, 4.9314099e-7
-0.206, 8.6105081e-7, 4.9429531e-7
-0.207, 8.0306904e-7, 4.3575295e-7
-0.208, 8.5300326e-7, 4.5351356e-7
-0.209, 8.6103432e-7, 5.4089833e-7
-0.210, 8.3786472e-7, 4.8045951e-7
-0.211, 8.9004158e-7, 5.4530136e-7
-0.212, 8.3219186e-7, 5.2506715e-7
-0.213, 9.0175001e-7, 5.1786066e-7
-0.214, 8.6850463e-7, 4.7704594e-7
-0.215, 8.6982385e-7, 4.5984604e-7
-0.216, 9.1873562e-7, 5.8161413e-7
-0.217, 8.6363980e-7, 5.1164363e-7
-0.218, 9.2703044e-7, 5.6852042e-7
-0.219, 8.6085288e-7, 5.6373807e-7
-0.220, 9.2523294e-7, 5.5028158e-7
-0.221, 9.3710639e-7, 5.4688451e-7
-0.222, 9.1551988e-7, 4.6375436e-7
-0.223, 9.5760436e-7, 5.5064436e-7
-0.224, 9.0696119e-7, 5.7030144e-7
-0.225, 9.6304632e-7, 5.7457254e-7
-0.226, 9.2427649e-7, 6.0545983e-7
-0.227, 9.6916449e-7, 5.9582919e-7
-0.228, 9.8471526e-7, 5.9282786e-7
-0.229, 9.4726465e-7, 5.3674262e-7
-0.230, 9.8680971e-7, 5.1682179e-7
-0.231, 9.6415124e-7, 5.5087526e-7
-0.232, 9.8133467e-7, 6.0999480e-7
-0.233, 9.9985391e-7, 6.1388664e-7
-0.234, 9.9924364e-7, 6.1349084e-7
-0.235, 1.0378817e-6, 6.0738921e-7
-0.236, 9.8024634e-7, 5.9136016e-7
-0.237, 1.0443131e-6, 5.5671296e-7
-0.238, 1.0139370e-6, 5.4129413e-7
-0.239, 1.0567801e-6, 6.0646573e-7
-0.240, 1.0624035e-6, 6.3748496e-7
-0.241, 1.0071923e-6, 6.4393282e-7
-0.242, 1.0827201e-6, 6.3166368e-7
-0.243, 1.0155201e-6, 6.0260692e-7
-0.244, 1.0787294e-6, 6.3235632e-7
-0.245, 1.0628817e-6, 5.6291356e-7
-0.246, 1.0614799e-6, 6.0951658e-7
-0.247, 1.1231225e-6, 6.4690119e-7
-0.248, 1.0519483e-6, 6.3774883e-7
-0.249, 1.1255303e-6, 6.7310509e-7
-0.250, 1.0727267e-6, 6.1500799e-7
-0.251, 1.1230402e-6, 6.3840844e-7
-0.252, 1.1293232e-6, 6.0494858e-7
-0.253, 1.0836931e-6, 6.1865245e-7
-0.254, 1.1476114e-6, 6.4922642e-7
-0.255, 1.0730400e-6, 6.7287419e-7
-0.256, 1.1427632e-6, 7.2806893e-7
-0.257, 1.1286305e-6, 6.9291053e-7
-0.258, 1.1512064e-6, 6.0077645e-7
-0.259, 1.1696267e-6, 6.9071723e-7
-0.260, 1.1209953e-6, 5.9414714e-7
-0.261, 1.1719353e-6, 6.7122517e-7
-0.262, 1.1196760e-6, 6.7101075e-7
-0.263, 1.1623872e-6, 7.4014019e-7
-0.264, 1.1767506e-6, 7.3234003e-7
-0.265, 1.1526575e-6, 6.4056871e-7
-0.266, 1.1872883e-6, 6.7427595e-7
-0.267, 1.1393826e-6, 5.9558181e-7
-0.268, 1.1967211e-6, 6.5677921e-7
-0.269, 1.1716880e-6, 6.9180567e-7
-0.270, 1.1704017e-6, 6.8304905e-7
-0.271, 1.1986340e-6, 7.7676623e-7
-0.272, 1.1288449e-6, 6.7566117e-7
-0.273, 1.2161802e-6, 6.7928909e-7
-0.274, 1.1449895e-6, 6.6222117e-7
-0.275, 1.1996729e-6, 6.2180220e-7
-0.276, 1.2098808e-6, 7.3436843e-7
-0.277, 1.1665594e-6, 6.6570067e-7
-0.278, 1.2214573e-6, 7.3008084e-7
-0.279, 1.1624861e-6, 7.2676613e-7
-0.280, 1.2166583e-6, 6.9205305e-7
-0.281, 1.1951875e-6, 6.8789734e-7
-0.282, 1.1859526e-6, 6.2348425e-7
-0.283, 1.2208307e-6, 7.0578983e-7
-0.284, 1.1663944e-6, 6.6690455e-7
-0.285, 1.2171697e-6, 7.2323712e-7
-0.286, 1.1720343e-6, 7.4904523e-7
-0.287, 1.2078193e-6, 7.4675302e-7
-0.288, 1.2288946e-6, 7.1329316e-7
-0.289, 1.1879810e-6, 6.1860300e-7
-0.290, 1.2142343e-6, 6.7117566e-7
-0.291, 1.1585944e-6, 7.0961573e-7
-0.292, 1.2099961e-6, 7.2209923e-7
-0.293, 1.1753325e-6, 7.0981361e-7
-0.294, 1.2003326e-6, 7.3428600e-7
-0.295, 1.2217376e-6, 7.1246859e-7
-0.296, 1.1794057e-6, 6.7140650e-7
-0.297, 1.2078194e-6, 6.2811819e-7
-0.298, 1.1682744e-6, 6.9178918e-7
-0.299, 1.1973641e-6, 7.2026876e-7
-0.300, 1.1980898e-6, 7.3176284e-7
-0.301, 1.1648938e-6, 7.3380772e-7
-0.302, 1.2120080e-6, 7.1466189e-7
-0.303, 1.1504644e-6, 6.9515329e-7
-0.304, 1.1980403e-6, 6.3850740e-7
-0.305, 1.1641353e-6, 5.9960553e-7
-0.306, 1.1863483e-6, 6.9462556e-7
-0.307, 1.1902237e-6, 7.2666717e-7
-0.308, 1.1461273e-6, 7.0301940e-7
-0.309, 1.2037460e-6, 7.0780175e-7
-0.310, 1.1253323e-6, 6.9421333e-7
-0.311, 1.1835943e-6, 7.1894954e-7
-0.312, 1.1540924e-6, 6.3732006e-7
-0.313, 1.1532843e-6, 6.7122517e-7
-0.314, 1.1957151e-6, 7.1213879e-7
-0.315, 1.1222321e-6, 7.1832289e-7
-0.316, 1.1912462e-6, 7.7671677e-7
-0.317, 1.1413449e-6, 7.0343174e-7
-0.318, 1.1710449e-6, 6.8398901e-7
-0.319, 1.1756293e-6, 6.6424951e-7
-0.320, 1.1391517e-6, 6.3524220e-7
-0.321, 1.1707646e-6, 6.9957281e-7
-0.322, 1.0994584e-6, 6.9378456e-7
-0.323, 1.1652236e-6, 7.6485992e-7
-0.324, 1.1430765e-6, 7.3369233e-7
-0.325, 1.1329016e-6, 6.4411427e-7
-0.326, 1.1695936e-6, 7.1319425e-7
-0.327, 1.1243264e-6, 6.1034109e-7
-0.328, 1.1682084e-6, 6.8710580e-7
-0.329, 1.1139537e-6, 6.9827001e-7
-0.330, 1.1476444e-6, 7.1359000e-7
-0.331, 1.1486834e-6, 7.8657831e-7
-0.332, 1.1277730e-6, 6.6612949e-7
-0.333, 1.1631787e-6, 6.8656158e-7
-0.334, 1.1182083e-6, 6.5709253e-7
-0.335, 1.1705172e-6, 6.4164067e-7
-0.336, 1.1438515e-6, 6.9596138e-7
-0.337, 1.1347156e-6, 6.8143294e-7
-0.338, 1.1701873e-6, 7.5160131e-7
-0.339, 1.1076706e-6, 7.2320415e-7
-0.340, 1.1694452e-6, 6.9150883e-7
-0.341, 1.1166252e-6, 6.9986964e-7
-0.342, 1.1630303e-6, 6.3499482e-7
-0.343, 1.1616451e-6, 7.2058208e-7
-0.344, 1.1351608e-6, 6.6871849e-7
-0.345, 1.1723971e-6, 7.4018965e-7
-0.346, 1.1169550e-6, 7.6349119e-7
-0.347, 1.1783668e-6, 7.3266983e-7
-0.348, 1.1545211e-6, 6.9912755e-7
-0.349, 1.1328852e-6, 6.6459580e-7
-0.350, 1.1835119e-6, 6.8496195e-7
-0.351, 1.1305435e-6, 6.6847122e-7
-0.352, 1.1781194e-6, 7.1232023e-7
-0.353, 1.1320276e-6, 7.2980049e-7
-0.354, 1.1596662e-6, 7.6179259e-7
-0.355, 1.1822751e-6, 7.1675623e-7
-0.356, 1.1758932e-6, 6.7450679e-7
-0.357, 1.1984691e-6, 6.8814472e-7
-0.358, 1.1512394e-6, 7.1535453e-7
-0.359, 1.1915595e-6, 7.2897592e-7
-0.360, 1.1573575e-6, 7.2915736e-7
-0.361, 1.1979909e-6, 7.8103744e-7
-0.362, 1.2066980e-6, 7.7853082e-7
-0.363, 1.1680929e-6, 7.0202998e-7
-0.364, 1.2049829e-6, 6.9980371e-7
-0.365, 1.1637560e-6, 6.5712550e-7
-0.366, 1.2287132e-6, 7.3826027e-7
-0.367, 1.1911142e-6, 7.4502145e-7
-0.368, 1.1879149e-6, 7.4075035e-7
-0.369, 1.2343530e-6, 7.7366599e-7
-0.370, 1.1721168e-6, 7.4742911e-7
-0.371, 1.2431756e-6, 7.5371213e-7
-0.372, 1.1997224e-6, 6.5354698e-7
-0.373, 1.2336604e-6, 7.0123838e-7
-0.374, 1.2571599e-6, 7.6454660e-7
-0.375, 1.1920541e-6, 7.6372203e-7
-0.376, 1.2619257e-6, 7.9657173e-7
-0.377, 1.1948741e-6, 7.8532491e-7
-0.378, 1.2613485e-6, 7.7956975e-7
-0.379, 1.2439507e-6, 7.7846488e-7
-0.380, 1.2324731e-6, 6.9043693e-7
-0.381, 1.2877173e-6, 7.9263043e-7
-0.382, 1.2135911e-6, 7.6997202e-7
-0.383, 1.2855735e-6, 8.0750510e-7
-0.384, 1.2467541e-6, 8.2510087e-7
-0.385, 1.2811870e-6, 7.7058223e-7
-0.386, 1.2893663e-6, 8.1175978e-7
-0.387, 1.2557086e-6, 7.1931231e-7
-0.388, 1.3008605e-6, 7.3384069e-7
-0.389, 1.2606229e-6, 7.9061851e-7
-0.390, 1.2971666e-6, 8.0242592e-7
-0.391, 1.2807911e-6, 8.5245904e-7
-0.392, 1.3006131e-6, 7.8454991e-7
-0.393, 1.3212596e-6, 8.1906524e-7
-0.394, 1.2811704e-6, 7.7455650e-7
-0.395, 1.3298843e-6, 7.5608682e-7
-0.396, 1.3065663e-6, 8.3065822e-7
-0.397, 1.3250855e-6, 8.2833299e-7
-0.398, 1.3395644e-6, 8.7953697e-7
-0.399, 1.3267345e-6, 8.6265038e-7
-0.400, 1.3499700e-6, 8.3268662e-7
-0.401, 1.3148282e-6, 8.3248869e-7
-0.402, 1.3698909e-6, 7.9236656e-7
-0.403, 1.3485849e-6, 8.0781848e-7
-0.404, 1.3576383e-6, 8.2160477e-7
-0.405, 1.3667247e-6, 8.7584294e-7
-0.406, 1.3338750e-6, 8.8639706e-7
-0.407, 1.3897953e-6, 8.7305602e-7
-0.408, 1.3374701e-6, 8.3540760e-7
-0.409, 1.3878824e-6, 8.5156853e-7
-0.410, 1.3826879e-6, 8.0801635e-7
-0.411, 1.3849306e-6, 8.1238636e-7
-0.412, 1.4170712e-6, 8.6195769e-7
-0.413, 1.3691158e-6, 8.7496898e-7
-0.414, 1.4227769e-6, 9.2790447e-7
-0.415, 1.3886740e-6, 8.5930276e-7
-0.416, 1.4051153e-6, 8.5003489e-7
-0.417, 1.4264378e-6, 8.5791748e-7
-0.418, 1.3825395e-6, 7.6927944e-7
-0.419, 1.4215072e-6, 8.8128502e-7
-0.420, 1.3691158e-6, 8.4558241e-7
-0.421, 1.4219689e-6, 9.1395322e-7
-0.422, 1.4346009e-6, 8.9889716e-7
-0.423, 1.4061047e-6, 8.2239626e-7
-0.424, 1.4445284e-6, 9.0908844e-7
-0.425, 1.3854088e-6, 8.2013707e-7
-0.426, 1.4413456e-6, 8.6647617e-7
-0.427, 1.4065995e-6, 8.6914770e-7
-0.428, 1.4359036e-6, 9.0186552e-7
-0.429, 1.4568469e-6, 9.5209651e-7
-0.430, 1.4026086e-6, 8.7594196e-7
-0.431, 1.4584300e-6, 8.5752174e-7
-0.432, 1.3977603e-6, 8.5913791e-7
-0.433, 1.4373713e-6, 8.3677628e-7
-0.434, 1.4329188e-6, 8.9281207e-7
-0.435, 1.4073746e-6, 8.7043395e-7
-0.436, 1.4538950e-6, 9.2254493e-7
-0.437, 1.3872063e-6, 9.2660173e-7
-0.438, 1.4577870e-6, 8.7521630e-7
-0.439, 1.4174504e-6, 8.5712594e-7
-0.440, 1.4450891e-6, 8.1119913e-7
-0.441, 1.4474142e-6, 8.5572418e-7
-0.442, 1.3883772e-6, 8.8557260e-7
-0.443, 1.4507124e-6, 8.8552309e-7
-0.444, 1.3836608e-6, 9.3837616e-7
-0.445, 1.4401089e-6, 9.3224156e-7
-0.446, 1.4111838e-6, 8.8511081e-7
-0.447, 1.4034333e-6, 8.5537795e-7
-0.448, 1.4409828e-6, 8.3753491e-7
-0.449, 1.3882122e-6, 8.7094531e-7
-0.450, 1.4409334e-6, 8.7905869e-7
-0.451, 1.3946931e-6, 8.8484700e-7
-0.452, 1.4264874e-6, 9.0300341e-7
-0.453, 1.4238489e-6, 8.7124209e-7
-0.454, 1.4024604e-6, 8.5109036e-7
-0.455, 1.4161146e-6, 8.0237646e-7
-0.456, 1.3609199e-6, 8.1527236e-7
-0.457, 1.4132453e-6, 8.7229751e-7
-0.458, 1.3647789e-6, 8.7021965e-7
-0.459, 1.3883277e-6, 8.7559562e-7
-0.460, 1.3978594e-6, 8.8641360e-7
-0.461, 1.3558573e-6, 8.3953029e-7
-0.462, 1.4053462e-6, 8.5567478e-7
-0.463, 1.3463256e-6, 7.9744575e-7
-0.464, 1.3822096e-6, 8.4403223e-7
-0.465, 1.3692479e-6, 8.6982391e-7
-0.466, 1.3450558e-6, 8.5135412e-7
-0.467, 1.3734859e-6, 8.7305602e-7
-0.468, 1.3222821e-6, 8.2386401e-7
-0.469, 1.3793072e-6, 8.2846498e-7
-0.470, 1.3343367e-6, 7.6830645e-7
-0.471, 1.3319457e-6, 7.6504131e-7
-0.472, 1.3426317e-6, 8.5424006e-7
-0.473, 1.2833636e-6, 8.0334951e-7
-0.474, 1.3425822e-6, 8.4169051e-7
-0.475, 1.2738320e-6, 8.2049985e-7
-0.476, 1.3176646e-6, 8.0010079e-7
-0.477, 1.3116619e-6, 8.0519641e-7
-0.478, 1.2849304e-6, 7.0808210e-7
-0.479, 1.3172523e-6, 8.2889369e-7
-0.480, 1.2456162e-6, 7.7392986e-7
-0.481, 1.2886902e-6, 8.2736005e-7
-0.482, 1.2604910e-6, 8.2224790e-7
-0.483, 1.2565167e-6, 7.9282830e-7
-0.484, 1.2778064e-6, 8.0442135e-7
-0.485, 1.2242112e-6, 6.9028852e-7
-0.486, 1.2658339e-6, 7.3717183e-7
-0.487, 1.2016683e-6, 7.5071080e-7
-0.488, 1.2122555e-6, 7.6545359e-7
-0.489, 1.2226610e-6, 8.0608697e-7
-0.490, 1.1964572e-6, 7.4619231e-7
-0.491, 1.2245081e-6, 7.7043376e-7
-0.492, 1.1700224e-6, 7.4140996e-7
-0.493, 1.2018166e-6, 6.7168691e-7
-0.494, 1.1662955e-6, 7.0701014e-7
-0.495, 1.1782018e-6, 7.2242904e-7
-0.496, 1.1697585e-6, 7.7501818e-7
-0.497, 1.1270145e-6, 7.5435526e-7
-0.498, 1.1688846e-6, 6.9617573e-7
-0.499, 1.1129972e-6, 6.9027203e-7
-0.500, 1.1376180e-6, 6.6452992e-7
