Dec. 9, 2005   02:59:05
Square Wave Voltammetry
File: d:\ida_biofilms\11_28_18_blankidapyo\75um_transfer\75um_pyo_transfer_swv_22.txt
Data Source:  Experiment
Instrument Model:  CHI760B
Header: 
Note: 

Init E (V) = 0.1
Final E (V) = -0.5
Incr E (V) = 0.001
Amplitude (V) = 0.025
Frequency (Hz) = 300
Quiet Time (sec) = 2
Sensitivity (A/V) = 1e-6
Sens 2 (A/V) = 1e-6

Potential/V, i1/A, i2/A

0.099, 6.4792363e-7, 2.9480609e-7
0.098, 6.0414055e-7, 3.9276142e-7
0.097, 5.5846101e-7, 3.9096395e-7
0.096, 6.1922964e-7, 4.0720738e-7
0.095, 5.4624138e-7, 3.8299888e-7
0.094, 6.1238597e-7, 3.9132675e-7
0.093, 5.6721763e-7, 3.3078902e-7
0.092, 5.6614579e-7, 3.1962475e-7
0.091, 6.0204621e-7, 3.8319678e-7
0.090, 5.3530795e-7, 3.4729629e-7
0.089, 5.8336218e-7, 4.1980636e-7
0.088, 5.3898538e-7, 3.7389594e-7
0.087, 5.7803561e-7, 3.4793945e-7
0.086, 5.6833903e-7, 3.6738209e-7
0.085, 5.3131714e-7, 2.8440036e-7
0.084, 5.6349074e-7, 3.4754365e-7
0.083, 4.9948994e-7, 3.4507005e-7
0.082, 5.4418001e-7, 3.6790979e-7
0.081, 5.0580593e-7, 3.5712480e-7
0.080, 5.3675916e-7, 2.8822626e-7
0.079, 5.3283429e-7, 3.3672569e-7
0.078, 4.8791338e-7, 2.7066352e-7
0.077, 5.3613246e-7, 3.3441700e-7
0.076, 4.7462180e-7, 3.3227320e-7
0.075, 5.1266608e-7, 3.4986886e-7
0.074, 5.0630058e-7, 3.6405095e-7
0.073, 4.9274513e-7, 2.9398154e-7
0.072, 5.1584880e-7, 3.2269202e-7
0.071, 4.6607954e-7, 2.6339109e-7
0.070, 5.2927231e-7, 3.0615175e-7
0.069, 4.6942716e-7, 3.0582194e-7
0.068, 4.7942058e-7, 3.3261949e-7
0.067, 5.0316737e-7, 3.6942697e-7
0.066, 4.5748783e-7, 2.8502703e-7
0.065, 5.0798269e-7, 2.8860552e-7
0.064, 4.4126091e-7, 2.4563050e-7
0.063, 4.7511654e-7, 2.7681460e-7
0.062, 4.7096083e-7, 3.2310430e-7
0.061, 4.5569035e-7, 2.8938061e-7
0.060, 4.9137645e-7, 3.6279766e-7
0.059, 4.3821009e-7, 2.9243139e-7
0.058, 4.8735268e-7, 3.0229290e-7
0.057, 4.4246474e-7, 2.4098009e-7
0.056, 4.5324970e-7, 2.3735213e-7
0.055, 4.7236256e-7, 3.2039981e-7
0.054, 4.1886642e-7, 2.5369451e-7
0.053, 4.6492519e-7, 3.1132987e-7
0.052, 4.1578261e-7, 2.7430801e-7
0.051, 4.5270548e-7, 2.9734568e-7
0.050, 4.3938093e-7, 2.4871429e-7
0.049, 4.2706233e-7, 2.0799848e-7
0.048, 4.5405773e-7, 3.0925202e-7
0.047, 3.9695010e-7, 2.7353295e-7
0.046, 4.5209538e-7, 3.0526127e-7
0.045, 4.0519552e-7, 2.7188386e-7
0.044, 4.4736248e-7, 2.6431459e-7
0.043, 4.4541656e-7, 2.7918929e-7
0.042, 4.0217770e-7, 2.1406711e-7
0.041, 4.4670284e-7, 2.5222681e-7
0.040, 3.8611563e-7, 2.6101642e-7
0.039, 4.4187107e-7, 3.1071971e-7
0.038, 4.0554181e-7, 2.9261281e-7
0.037, 4.0130368e-7, 2.4361862e-7
0.036, 4.5255709e-7, 2.5667936e-7
0.035, 3.8120140e-7, 1.9764227e-7
0.034, 4.5120484e-7, 2.6111536e-7
0.033, 3.7815059e-7, 2.4952232e-7
0.032, 4.2160386e-7, 2.8722030e-7
0.031, 4.1792640e-7, 3.2476984e-7
0.030, 3.8291643e-7, 2.4409687e-7
0.029, 4.3486247e-7, 2.5283697e-7
0.028, 3.6970729e-7, 2.0150111e-7
0.027, 4.2737565e-7, 2.3740159e-7
0.026, 3.7907409e-7, 2.6071956e-7
0.025, 4.0757018e-7, 2.3748404e-7
0.024, 4.1504052e-7, 3.2953571e-7
0.023, 3.7002064e-7, 2.7026778e-7
0.022, 4.2717775e-7, 2.4650450e-7
0.021, 3.7399491e-7, 1.9315677e-7
0.020, 4.0028124e-7, 2.0463438e-7
0.019, 3.8886961e-7, 2.8914974e-7
0.018, 3.7768882e-7, 2.4526770e-7
0.017, 3.9802200e-7, 2.8636276e-7
0.016, 3.5793286e-7, 2.6421566e-7
0.015, 4.1190725e-7, 2.4004012e-7
0.014, 3.7264266e-7, 2.5118788e-7
0.013, 3.9063411e-7, 1.8743447e-7
0.012, 4.0420605e-7, 2.8400461e-7
0.011, 3.4403112e-7, 2.5087456e-7
0.010, 4.1119816e-7, 3.1042288e-7
0.009, 3.4548231e-7, 2.5321629e-7
0.008, 4.0196332e-7, 2.3919910e-7
0.007, 3.9835180e-7, 2.6472685e-7
0.006, 3.8664334e-7, 1.7069630e-7
0.005, 4.1825621e-7, 2.4934093e-7
0.004, 3.5057798e-7, 2.4281059e-7
0.003, 4.1332549e-7, 2.7087793e-7
0.002, 3.7008658e-7, 2.6358899e-7
0.001, 3.7970074e-7, 2.4452561e-7
-0.000, 4.0202929e-7, 2.6861869e-7
-0.001, 3.6108258e-7, 1.8184409e-7
-0.002, 4.1452930e-7, 2.4859884e-7
-0.003, 3.4939063e-7, 2.3367465e-7
-0.004, 3.8941380e-7, 2.8796239e-7
-0.005, 3.8059122e-7, 2.8898484e-7
-0.006, 3.8011302e-7, 2.2381317e-7
-0.007, 4.0694351e-7, 2.7523149e-7
-0.008, 3.4281078e-7, 1.8446612e-7
-0.009, 4.1073639e-7, 2.0826235e-7
-0.010, 3.6830556e-7, 2.4020503e-7
-0.011, 3.9467437e-7, 2.5169913e-7
-0.012, 4.0897191e-7, 3.0888924e-7
-0.013, 3.5941704e-7, 2.1659019e-7
-0.014, 4.0132016e-7, 2.3886929e-7
-0.015, 3.5399157e-7, 2.0984547e-7
-0.016, 4.0526146e-7, 2.0867461e-7
-0.017, 3.8992505e-7, 2.5598672e-7
-0.018, 3.7793620e-7, 2.4487193e-7
-0.019, 4.0991188e-7, 3.0686084e-7
-0.020, 3.5432140e-7, 2.6624400e-7
-0.021, 4.0770212e-7, 2.4300846e-7
-0.022, 3.6256677e-7, 2.1814034e-7
-0.023, 4.1042307e-7, 2.0255654e-7
-0.024, 4.0691054e-7, 2.6863518e-7
-0.025, 3.5438737e-7, 2.4614172e-7
-0.026, 4.2340136e-7, 2.5847686e-7
-0.027, 3.4503705e-7, 2.5504676e-7
-0.028, 4.1368827e-7, 2.6848676e-7
-0.029, 3.8062421e-7, 2.3068984e-7
-0.030, 3.8487883e-7, 1.9152418e-7
-0.031, 4.1553523e-7, 2.8209166e-7
-0.032, 3.5234248e-7, 2.3835806e-7
-0.033, 4.1563419e-7, 2.8421897e-7
-0.034, 3.6344079e-7, 2.6452898e-7
-0.035, 4.0705896e-7, 2.4102957e-7
-0.036, 3.9810448e-7, 2.8537335e-7
-0.037, 3.9083204e-7, 1.8563696e-7
-0.038, 4.2378065e-7, 2.5883963e-7
-0.039, 3.6776140e-7, 2.4835148e-7
-0.040, 4.2551216e-7, 2.9050199e-7
-0.041, 3.7998109e-7, 2.7000391e-7
-0.042, 4.0691054e-7, 2.1680458e-7
-0.043, 4.1904778e-7, 2.7282385e-7
-0.044, 3.6822314e-7, 2.0212778e-7
-0.045, 4.2582548e-7, 2.7307118e-7
-0.046, 3.7239531e-7, 2.5460150e-7
-0.047, 4.1368827e-7, 2.9200265e-7
-0.048, 4.0056159e-7, 3.0536020e-7
-0.049, 3.9904444e-7, 2.3844052e-7
-0.050, 4.2206560e-7, 2.5742145e-7
-0.051, 3.7374755e-7, 2.1485867e-7
-0.052, 4.3614875e-7, 2.8148150e-7
-0.053, 3.9045273e-7, 2.6822292e-7
-0.054, 4.2035055e-7, 2.7455536e-7
-0.055, 4.1922920e-7, 3.0460160e-7
-0.056, 3.9170604e-7, 2.5451905e-7
-0.057, 4.4876421e-7, 2.6484230e-7
-0.058, 3.9012292e-7, 2.1720037e-7
-0.059, 4.3687436e-7, 2.9051847e-7
-0.060, 4.2249437e-7, 2.8558770e-7
-0.061, 4.1985584e-7, 2.6662329e-7
-0.062, 4.5541000e-7, 3.1881669e-7
-0.063, 3.8778120e-7, 2.6349005e-7
-0.064, 4.5918642e-7, 2.8009629e-7
-0.065, 4.1982284e-7, 2.0778411e-7
-0.066, 4.3679188e-7, 2.5598672e-7
-0.067, 4.4556498e-7, 2.9861545e-7
-0.068, 4.2493497e-7, 2.6548543e-7
-0.069, 4.6459536e-7, 3.0475002e-7
-0.070, 4.0862560e-7, 2.6088449e-7
-0.071, 4.5099046e-7, 2.8753362e-7
-0.072, 4.4973717e-7, 2.1769509e-7
-0.073, 4.5064417e-7, 2.6132975e-7
-0.074, 4.6754724e-7, 3.1339121e-7
-0.075, 4.2023515e-7, 3.0389251e-7
-0.076, 4.7147205e-7, 3.3740181e-7
-0.077, 4.3588489e-7, 2.6596365e-7
-0.078, 4.9599390e-7, 2.8954551e-7
-0.079, 4.7551228e-7, 2.4396493e-7
-0.080, 4.4681829e-7, 2.5501379e-7
-0.081, 4.8915018e-7, 2.9211807e-7
-0.082, 4.4065072e-7, 3.0752051e-7
-0.083, 4.9264622e-7, 3.3547238e-7
-0.084, 4.6025826e-7, 2.9239843e-7
-0.085, 4.6494165e-7, 2.7437397e-7
-0.086, 5.0559152e-7, 2.4934093e-7
-0.087, 4.5550894e-7, 2.8997425e-7
-0.088, 5.1370500e-7, 3.0465108e-7
-0.089, 4.4967118e-7, 3.1205545e-7
-0.090, 5.0488239e-7, 3.3360894e-7
-0.091, 5.0620167e-7, 3.2338465e-7
-0.092, 4.8045956e-7, 2.9693339e-7
-0.093, 5.3070698e-7, 2.5293593e-7
-0.094, 4.5798254e-7, 3.0785031e-7
-0.095, 5.2005396e-7, 3.2737543e-7
-0.096, 4.9060134e-7, 3.4896186e-7
-0.097, 5.0905459e-7, 3.2381340e-7
-0.098, 5.2396229e-7, 3.3527448e-7
-0.099, 4.8578607e-7, 3.0003366e-7
-0.100, 5.4508700e-7, 2.6377037e-7
-0.101, 4.9350376e-7, 3.2866168e-7
-0.102, 5.3189433e-7, 3.2811749e-7
-0.103, 5.2292330e-7, 3.8535705e-7
-0.104, 5.1756388e-7, 3.6200609e-7
-0.105, 5.3351044e-7, 3.3421910e-7
-0.106, 5.1845433e-7, 3.2857923e-7
-0.107, 5.6718466e-7, 2.7585813e-7
-0.108, 5.3283429e-7, 3.3484577e-7
-0.109, 5.4892934e-7, 3.2711154e-7
-0.110, 5.5989574e-7, 3.8943028e-7
-0.111, 5.1297940e-7, 3.6555161e-7
-0.112, 5.7737600e-7, 3.2848027e-7
-0.113, 5.3288375e-7, 3.3134967e-7
-0.114, 5.7561147e-7, 2.9922560e-7
-0.115, 5.7691420e-7, 3.7874426e-7
-0.116, 5.6477700e-7, 3.3199282e-7
-0.117, 5.9848423e-7, 3.7777130e-7
-0.118, 5.3687455e-7, 3.7722708e-7
-0.119, 6.0834572e-7, 3.5255687e-7
-0.120, 5.7216494e-7, 3.5176532e-7
-0.121, 5.8347757e-7, 3.2318675e-7
-0.122, 6.1144601e-7, 3.9276142e-7
-0.123, 5.5968133e-7, 3.4945660e-7
-0.124, 6.1761352e-7, 3.8776471e-7
-0.125, 5.5618528e-7, 3.7284053e-7
-0.126, 6.1772897e-7, 3.8097050e-7
-0.127, 6.0945058e-7, 3.8296591e-7
-0.128, 6.0542681e-7, 3.0049540e-7
-0.129, 6.4327321e-7, 4.2409397e-7
-0.130, 5.8166358e-7, 3.7351668e-7
-0.131, 6.3804566e-7, 4.0564072e-7
-0.132, 5.9183844e-7, 3.8535708e-7
-0.133, 6.3679238e-7, 3.6225345e-7
-0.134, 6.4841834e-7, 4.0471730e-7
-0.135, 6.0750472e-7, 2.9886280e-7
-0.136, 6.6225414e-7, 3.9625749e-7
-0.137, 5.9817091e-7, 3.7313737e-7
-0.138, 6.5608657e-7, 4.3100363e-7
-0.139, 6.4267954e-7, 4.0986242e-7
-0.140, 6.2914063e-7, 3.6121452e-7
-0.141, 6.6654172e-7, 3.9223374e-7
-0.142, 6.1410100e-7, 3.4025473e-7
-0.143, 6.7486963e-7, 4.1556819e-7
-0.144, 6.2501795e-7, 4.0038020e-7
-0.145, 6.7651865e-7, 4.2308801e-7
-0.146, 6.8011366e-7, 4.3571998e-7
-0.147, 6.2857993e-7, 3.9206884e-7
-0.148, 7.0414080e-7, 3.8896854e-7
-0.149, 6.2562810e-7, 3.4574617e-7
-0.150, 6.9243231e-7, 4.4353663e-7
-0.151, 6.5689460e-7, 4.1225357e-7
-0.152, 6.6479373e-7, 4.0682806e-7
-0.153, 7.0628460e-7, 4.3692381e-7
-0.154, 6.4838537e-7, 3.8623108e-7
-0.155, 7.0773581e-7, 3.9576278e-7
-0.156, 6.5405823e-7, 3.4939063e-7
-0.157, 6.9975420e-7, 4.2978326e-7
-0.158, 6.8954643e-7, 4.4995153e-7
-0.159, 6.7069743e-7, 4.2171928e-7
-0.160, 7.0509725e-7, 4.4253068e-7
-0.161, 6.5113932e-7, 4.1180829e-7
-0.162, 7.0978064e-7, 4.2854651e-7
-0.163, 6.8534126e-7, 3.7092761e-7
-0.164, 6.9972123e-7, 3.9762620e-7
-0.165, 7.0788417e-7, 4.5003401e-7
-0.166, 6.6807536e-7, 4.4787370e-7
-0.167, 7.2406169e-7, 4.4699971e-7
-0.168, 6.8113610e-7, 4.1553523e-7
-0.169, 7.2617252e-7, 4.1642573e-7
-0.170, 7.1649242e-7, 3.9899496e-7
-0.171, 7.0722456e-7, 4.2994819e-7
-0.172, 7.2162106e-7, 4.3593440e-7
-0.173, 6.8550617e-7, 4.6668973e-7
-0.174, 7.3974445e-7, 4.8347738e-7
-0.175, 7.0559202e-7, 4.2102664e-7
-0.176, 7.2790397e-7, 4.3219094e-7
-0.177, 7.5277217e-7, 4.1292969e-7
-0.178, 7.0809858e-7, 4.4958875e-7
-0.179, 7.5819759e-7, 4.5318376e-7
-0.180, 6.9836898e-7, 4.5450301e-7
-0.181, 7.5423986e-7, 4.7608944e-7
-0.182, 7.4737966e-7, 4.7077944e-7
-0.183, 7.5112303e-7, 3.8707213e-7
-0.184, 7.7160462e-7, 4.1014277e-7
-0.185, 7.2729387e-7, 4.5936781e-7
-0.186, 7.7856373e-7, 4.7264291e-7
-0.187, 7.4137699e-7, 4.7168641e-7
-0.188, 7.5979722e-7, 4.8763303e-7
-0.189, 7.8788105e-7, 4.8670955e-7
-0.190, 7.6459605e-7, 4.2717778e-7
-0.191, 8.0392658e-7, 4.1875091e-7
-0.192, 7.5034802e-7, 4.5372795e-7
-0.193, 7.8009742e-7, 4.9144239e-7
-0.194, 8.0127160e-7, 4.9431179e-7
-0.195, 7.8563835e-7, 4.6259998e-7
-0.196, 8.3492932e-7, 4.9843447e-7
-0.197, 7.7552943e-7, 4.4417976e-7
-0.198, 8.3629811e-7, 4.3619823e-7
-0.199, 7.9892993e-7, 4.7790348e-7
-0.200, 8.2989965e-7, 4.9863240e-7
-0.201, 8.5412466e-7, 5.2376436e-7
-0.202, 8.0862651e-7, 4.9800576e-7
-0.203, 8.6400263e-7, 4.7643579e-7
-0.204, 8.1040753e-7, 4.9129397e-7
-0.205, 8.5889042e-7, 4.6307821e-7
-0.206, 8.4954013e-7, 5.1253414e-7
-0.207, 8.2369911e-7, 4.8990876e-7
-0.208, 8.9302637e-7, 5.3252097e-7
-0.209, 8.1415089e-7, 5.3746822e-7
-0.210, 8.9657198e-7, 5.0298593e-7
-0.211, 8.5211275e-7, 4.7826626e-7
-0.212, 8.9106402e-7, 4.5897201e-7
-0.213, 9.1306276e-7, 5.6739901e-7
-0.214, 8.5463580e-7, 5.2452293e-7
-0.215, 9.3291771e-7, 5.4983633e-7
-0.216, 8.5386080e-7, 5.4648871e-7
-0.217, 9.3276924e-7, 5.4271231e-7
-0.218, 9.1429956e-7, 5.4886334e-7
-0.219, 9.0943479e-7, 4.5105645e-7
-0.220, 9.7167106e-7, 5.6685485e-7
-0.221, 8.7518345e-7, 5.3880399e-7
-0.222, 9.7389739e-7, 5.6800917e-7
-0.223, 9.1110030e-7, 5.6015961e-7
-0.224, 9.7518364e-7, 5.5827962e-7
-0.225, 9.6797703e-7, 5.5722421e-7
-0.226, 9.5804967e-7, 4.9508685e-7
-0.227, 9.9042109e-7, 5.7470447e-7
-0.228, 9.2948756e-7, 5.6924603e-7
-0.229, 1.0063677e-6, 6.2106011e-7
-0.230, 9.8577073e-7, 6.1373817e-7
-0.231, 1.0081322e-6, 5.5301905e-7
-0.232, 1.0240128e-6, 5.9159106e-7
-0.233, 9.7646989e-7, 5.2209884e-7
-0.234, 1.0446594e-6, 5.9431204e-7
-0.235, 9.8862370e-7, 5.8324673e-7
-0.236, 1.0452860e-6, 6.5987945e-7
-0.237, 1.0474957e-6, 6.2912409e-7
-0.238, 1.0404542e-6, 5.6782778e-7
-0.239, 1.0783500e-6, 5.7879419e-7
-0.240, 1.0229575e-6, 5.5615232e-7
-0.241, 1.0860842e-6, 6.2645262e-7
-0.242, 1.0454180e-6, 6.3255419e-7
-0.243, 1.0605070e-6, 6.9117903e-7
-0.244, 1.1011405e-6, 7.0669682e-7
-0.245, 1.0711765e-6, 6.0447036e-7
-0.246, 1.1132281e-6, 5.7706262e-7
-0.247, 1.0589733e-6, 5.4812131e-7
-0.248, 1.1063020e-6, 6.4975410e-7
-0.249, 1.1174332e-6, 6.8039401e-7
-0.250, 1.1022122e-6, 6.7531482e-7
-0.251, 1.1490791e-6, 6.8016311e-7
-0.252, 1.0893494e-6, 6.3976063e-7
-0.253, 1.1544221e-6, 6.0019926e-7
-0.254, 1.1348475e-6, 6.2478705e-7
-0.255, 1.1508271e-6, 6.5982999e-7
-0.256, 1.1681755e-6, 7.2204978e-7
-0.257, 1.1276246e-6, 6.7549627e-7
-0.258, 1.1711438e-6, 6.6556879e-7
-0.259, 1.1384921e-6, 6.4231676e-7
-0.260, 1.1817968e-6, 6.2707926e-7
-0.261, 1.1893002e-6, 6.7689797e-7
-0.262, 1.1481391e-6, 6.6035773e-7
-0.263, 1.2057415e-6, 7.4244895e-7
-0.264, 1.1440329e-6, 7.1105046e-7
-0.265, 1.2052468e-6, 6.7427595e-7
-0.266, 1.1679447e-6, 6.6820735e-7
-0.267, 1.2158009e-6, 6.2584246e-7
-0.268, 1.2407020e-6, 7.1319420e-7
-0.269, 1.1655864e-6, 6.7391318e-7
-0.270, 1.2359361e-6, 7.2455634e-7
-0.271, 1.1606062e-6, 7.1268300e-7
-0.272, 1.2184394e-6, 7.1843829e-7
-0.273, 1.2172356e-6, 7.0224428e-7
-0.274, 1.1861999e-6, 5.9094793e-7
-0.275, 1.2541420e-6, 7.2841522e-7
-0.276, 1.1593694e-6, 6.9129442e-7
-0.277, 1.2407680e-6, 7.3840869e-7
-0.278, 1.1917409e-6, 7.2937172e-7
-0.279, 1.2328194e-6, 6.8845804e-7
-0.280, 1.2434230e-6, 7.2927276e-7
-0.281, 1.1987165e-6, 6.1817423e-7
-0.282, 1.2515695e-6, 7.1678920e-7
-0.283, 1.1641353e-6, 6.9432872e-7
-0.284, 1.2403887e-6, 7.8644644e-7
-0.285, 1.2140529e-6, 7.4332297e-7
-0.286, 1.2203193e-6, 6.7307212e-7
-0.287, 1.2446762e-6, 6.8535775e-7
-0.288, 1.1809063e-6, 6.4284450e-7
-0.289, 1.2250357e-6, 7.1512363e-7
-0.290, 1.1826709e-6, 7.2188487e-7
-0.291, 1.2144486e-6, 7.5481705e-7
-0.292, 1.2346829e-6, 7.6697074e-7
-0.293, 1.2119750e-6, 6.8316444e-7
-0.294, 1.2267508e-6, 6.5410768e-7
-0.295, 1.1836109e-6, 6.7460576e-7
-0.296, 1.2352435e-6, 7.2412763e-7
-0.297, 1.1916914e-6, 7.1227072e-7
-0.298, 1.2012561e-6, 7.5514686e-7
-0.299, 1.2364144e-6, 7.6547008e-7
-0.300, 1.1785976e-6, 7.0047980e-7
-0.301, 1.2257943e-6, 6.4218483e-7
-0.302, 1.1643660e-6, 6.2658455e-7
-0.303, 1.2030206e-6, 7.1570082e-7
-0.304, 1.1999202e-6, 7.6739946e-7
-0.305, 1.1746564e-6, 7.4602747e-7
-0.306, 1.2264869e-6, 7.2079649e-7
-0.307, 1.1600785e-6, 6.9744556e-7
-0.308, 1.2247060e-6, 6.4650544e-7
-0.309, 1.1816650e-6, 6.4617564e-7
-0.310, 1.1783998e-6, 7.0212889e-7
-0.311, 1.2049666e-6, 7.6718516e-7
-0.312, 1.1505633e-6, 7.0250815e-7
-0.313, 1.2000193e-6, 6.9225086e-7
-0.314, 1.1551972e-6, 6.7396263e-7
-0.315, 1.1756129e-6, 6.5141967e-7
-0.316, 1.1934559e-6, 6.9357020e-7
-0.317, 1.1528555e-6, 6.7768951e-7
-0.318, 1.1972322e-6, 7.5963231e-7
-0.319, 1.1339406e-6, 7.3855711e-7
-0.320, 1.1774268e-6, 6.9797323e-7
-0.321, 1.1559064e-6, 6.7950350e-7
-0.322, 1.1776576e-6, 6.1927915e-7
-0.323, 1.1872553e-6, 6.9507087e-7
-0.324, 1.1232546e-6, 6.7424293e-7
-0.325, 1.1877006e-6, 7.0898909e-7
-0.326, 1.1366285e-6, 7.1931231e-7
-0.327, 1.1659657e-6, 7.1068769e-7
-0.328, 1.1620409e-6, 6.8656158e-7
-0.329, 1.1330005e-6, 5.8921637e-7
-0.330, 1.1983536e-6, 7.1123179e-7
-0.331, 1.1217209e-6, 6.8224097e-7
-0.332, 1.1834790e-6, 7.1993895e-7
-0.333, 1.1243759e-6, 7.1207285e-7
-0.334, 1.1575555e-6, 6.8069085e-7
-0.335, 1.1893662e-6, 7.3771605e-7
-0.336, 1.1273443e-6, 6.2214849e-7
-0.337, 1.1902896e-6, 6.9089867e-7
-0.338, 1.1064669e-6, 7.0300291e-7
-0.339, 1.1727104e-6, 7.3870547e-7
-0.340, 1.1371892e-6, 7.4167383e-7
-0.341, 1.1510911e-6, 6.6965850e-7
-0.342, 1.1843529e-6, 6.9907810e-7
-0.343, 1.1193792e-6, 6.1797630e-7
-0.344, 1.1816979e-6, 7.0392639e-7
-0.345, 1.1335449e-6, 7.0071064e-7
-0.346, 1.1642012e-6, 7.3143303e-7
-0.347, 1.1660482e-6, 7.7470492e-7
-0.348, 1.1510745e-6, 6.8389011e-7
-0.349, 1.1771959e-6, 7.0247518e-7
-0.350, 1.1315329e-6, 6.3509378e-7
-0.351, 1.1833800e-6, 7.1650891e-7
-0.352, 1.1527401e-6, 7.2125823e-7
-0.353, 1.1672685e-6, 7.3006436e-7
-0.354, 1.1851445e-6, 7.5264029e-7
-0.355, 1.1357381e-6, 7.1121531e-7
-0.356, 1.2075391e-6, 6.8507745e-7
-0.357, 1.1395309e-6, 6.3659445e-7
-0.358, 1.1971498e-6, 7.3161448e-7
-0.359, 1.1837758e-6, 7.5555909e-7
-0.360, 1.1743925e-6, 7.2378134e-7
-0.361, 1.2116617e-6, 7.5940142e-7
-0.362, 1.1640527e-6, 7.2401224e-7
-0.363, 1.2229909e-6, 7.3598449e-7
-0.364, 1.1942309e-6, 6.6584914e-7
-0.365, 1.1923676e-6, 7.3646271e-7
-0.366, 1.2228260e-6, 7.7193448e-7
-0.367, 1.1726115e-6, 7.4960593e-7
-0.368, 1.2254645e-6, 7.7798666e-7
-0.369, 1.1776082e-6, 7.2101091e-7
-0.370, 1.2248379e-6, 7.5945093e-7
-0.371, 1.2322257e-6, 7.0211240e-7
-0.372, 1.2393992e-6, 7.3044362e-7
-0.373, 1.2550161e-6, 7.9084941e-7
-0.374, 1.1980403e-6, 7.7788764e-7
-0.375, 1.2545379e-6, 8.0178285e-7
-0.376, 1.2284494e-6, 7.4879790e-7
-0.377, 1.2556261e-6, 7.6302945e-7
-0.378, 1.2780372e-6, 7.2874508e-7
-0.379, 1.2352106e-6, 7.2838225e-7
-0.380, 1.2810220e-6, 7.7204993e-7
-0.381, 1.2363485e-6, 7.8882107e-7
-0.382, 1.2741289e-6, 8.2112649e-7
-0.383, 1.2753492e-6, 7.7816804e-7
-0.384, 1.2733374e-6, 7.7172007e-7
-0.385, 1.3016356e-6, 7.4746208e-7
-0.386, 1.2540100e-6, 7.8306573e-7
-0.387, 1.3084298e-6, 8.0844512e-7
-0.388, 1.2736177e-6, 8.1337589e-7
-0.389, 1.3242444e-6, 8.6175987e-7
-0.390, 1.3377339e-6, 8.2289102e-7
-0.391, 1.2833307e-6, 7.9792392e-7
-0.392, 1.3486343e-6, 7.4160783e-7
-0.393, 1.2984858e-6, 7.8746876e-7
-0.394, 1.3369754e-6, 8.4452699e-7
-0.395, 1.3218203e-6, 8.5138709e-7
-0.396, 1.3166587e-6, 8.5950063e-7
-0.397, 1.3652241e-6, 8.6228755e-7
-0.398, 1.3176646e-6, 8.1368921e-7
-0.399, 1.3735355e-6, 7.6857032e-7
-0.400, 1.3345677e-6, 7.6913102e-7
-0.401, 1.3665929e-6, 8.4940825e-7
-0.402, 1.3703527e-6, 8.8667741e-7
-0.403, 1.3516685e-6, 8.7869591e-7
-0.404, 1.3903232e-6, 8.6204022e-7
-0.405, 1.3498546e-6, 8.5424006e-7
-0.406, 1.3997392e-6, 8.3936538e-7
-0.407, 1.3830177e-6, 8.0757115e-7
-0.408, 1.3875197e-6, 8.1434882e-7
-0.409, 1.3907518e-6, 8.8407194e-7
-0.410, 1.3714741e-6, 9.0664787e-7
-0.411, 1.4111180e-6, 8.7716228e-7
-0.412, 1.3756132e-6, 8.6119917e-7
-0.413, 1.4200066e-6, 8.7036813e-7
-0.414, 1.4231232e-6, 8.4180601e-7
-0.415, 1.4018171e-6, 8.5404213e-7
-0.416, 1.4265368e-6, 8.5323416e-7
-0.417, 1.3970018e-6, 8.9465902e-7
-0.418, 1.4450395e-6, 9.1568484e-7
-0.419, 1.4251846e-6, 8.7483710e-7
-0.420, 1.4218865e-6, 8.5938524e-7
-0.421, 1.4580673e-6, 8.4902899e-7
-0.422, 1.4065995e-6, 8.8245588e-7
-0.423, 1.4572593e-6, 8.7699743e-7
-0.424, 1.3961278e-6, 9.1545394e-7
-0.425, 1.4378495e-6, 9.3082332e-7
-0.426, 1.4415434e-6, 9.1576726e-7
-0.427, 1.4353594e-6, 8.5887399e-7
-0.428, 1.4753991e-6, 8.3801308e-7
-0.429, 1.4166588e-6, 8.3847488e-7
-0.430, 1.4681267e-6, 9.0796709e-7
-0.431, 1.4313521e-6, 9.0806606e-7
-0.432, 1.4442314e-6, 9.4343875e-7
-0.433, 1.4597164e-6, 9.1613003e-7
-0.434, 1.4296536e-6, 8.6126511e-7
-0.435, 1.4760258e-6, 8.6594855e-7
-0.436, 1.4181925e-6, 8.1936201e-7
-0.437, 1.4633114e-6, 9.0458650e-7
-0.438, 1.4431596e-6, 8.9277910e-7
-0.439, 1.4336939e-6, 9.2099481e-7
-0.440, 1.4663622e-6, 9.4149289e-7
-0.441, 1.4156365e-6, 8.8354420e-7
-0.442, 1.4728760e-6, 8.9004158e-7
-0.443, 1.4426319e-6, 8.2190161e-7
-0.444, 1.4754156e-6, 8.9358713e-7
-0.445, 1.4612335e-6, 9.1169397e-7
-0.446, 1.4164939e-6, 8.8849151e-7
-0.447, 1.4572263e-6, 8.9899612e-7
-0.448, 1.4055936e-6, 8.6355737e-7
-0.449, 1.4570778e-6, 9.0018341e-7
-0.450, 1.4339741e-6, 8.1871889e-7
-0.451, 1.4270811e-6, 8.6182581e-7
-0.452, 1.4589743e-6, 8.9045386e-7
-0.453, 1.3867610e-6, 8.9010757e-7
-0.454, 1.4499539e-6, 9.3872245e-7
-0.455, 1.4032519e-6, 8.4383430e-7
-0.456, 1.4455177e-6, 8.4785813e-7
-0.457, 1.4383443e-6, 8.4073406e-7
-0.458, 1.3973811e-6, 8.2925646e-7
-0.459, 1.4328858e-6, 8.6156194e-7
-0.460, 1.3541093e-6, 8.5369584e-7
-0.461, 1.4073250e-6, 9.3214260e-7
-0.462, 1.3834958e-6, 8.9116298e-7
-0.463, 1.3974142e-6, 8.1039104e-7
-0.464, 1.4062367e-6, 8.9676979e-7
-0.465, 1.3568302e-6, 7.8542394e-7
-0.466, 1.4067973e-6, 8.5425654e-7
-0.467, 1.3454021e-6, 8.3329672e-7
-0.468, 1.3799008e-6, 8.6413456e-7
-0.469, 1.3687861e-6, 8.8580344e-7
-0.470, 1.3593698e-6, 8.1787783e-7
-0.471, 1.3677967e-6, 8.2862988e-7
-0.472, 1.3114806e-6, 7.7516665e-7
-0.473, 1.3703692e-6, 8.2168719e-7
-0.474, 1.3257945e-6, 8.3926642e-7
-0.475, 1.3302306e-6, 8.1885082e-7
-0.476, 1.3410486e-6, 8.8410491e-7
-0.477, 1.2901910e-6, 8.1573404e-7
-0.478, 1.3417576e-6, 8.0235998e-7
-0.479, 1.2768004e-6, 7.2976752e-7
-0.480, 1.3051151e-6, 7.4627479e-7
-0.481, 1.2953526e-6, 8.3674331e-7
-0.482, 1.2817146e-6, 7.5799977e-7
-0.483, 1.2970676e-6, 8.4480735e-7
-0.484, 1.2429118e-6, 7.9535141e-7
-0.485, 1.2829679e-6, 7.6888364e-7
-0.486, 1.2467706e-6, 7.4263033e-7
-0.487, 1.2340562e-6, 7.0748843e-7
-0.488, 1.2599138e-6, 8.0893983e-7
-0.489, 1.2010252e-6, 7.3552280e-7
-0.490, 1.2486671e-6, 7.8603409e-7
-0.491, 1.1790759e-6, 7.5404193e-7
-0.492, 1.2164935e-6, 7.5486651e-7
-0.493, 1.2128655e-6, 7.4634073e-7
-0.494, 1.1791253e-6, 6.4934181e-7
-0.495, 1.2114804e-6, 7.1286445e-7
-0.496, 1.1484525e-6, 7.1962563e-7
-0.497, 1.1801147e-6, 7.4284469e-7
-0.498, 1.1507447e-6, 7.6175962e-7
-0.499, 1.1652401e-6, 7.2445749e-7
-0.500, 1.1657183e-6, 7.3616593e-7
