Dec. 9, 2005   03:02:24
Square Wave Voltammetry
File: d:\ida_biofilms\11_28_18_blankidapyo\75um_transfer\75um_pyo_transfer_swv_45.txt
Data Source:  Experiment
Instrument Model:  CHI760B
Header: 
Note: 

Init E (V) = 0.1
Final E (V) = -0.5
Incr E (V) = 0.001
Amplitude (V) = 0.025
Frequency (Hz) = 300
Quiet Time (sec) = 2
Sensitivity (A/V) = 1e-6
Sens 2 (A/V) = 1e-6

Potential/V, i1/A, i2/A

0.099, 6.5776862e-7, 2.7780405e-7
0.098, 6.1662405e-7, 4.1782747e-7
0.097, 5.7079615e-7, 3.2513265e-7
0.096, 6.2757397e-7, 4.0293628e-7
0.095, 5.7623811e-7, 3.8215785e-7
0.094, 6.1909770e-7, 4.3329584e-7
0.093, 5.9030475e-7, 4.3403793e-7
0.092, 5.9020584e-7, 3.6692035e-7
0.091, 5.9803892e-7, 3.7678186e-7
0.090, 5.5095768e-7, 3.1631009e-7
0.089, 6.0085887e-7, 3.7321985e-7
0.088, 5.5768595e-7, 3.7402788e-7
0.087, 5.7031792e-7, 3.8314730e-7
0.086, 5.7420971e-7, 4.1903129e-7
0.085, 5.2793655e-7, 3.5021515e-7
0.084, 5.8550597e-7, 3.4701597e-7
0.083, 5.0999461e-7, 3.0211152e-7
0.082, 5.7460551e-7, 3.6350679e-7
0.081, 5.4325653e-7, 3.7595731e-7
0.080, 5.3199329e-7, 3.5188074e-7
0.079, 5.5013322e-7, 3.7636960e-7
0.078, 4.9701634e-7, 3.3608256e-7
0.077, 5.5171625e-7, 3.5941702e-7
0.076, 5.0559152e-7, 2.8049206e-7
0.075, 5.2397877e-7, 3.4401461e-7
0.074, 5.2907444e-7, 3.8360906e-7
0.073, 4.9916008e-7, 3.3783058e-7
0.072, 5.3928221e-7, 3.6718421e-7
0.071, 4.7930519e-7, 2.9810423e-7
0.070, 5.1962519e-7, 3.4548231e-7
0.069, 4.9744506e-7, 2.8377372e-7
0.068, 4.9511982e-7, 3.0453566e-7
0.067, 5.1856978e-7, 3.5750409e-7
0.066, 4.6114880e-7, 3.4695000e-7
0.065, 5.0752095e-7, 3.5954895e-7
0.064, 4.7826626e-7, 2.9760952e-7
0.063, 4.9549914e-7, 3.0925202e-7
0.062, 4.9457566e-7, 2.7635286e-7
0.061, 4.6194037e-7, 2.5709161e-7
0.060, 4.8976034e-7, 3.1843740e-7
0.059, 4.3903464e-7, 3.1777779e-7
0.058, 4.8273523e-7, 3.7097709e-7
0.057, 4.7072996e-7, 2.8974341e-7
0.056, 4.6027480e-7, 2.8524141e-7
0.055, 4.9782432e-7, 2.6985549e-7
0.054, 4.2620479e-7, 2.6609558e-7
0.053, 4.8286722e-7, 3.1291299e-7
0.052, 4.1985584e-7, 3.1179161e-7
0.051, 4.7356636e-7, 3.3865513e-7
0.050, 4.7198324e-7, 3.2241167e-7
0.049, 4.3510983e-7, 2.8064048e-7
0.048, 4.7274182e-7, 2.1756316e-7
0.047, 4.1043958e-7, 2.2806779e-7
0.046, 4.6342456e-7, 3.1151126e-7
0.045, 4.2755704e-7, 3.0316693e-7
0.044, 4.3210849e-7, 3.1914649e-7
0.043, 4.6192389e-7, 2.7897491e-7
0.042, 4.1238550e-7, 2.5674530e-7
0.041, 4.5992846e-7, 2.3550515e-7
0.040, 4.1151148e-7, 2.2951899e-7
0.039, 4.4005708e-7, 2.8616489e-7
0.038, 4.2514938e-7, 3.2204889e-7
0.037, 4.2571006e-7, 3.1075268e-7
0.036, 4.4607620e-7, 2.9201914e-7
0.035, 3.9493824e-7, 2.6649136e-7
0.034, 4.3060783e-7, 2.2608890e-7
0.033, 3.9985247e-7, 2.2526436e-7
0.032, 4.2290662e-7, 2.4805465e-7
0.031, 4.2346733e-7, 2.9083179e-7
0.030, 3.8360906e-7, 3.1944336e-7
0.029, 4.2373117e-7, 2.5781722e-7
0.028, 3.8796261e-7, 2.6147816e-7
0.027, 4.2571006e-7, 2.4465754e-7
0.026, 4.0689406e-7, 2.4592734e-7
0.025, 4.0890592e-7, 2.6800853e-7
0.024, 4.1754711e-7, 2.8558773e-7
0.023, 3.8205889e-7, 3.2170260e-7
0.022, 4.2790333e-7, 2.8057451e-7
0.021, 3.8619811e-7, 2.7059758e-7
0.020, 4.0313415e-7, 2.0961458e-7
0.019, 4.1941058e-7, 2.2805131e-7
0.018, 3.6634319e-7, 2.6736538e-7
0.017, 4.1528790e-7, 2.6655732e-7
0.016, 3.7041642e-7, 3.0135294e-7
0.015, 4.0888946e-7, 2.5301838e-7
0.014, 4.0783402e-7, 2.7109232e-7
0.013, 3.9371793e-7, 2.0494768e-7
0.012, 4.2038354e-7, 2.2950249e-7
0.011, 3.6904765e-7, 2.5620110e-7
0.010, 4.1832220e-7, 2.7021829e-7
0.009, 3.8054176e-7, 2.8905077e-7
0.008, 3.8680827e-7, 2.6071959e-7
0.007, 4.0801541e-7, 2.8128363e-7
0.006, 3.7330227e-7, 1.9795559e-7
0.005, 4.1917971e-7, 2.1340747e-7
0.004, 3.5318351e-7, 2.4831851e-7
0.003, 3.9805496e-7, 2.6571632e-7
0.002, 3.9605959e-7, 3.0471705e-7
0.001, 3.8365852e-7, 2.1271487e-7
-0.000, 4.0466779e-7, 2.8293272e-7
-0.001, 3.6413343e-7, 2.3217400e-7
-0.002, 4.1047255e-7, 2.2284021e-7
-0.003, 3.7317039e-7, 2.5974663e-7
-0.004, 3.9978653e-7, 2.5387590e-7
-0.005, 3.9907744e-7, 3.1194003e-7
-0.006, 3.6019213e-7, 2.4180466e-7
-0.007, 4.1268231e-7, 2.4431125e-7
-0.008, 3.4724684e-7, 2.2308757e-7
-0.009, 4.0364534e-7, 2.1917926e-7
-0.010, 3.8365852e-7, 2.6258306e-7
-0.011, 3.7213147e-7, 2.4378355e-7
-0.012, 4.0987891e-7, 2.6866815e-7
-0.013, 3.6367169e-7, 2.4617469e-7
-0.014, 4.0977994e-7, 2.5511270e-7
-0.015, 3.5282073e-7, 2.0761919e-7
-0.016, 3.9803848e-7, 2.0199585e-7
-0.017, 4.0059456e-7, 2.8097031e-7
-0.018, 3.4924221e-7, 2.4734555e-7
-0.019, 4.1185780e-7, 2.7013584e-7
-0.020, 3.4008983e-7, 2.6213780e-7
-0.021, 4.0935117e-7, 2.7453888e-7
-0.022, 3.6464462e-7, 2.5727300e-7
-0.023, 3.7760640e-7, 1.9069964e-7
-0.024, 4.1607944e-7, 2.6800851e-7
-0.025, 3.5000079e-7, 2.5108895e-7
-0.026, 4.0964804e-7, 2.7490168e-7
-0.027, 3.6121455e-7, 2.5432115e-7
-0.028, 4.0829576e-7, 2.4665295e-7
-0.029, 3.8702262e-7, 2.5173210e-7
-0.030, 3.8291643e-7, 1.8453208e-7
-0.031, 4.1299566e-7, 2.7363188e-7
-0.032, 3.5724025e-7, 2.6053817e-7
-0.033, 4.0847718e-7, 2.9393206e-7
-0.034, 3.7176866e-7, 2.6795905e-7
-0.035, 3.9787358e-7, 2.1500708e-7
-0.036, 4.0323312e-7, 2.7927172e-7
-0.037, 3.5867498e-7, 2.0504665e-7
-0.038, 4.1111571e-7, 2.6482579e-7
-0.039, 3.5766902e-7, 2.5578885e-7
-0.040, 4.0414011e-7, 2.8768204e-7
-0.041, 3.9205236e-7, 3.0112204e-7
-0.042, 3.9620801e-7, 2.3811070e-7
-0.043, 4.2018564e-7, 2.6136271e-7
-0.044, 3.6865188e-7, 2.0979599e-7
-0.045, 4.3487898e-7, 2.8816029e-7
-0.046, 3.8534057e-7, 2.5686074e-7
-0.047, 4.0481621e-7, 2.8797888e-7
-0.048, 4.2333539e-7, 3.2275798e-7
-0.049, 3.7693025e-7, 2.5344713e-7
-0.050, 4.3065734e-7, 2.7900791e-7
-0.051, 3.7079570e-7, 2.1014230e-7
-0.052, 4.1871797e-7, 2.5913647e-7
-0.053, 4.1126412e-7, 2.8918271e-7
-0.054, 4.1116519e-7, 2.7208176e-7
-0.055, 4.3938093e-7, 2.9572956e-7
-0.056, 3.7658396e-7, 2.5291942e-7
-0.057, 4.3989218e-7, 2.8271830e-7
-0.058, 3.9462489e-7, 2.0911986e-7
-0.059, 4.2162034e-7, 2.4943989e-7
-0.060, 4.2552864e-7, 3.1316034e-7
-0.061, 4.0268890e-7, 2.6190693e-7
-0.062, 4.3482947e-7, 3.3202582e-7
-0.063, 3.9187094e-7, 2.7181790e-7
-0.064, 4.4073317e-7, 2.8858904e-7
-0.065, 4.2572657e-7, 2.2633625e-7
-0.066, 4.2455571e-7, 2.5051179e-7
-0.067, 4.5097397e-7, 3.0339780e-7
-0.068, 3.9566379e-7, 2.6533701e-7
-0.069, 4.5381040e-7, 3.4309113e-7
-0.070, 4.1505700e-7, 2.8093731e-7
-0.071, 4.6296279e-7, 2.7401117e-7
-0.072, 4.5585523e-7, 2.4767536e-7
-0.073, 4.1637625e-7, 2.2239496e-7
-0.074, 4.6020881e-7, 2.8855607e-7
-0.075, 4.0433798e-7, 2.9975331e-7
-0.076, 4.6347401e-7, 3.4472373e-7
-0.077, 4.4160720e-7, 3.0473353e-7
-0.078, 4.4442714e-7, 2.6860221e-7
-0.079, 4.7909083e-7, 2.6022485e-7
-0.080, 4.2003722e-7, 2.7590761e-7
-0.081, 4.7707891e-7, 3.0575598e-7
-0.082, 4.1891587e-7, 2.6383634e-7
-0.083, 4.7402813e-7, 3.4002386e-7
-0.084, 4.7810136e-7, 3.3092093e-7
-0.085, 4.5145219e-7, 2.7046565e-7
-0.086, 4.8484605e-7, 2.7206525e-7
-0.087, 4.3329584e-7, 2.5184752e-7
-0.088, 4.8943053e-7, 3.2312079e-7
-0.089, 4.5407424e-7, 3.0133646e-7
-0.090, 4.6988893e-7, 3.3078902e-7
-0.091, 4.9760996e-7, 3.4886290e-7
-0.092, 4.4798915e-7, 2.9492151e-7
-0.093, 5.0499784e-7, 3.1566694e-7
-0.094, 4.6205582e-7, 2.6868463e-7
-0.095, 4.9977024e-7, 3.2940378e-7
-0.096, 4.8154794e-7, 3.3862216e-7
-0.097, 4.8327945e-7, 3.5826267e-7
-0.098, 5.0941736e-7, 3.4055157e-7
-0.099, 4.6697005e-7, 3.0371109e-7
-0.100, 5.2282445e-7, 3.2328569e-7
-0.101, 4.8425244e-7, 2.6602964e-7
-0.102, 5.0862582e-7, 3.0623420e-7
-0.103, 5.1589825e-7, 3.4037015e-7
-0.104, 4.7701292e-7, 3.4347045e-7
-0.105, 5.3189433e-7, 3.4882996e-7
-0.106, 4.8423590e-7, 3.2455549e-7
-0.107, 5.3837522e-7, 3.3148163e-7
-0.108, 5.2947019e-7, 3.1220387e-7
-0.109, 5.1744837e-7, 3.2481933e-7
-0.110, 5.4211864e-7, 3.3172898e-7
-0.111, 4.9421283e-7, 3.7745798e-7
-0.112, 5.6278162e-7, 3.6292957e-7
-0.113, 5.1515622e-7, 3.2364849e-7
-0.114, 5.4018921e-7, 3.4866503e-7
-0.115, 5.5610280e-7, 3.2366498e-7
-0.116, 5.2986599e-7, 3.4948957e-7
-0.117, 5.7092808e-7, 3.4549879e-7
-0.118, 5.1632708e-7, 3.7289004e-7
-0.119, 5.6174270e-7, 3.8576934e-7
-0.120, 5.6045644e-7, 3.5364525e-7
-0.121, 5.5336540e-7, 3.2846381e-7
-0.122, 5.8489582e-7, 3.2498426e-7
-0.123, 5.3982637e-7, 3.5893879e-7
-0.124, 5.8486279e-7, 3.7600682e-7
-0.125, 5.5310153e-7, 3.8966115e-7
-0.126, 5.7259365e-7, 3.7945335e-7
-0.127, 5.8661078e-7, 3.7976670e-7
-0.128, 5.5410743e-7, 3.3202582e-7
-0.129, 5.9925924e-7, 3.1286351e-7
-0.130, 5.5580603e-7, 3.5694342e-7
-0.131, 5.8445050e-7, 3.9020537e-7
-0.132, 5.9244860e-7, 3.9525156e-7
-0.133, 5.7958573e-7, 3.7617173e-7
-0.134, 6.2287404e-7, 3.8748439e-7
-0.135, 5.6423283e-7, 3.6723367e-7
-0.136, 6.2569404e-7, 3.3946316e-7
-0.137, 5.8906801e-7, 3.7170270e-7
-0.138, 6.1835561e-7, 3.7162022e-7
-0.139, 6.1832264e-7, 4.1753060e-7
-0.140, 5.7930538e-7, 3.9742832e-7
-0.141, 6.3222438e-7, 3.5806480e-7
-0.142, 5.8121833e-7, 3.7254372e-7
-0.143, 6.3924949e-7, 3.4350342e-7
-0.144, 6.1116560e-7, 4.0169945e-7
-0.145, 6.0362930e-7, 3.7213144e-7
-0.146, 6.5204631e-7, 4.1027468e-7
-0.147, 5.8100397e-7, 4.1568364e-7
-0.148, 6.6256746e-7, 3.8835842e-7
-0.149, 5.8766625e-7, 3.7544612e-7
-0.150, 6.4050278e-7, 3.3412016e-7
-0.151, 6.5036426e-7, 4.0920276e-7
-0.152, 6.1111615e-7, 3.7679834e-7
-0.153, 6.6342500e-7, 4.0956559e-7
-0.154, 5.9952310e-7, 4.1027471e-7
-0.155, 6.5430561e-7, 4.0136968e-7
-0.156, 6.2688139e-7, 4.0405763e-7
-0.157, 6.4307528e-7, 3.1957526e-7
-0.158, 6.6316113e-7, 4.0418956e-7
-0.159, 6.0959900e-7, 4.0193032e-7
-0.160, 6.6263340e-7, 4.2216453e-7
-0.161, 6.2922311e-7, 4.5092449e-7
-0.162, 6.6063802e-7, 3.9452596e-7
-0.163, 6.6871849e-7, 4.2091125e-7
-0.164, 6.5456942e-7, 3.5234251e-7
-0.165, 6.8606687e-7, 3.7153779e-7
-0.166, 6.2978376e-7, 4.1067045e-7
-0.167, 6.8835908e-7, 4.2534725e-7
-0.168, 6.5892300e-7, 4.6217122e-7
-0.169, 6.7523240e-7, 4.2282417e-7
-0.170, 6.8750154e-7, 4.3167972e-7
-0.171, 6.3948033e-7, 3.7208196e-7
-0.172, 6.9000816e-7, 3.5630029e-7
-0.173, 6.4571384e-7, 4.0846066e-7
-0.174, 6.7615588e-7, 4.2138947e-7
-0.175, 6.8522581e-7, 4.7981644e-7
-0.176, 6.7312158e-7, 4.3027802e-7
-0.177, 7.0658143e-7, 4.2241189e-7
-0.178, 6.6152847e-7, 3.9899498e-7
-0.179, 7.2368232e-7, 3.9183794e-7
-0.180, 6.8242241e-7, 4.3440070e-7
-0.181, 6.8669351e-7, 4.3571998e-7
-0.182, 7.2772264e-7, 4.9035401e-7
-0.183, 6.7376470e-7, 4.5851027e-7
-0.184, 7.2821734e-7, 4.3408738e-7
-0.185, 6.6706946e-7, 4.2780442e-7
-0.186, 7.1716852e-7, 4.0806489e-7
-0.187, 7.2425951e-7, 4.5099046e-7
-0.188, 7.0856032e-7, 4.2274175e-7
-0.189, 7.3895285e-7, 5.1147873e-7
-0.190, 6.9320737e-7, 4.6799249e-7
-0.191, 7.5544369e-7, 4.5171606e-7
-0.192, 7.2762373e-7, 4.2986574e-7
-0.193, 7.4390010e-7, 3.9068362e-7
-0.194, 7.5851096e-7, 4.6459536e-7
-0.195, 7.1997192e-7, 4.3692381e-7
-0.196, 7.6565146e-7, 4.9020559e-7
-0.197, 7.2068104e-7, 4.9630722e-7
-0.198, 7.6232027e-7, 5.0080916e-7
-0.199, 7.6741594e-7, 4.5798254e-7
-0.200, 7.5298652e-7, 4.2231295e-7
-0.201, 7.9147605e-7, 4.8161388e-7
-0.202, 7.3384069e-7, 4.6202280e-7
-0.203, 7.9086590e-7, 4.7823329e-7
-0.204, 7.5889022e-7, 5.3017931e-7
-0.205, 8.0468521e-7, 5.0519577e-7
-0.206, 8.2237983e-7, 5.0420624e-7
-0.207, 7.7424318e-7, 4.8214162e-7
-0.208, 8.2252825e-7, 4.2252736e-7
-0.209, 7.8131774e-7, 4.8454922e-7
-0.210, 8.3455001e-7, 5.0945039e-7
-0.211, 8.0978089e-7, 5.2389629e-7
-0.212, 7.9399911e-7, 5.1764630e-7
-0.213, 8.6220507e-7, 4.9610929e-7
-0.214, 7.9149254e-7, 5.0267261e-7
-0.215, 8.6157843e-7, 4.4614217e-7
-0.216, 8.1268320e-7, 5.0321682e-7
-0.217, 8.6019327e-7, 5.1477690e-7
-0.218, 8.6515695e-7, 5.6856987e-7
-0.219, 8.3712257e-7, 5.4812131e-7
-0.220, 8.9662137e-7, 5.0846091e-7
-0.221, 8.3323084e-7, 5.0263964e-7
-0.222, 9.0170056e-7, 4.6329259e-7
-0.223, 8.5552631e-7, 4.9657103e-7
-0.224, 8.7925662e-7, 5.0252424e-7
-0.225, 9.0770328e-7, 5.8593469e-7
-0.226, 8.4906196e-7, 5.9230013e-7
-0.227, 9.2534833e-7, 5.3004737e-7
-0.228, 8.9665446e-7, 5.1086857e-7
-0.229, 9.1992291e-7, 5.1246815e-7
-0.230, 9.2615642e-7, 5.1306188e-7
-0.231, 9.1486027e-7, 5.4505404e-7
-0.232, 9.3616643e-7, 5.4920969e-7
-0.233, 8.8832655e-7, 5.9190438e-7
-0.234, 9.5864334e-7, 5.9132719e-7
-0.235, 9.3549022e-7, 5.6675589e-7
-0.236, 9.5460314e-7, 5.5554216e-7
-0.237, 9.7467239e-7, 5.3849067e-7
-0.238, 9.2841572e-7, 5.8633049e-7
-0.239, 9.8976147e-7, 5.7671633e-7
-0.240, 9.3700743e-7, 5.8443402e-7
-0.241, 9.8756823e-7, 6.1967489e-7
-0.242, 9.8920077e-7, 6.1957593e-7
-0.243, 9.9404906e-7, 5.5837859e-7
-0.244, 1.0192636e-6, 5.3362584e-7
-0.245, 9.7251211e-7, 6.0324999e-7
-0.246, 1.0303288e-6, 6.0824675e-7
-0.247, 1.0017668e-6, 6.2993217e-7
-0.248, 1.0058566e-6, 6.4914394e-7
-0.249, 1.0440657e-6, 6.5851077e-7
-0.250, 1.0127496e-6, 5.9343802e-7
-0.251, 1.0589404e-6, 5.6472754e-7
-0.252, 1.0020142e-6, 5.7331920e-7
-0.253, 1.0510743e-6, 6.4582929e-7
-0.254, 1.0631290e-6, 6.6621192e-7
-0.255, 1.0420868e-6, 6.4803908e-7
-0.256, 1.0869747e-6, 6.8172983e-7
-0.257, 1.0288118e-6, 6.2608979e-7
-0.258, 1.1047848e-6, 5.7970118e-7
-0.259, 1.0633764e-6, 5.6833903e-7
-0.260, 1.0861997e-6, 6.4739595e-7
-0.261, 1.0975289e-6, 6.8471462e-7
-0.262, 1.0523770e-6, 6.7585904e-7
-0.263, 1.1083469e-6, 6.6161101e-7
-0.264, 1.0787294e-6, 6.1014322e-7
-0.265, 1.1054279e-6, 6.4033787e-7
-0.266, 1.1065658e-6, 6.1871845e-7
-0.267, 1.0842538e-6, 6.3473101e-7
-0.268, 1.1130796e-6, 6.8905172e-7
-0.269, 1.0762557e-6, 7.0692772e-7
-0.270, 1.1163779e-6, 6.8812824e-7
-0.271, 1.0993099e-6, 6.3844141e-7
-0.272, 1.1442968e-6, 6.6083589e-7
-0.273, 1.1565824e-6, 6.1433184e-7
-0.274, 1.0941483e-6, 6.6505754e-7
-0.275, 1.1541583e-6, 6.4483982e-7
-0.276, 1.0777400e-6, 6.8161432e-7
-0.277, 1.1381458e-6, 7.2846473e-7
-0.278, 1.1268495e-6, 6.5320069e-7
-0.279, 1.1150586e-6, 6.4474091e-7
-0.280, 1.1717375e-6, 6.2110956e-7
-0.281, 1.1056588e-6, 6.6060505e-7
-0.282, 1.1486175e-6, 6.7640326e-7
-0.283, 1.0971991e-6, 6.8608335e-7
-0.284, 1.1411965e-6, 7.0306885e-7
-0.285, 1.1566319e-6, 6.9150883e-7
-0.286, 1.1092374e-6, 6.4706614e-7
-0.287, 1.1596333e-6, 5.9058510e-7
-0.288, 1.1042076e-6, 6.5902191e-7
-0.289, 1.1393661e-6, 6.9505433e-7
-0.290, 1.1204181e-6, 7.0072718e-7
-0.291, 1.1161800e-6, 7.1149566e-7
-0.292, 1.1500520e-6, 6.9322385e-7
-0.293, 1.1015361e-6, 6.6063808e-7
-0.294, 1.1606721e-6, 6.1398555e-7
-0.295, 1.1085942e-6, 6.3906805e-7
-0.296, 1.1487164e-6, 6.7988282e-7
-0.297, 1.1336601e-6, 7.3529191e-7
-0.298, 1.1165922e-6, 7.0704311e-7
-0.299, 1.1443133e-6, 6.9070074e-7
-0.300, 1.1041086e-6, 6.6093492e-7
-0.301, 1.1465561e-6, 6.1014316e-7
-0.302, 1.1211766e-6, 6.1997173e-7
-0.303, 1.1290264e-6, 6.6141308e-7
-0.304, 1.1391681e-6, 6.9747853e-7
-0.305, 1.0808567e-6, 7.1990598e-7
-0.306, 1.1445607e-6, 6.5892300e-7
-0.307, 1.0965559e-6, 6.6106679e-7
-0.308, 1.1286966e-6, 6.5043025e-7
-0.309, 1.1298839e-6, 6.2735961e-7
-0.310, 1.1054444e-6, 6.5649886e-7
-0.311, 1.1308567e-6, 6.6855364e-7
-0.312, 1.0855730e-6, 7.0283801e-7
-0.313, 1.1416747e-6, 6.9820408e-7
-0.314, 1.1122056e-6, 6.5318420e-7
-0.315, 1.1013877e-6, 6.8499492e-7
-0.316, 1.1340230e-6, 6.3753441e-7
-0.317, 1.0978422e-6, 6.4963865e-7
-0.318, 1.1326872e-6, 6.8943098e-7
-0.319, 1.0654213e-6, 6.9609325e-7
-0.320, 1.1051807e-6, 7.2495220e-7
-0.321, 1.1188185e-6, 6.7980034e-7
-0.322, 1.1065329e-6, 6.3486289e-7
-0.323, 1.1333799e-6, 6.4355356e-7
-0.324, 1.0917076e-6, 6.8598439e-7
-0.325, 1.1233039e-6, 6.8525878e-7
-0.326, 1.1067967e-6, 6.7689797e-7
-0.327, 1.1171364e-6, 7.1527211e-7
-0.328, 1.1269319e-6, 7.0790065e-7
-0.329, 1.0938350e-6, 6.4454304e-7
-0.330, 1.1386734e-6, 6.0257389e-7
-0.331, 1.0866449e-6, 6.4287747e-7
-0.332, 1.1003817e-6, 6.9947384e-7
-0.333, 1.1194946e-6, 7.0193101e-7
-0.334, 1.0924992e-6, 7.1987301e-7
-0.335, 1.1366285e-6, 7.0795016e-7
-0.336, 1.0908007e-6, 6.7084579e-7
-0.337, 1.1376180e-6, 6.3384050e-7
-0.338, 1.0984359e-6, 6.1004425e-7
-0.339, 1.1370573e-6, 6.8651212e-7
-0.340, 1.1358700e-6, 7.2374837e-7
-0.341, 1.0855400e-6, 7.3748515e-7
-0.342, 1.1474135e-6, 6.8639667e-7
-0.343, 1.0878817e-6, 6.7881092e-7
-0.344, 1.1486009e-6, 6.7724426e-7
-0.345, 1.1164439e-6, 6.6871849e-7
-0.346, 1.1053785e-6, 6.7193423e-7
-0.347, 1.1481557e-6, 7.0668034e-7
-0.348, 1.0895144e-6, 7.5104066e-7
-0.349, 1.1472816e-6, 7.0608667e-7
-0.350, 1.1032677e-6, 6.8339534e-7
-0.351, 1.1577698e-6, 6.9723114e-7
-0.352, 1.1569947e-6, 6.7317103e-7
-0.353, 1.1237162e-6, 6.8225751e-7
-0.354, 1.1574070e-6, 6.9469155e-7
-0.355, 1.1051970e-6, 7.2124175e-7
-0.356, 1.1543068e-6, 7.4411446e-7
-0.357, 1.1323739e-6, 7.1947727e-7
-0.358, 1.1488153e-6, 6.6789397e-7
-0.359, 1.1645640e-6, 6.6608004e-7
-0.360, 1.1180268e-6, 7.1398580e-7
-0.361, 1.1728424e-6, 7.1588221e-7
-0.362, 1.1406029e-6, 7.4878142e-7
-0.363, 1.1616781e-6, 7.3906830e-7
-0.364, 1.1706655e-6, 7.4703337e-7
-0.365, 1.1559723e-6, 6.9543364e-7
-0.366, 1.1827038e-6, 6.6401867e-7
-0.367, 1.1540263e-6, 7.2762373e-7
-0.368, 1.1861670e-6, 7.2264345e-7
-0.369, 1.1672190e-6, 7.7137378e-7
-0.370, 1.1805600e-6, 7.6462908e-7
-0.371, 1.2148939e-6, 7.4259736e-7
-0.372, 1.1660811e-6, 7.3628132e-7
-0.373, 1.2171696e-6, 6.6607998e-7
-0.374, 1.1548839e-6, 7.2521601e-7
-0.375, 1.2081492e-6, 7.4927607e-7
-0.376, 1.2037626e-6, 8.0801635e-7
-0.377, 1.1980898e-6, 7.6593187e-7
-0.378, 1.2346004e-6, 7.4573052e-7
-0.379, 1.1930107e-6, 7.4218508e-7
-0.380, 1.2375688e-6, 6.9807214e-7
-0.381, 1.2079513e-6, 7.2640336e-7
-0.382, 1.2064011e-6, 7.6995553e-7
-0.383, 1.2458966e-6, 8.3006449e-7
-0.384, 1.1999532e-6, 7.9017332e-7
-0.385, 1.2522621e-6, 7.6738297e-7
-0.386, 1.2101445e-6, 7.5212904e-7
-0.387, 1.2535319e-6, 7.4521932e-7
-0.388, 1.2555108e-6, 7.3593503e-7
-0.389, 1.2474303e-6, 7.5303603e-7
-0.390, 1.2764045e-6, 8.3887062e-7
-0.391, 1.2322587e-6, 8.4312529e-7
-0.392, 1.2791256e-6, 8.2561201e-7
-0.393, 1.2799171e-6, 7.6697074e-7
-0.394, 1.2820940e-6, 7.4221799e-7
-0.395, 1.2994093e-6, 7.6256765e-7
-0.396, 1.2593696e-6, 7.6487640e-7
-0.397, 1.3054944e-6, 7.9967197e-7
-0.398, 1.2636242e-6, 8.4305935e-7
-0.399, 1.2992114e-6, 7.9949064e-7
-0.400, 1.3032186e-6, 7.9427952e-7
-0.401, 1.2891520e-6, 7.4657157e-7
-0.402, 1.3274106e-6, 7.5854388e-7
-0.403, 1.2721171e-6, 8.2609029e-7
-0.404, 1.3281033e-6, 8.1162784e-7
-0.405, 1.2755636e-6, 8.5011732e-7
-0.406, 1.3455341e-6, 8.2925646e-7
-0.407, 1.3505473e-6, 8.3288444e-7
-0.408, 1.2943466e-6, 7.9172344e-7
-0.409, 1.3578526e-6, 7.4249840e-7
-0.410, 1.3003163e-6, 8.2554607e-7
-0.411, 1.3366950e-6, 8.4424664e-7
-0.412, 1.3271633e-6, 8.4780868e-7
-0.413, 1.3234363e-6, 8.2261067e-7
-0.414, 1.3640862e-6, 8.4480723e-7
-0.415, 1.3075887e-6, 7.9599454e-7
-0.416, 1.3670216e-6, 7.6939489e-7
-0.417, 1.3242114e-6, 8.3697415e-7
-0.418, 1.3488816e-6, 8.4302633e-7
-0.419, 1.3553791e-6, 8.8715569e-7
-0.420, 1.3244094e-6, 8.5748877e-7
-0.421, 1.3777570e-6, 8.2069778e-7
-0.422, 1.3287629e-6, 8.3789769e-7
-0.423, 1.3629813e-6, 7.8329663e-7
-0.424, 1.3483375e-6, 8.4314172e-7
-0.425, 1.3514377e-6, 8.0107372e-7
-0.426, 1.3617446e-6, 8.7592542e-7
-0.427, 1.3247391e-6, 8.5356385e-7
-0.428, 1.3807255e-6, 8.4291094e-7
-0.429, 1.3484530e-6, 8.0476764e-7
-0.430, 1.3674997e-6, 7.7755783e-7
-0.431, 1.3784991e-6, 8.9437867e-7
-0.432, 1.3370084e-6, 8.2552958e-7
-0.433, 1.3793072e-6, 8.7769001e-7
-0.434, 1.3295380e-6, 8.6357386e-7
-0.435, 1.3789279e-6, 8.4375188e-7
-0.436, 1.3500855e-6, 8.3995906e-7
-0.437, 1.3475294e-6, 7.7173661e-7
-0.438, 1.3736344e-6, 8.6665762e-7
-0.439, 1.3287464e-6, 8.3888710e-7
-0.440, 1.3804781e-6, 8.7651915e-7
-0.441, 1.3243929e-6, 8.6908176e-7
-0.442, 1.3614476e-6, 8.4073406e-7
-0.443, 1.3595347e-6, 8.6083639e-7
-0.444, 1.3422029e-6, 7.4827017e-7
-0.445, 1.3779220e-6, 8.4432907e-7
-0.446, 1.3235683e-6, 8.3445110e-7
-0.447, 1.3731890e-6, 8.6418402e-7
-0.448, 1.3301647e-6, 8.5057911e-7
-0.449, 1.3302141e-6, 8.1091872e-7
-0.450, 1.3703857e-6, 8.5783506e-7
-0.451, 1.3126019e-6, 7.2571072e-7
-0.452, 1.3527406e-6, 8.0031521e-7
-0.453, 1.2946929e-6, 8.0991276e-7
-0.454, 1.3317972e-6, 8.6538785e-7
-0.455, 1.3221832e-6, 8.8372565e-7
-0.456, 1.3114145e-6, 7.8478075e-7
-0.457, 1.3318797e-6, 8.4972157e-7
-0.458, 1.2896302e-6, 7.5272271e-7
-0.459, 1.3392511e-6, 7.8107041e-7
-0.460, 1.2898611e-6, 8.1652558e-7
-0.461, 1.3135914e-6, 8.2696431e-7
-0.462, 1.3230900e-6, 8.8019658e-7
-0.463, 1.2764540e-6, 8.1235339e-7
-0.464, 1.3148447e-6, 7.9180586e-7
-0.465, 1.2543893e-6, 7.3865601e-7
-0.466, 1.2945445e-6, 7.8471487e-7
-0.467, 1.2733703e-6, 8.1011063e-7
-0.468, 1.2491123e-6, 7.6095159e-7
-0.469, 1.2802965e-6, 8.4462590e-7
-0.470, 1.2251842e-6, 8.0236003e-7
-0.471, 1.2812363e-6, 7.7045024e-7
-0.472, 1.2288286e-6, 7.4393307e-7
-0.473, 1.2589408e-6, 7.1182546e-7
-0.474, 1.2671203e-6, 7.9648930e-7
-0.475, 1.2039275e-6, 7.3685851e-7
-0.476, 1.2575556e-6, 7.7104391e-7
-0.477, 1.1809228e-6, 7.7853076e-7
-0.478, 1.2367607e-6, 7.7585929e-7
-0.479, 1.1946431e-6, 7.3651222e-7
-0.480, 1.1923345e-6, 6.6673965e-7
-0.481, 1.2326875e-6, 7.6195755e-7
-0.482, 1.1461768e-6, 7.3910127e-7
-0.483, 1.2008272e-6, 7.8370891e-7
-0.484, 1.1552631e-6, 7.4042055e-7
-0.485, 1.1809393e-6, 7.2648584e-7
-0.486, 1.1646135e-6, 7.4454329e-7
-0.487, 1.1567308e-6, 6.3021253e-7
-0.488, 1.1705831e-6, 7.0534463e-7
-0.489, 1.1085283e-6, 6.9648905e-7
-0.490, 1.1535151e-6, 7.3522597e-7
-0.491, 1.1084622e-6, 7.4597790e-7
-0.492, 1.1183403e-6, 6.5921984e-7
-0.493, 1.1147453e-6, 7.0072718e-7
-0.494, 1.0683566e-6, 6.3087214e-7
-0.495, 1.1192308e-6, 6.7727728e-7
-0.496, 1.0606719e-6, 6.8723773e-7
-0.497, 1.0817967e-6, 6.9909458e-7
-0.498, 1.0732215e-6, 7.4106367e-7
-0.499, 1.0610017e-6, 6.6218814e-7
-0.500, 1.0756786e-6, 6.5795007e-7
