Jan. 28, 2006   05:44:52
Square Wave Voltammetry
File: z:\users\scottsaunders\git\labwork\ida\01_17_19_psoralen_nonequil_2\data\control\5\75um_control_transfer_5_swv_53.txt
Data Source:  Experiment
Instrument Model:  CHI760E
Header: 
Note: 

Init E (V) = 0.1
Final E (V) = -0.5
Incr E (V) = 0.001
Amplitude (V) = 0.025
Frequency (Hz) = 300
Quiet Time (sec) = 2
Sensitivity (A/V) = 1e-6
Sens 2 (A/V) = 1e-6

Potential/V, i1/A, i2/A

0.099, 2.4253023e-7, 1.0577201e-7
0.098, 1.3106889e-7, 9.0616957e-8
0.097, 1.7010262e-7, 9.2579363e-8
0.096, 1.4355244e-7, 9.5828057e-8
0.095, 1.4947264e-7, 1.0310050e-7
0.094, 1.7335132e-7, 1.6891529e-7
0.093, 1.4978595e-7, 1.2973314e-7
0.092, 1.6118111e-7, 1.4515206e-7
0.091, 1.2877668e-7, 1.1616121e-7
0.090, 1.6022464e-7, 1.5489810e-7
0.089, 1.4708147e-7, 1.4465732e-7
0.088, 1.4312369e-7, 1.1378653e-7
0.087, 1.6205512e-7, 1.6957493e-7
0.086, 1.3994095e-7, 1.4589413e-7
0.085, 1.6187373e-7, 1.9462445e-7
0.084, 1.3421864e-7, 1.3980903e-7
0.083, 1.5905380e-7, 1.5984534e-7
0.082, 1.5864151e-7, 1.4376683e-7
0.081, 1.3181099e-7, 9.8516054e-8
0.080, 1.5250694e-7, 1.0913613e-7
0.079, 1.2961770e-7, 1.1217044e-7
0.078, 1.6365472e-7, 1.4229914e-7
0.077, 1.5064347e-7, 1.1818958e-7
0.076, 1.4528398e-7, 1.1746399e-7
0.075, 1.5318307e-7, 1.3121732e-7
0.074, 1.2800162e-7, 9.4690186e-8
0.073, 1.6047200e-7, 9.6174361e-8
0.072, 1.2627008e-7, 6.6095140e-8
0.071, 1.4144162e-7, 8.6378819e-8
0.070, 1.5219362e-7, 1.1284656e-7
0.069, 1.3151416e-7, 1.2356558e-7
0.068, 1.5310061e-7, 1.3745084e-7
0.067, 1.1449564e-7, 1.2899106e-7
0.066, 1.6233547e-7, 1.4943964e-7
0.065, 1.2681427e-7, 1.1339075e-7
0.064, 1.3369093e-7, 1.0268823e-7
0.063, 1.4816985e-7, 1.3695612e-7
0.062, 1.2457153e-7, 1.5145153e-7
0.061, 1.6283019e-7, 1.4716392e-7
0.060, 1.2351612e-7, 1.4602605e-7
0.059, 1.5061050e-7, 1.6103269e-7
0.058, 1.4943964e-7, 1.5046209e-7
0.057, 1.3425162e-7, 1.2442311e-7
0.056, 1.4848318e-7, 1.1225289e-7
0.055, 1.2420873e-7, 1.0755301e-7
0.054, 1.5671210e-7, 1.2255964e-7
0.053, 1.3075558e-7, 1.1060381e-7
0.052, 1.3880309e-7, 1.1416583e-7
0.051, 1.4967053e-7, 1.3324569e-7
0.050, 1.2516520e-7, 1.0384258e-7
0.049, 1.5272133e-7, 6.6969150e-8
0.048, 1.2094354e-7, 6.3852383e-8
0.047, 1.4406365e-7, 9.6553649e-8
0.046, 1.5001683e-7, 1.0738810e-7
0.045, 1.3718699e-7, 8.9693472e-8
0.044, 1.4384928e-7, 1.3537300e-7
0.043, 1.1103257e-7, 1.1729908e-7
0.042, 1.4553133e-7, 1.3811047e-7
0.041, 1.2382944e-7, 1.0745406e-7
0.040, 1.2983209e-7, 1.1246728e-7
0.039, 1.4635587e-7, 1.3207483e-7
0.038, 1.3354251e-7, 1.1438021e-7
0.037, 1.5176485e-7, 1.6015866e-7
0.036, 1.1223641e-7, 1.3664280e-7
0.035, 1.3857222e-7, 1.7010262e-7
0.034, 1.3769821e-7, 1.3331164e-7
0.033, 1.2635252e-7, 8.6824073e-8
0.032, 1.4343701e-7, 1.2887561e-7
0.031, 1.1807415e-7, 1.0384258e-7
0.030, 1.4882949e-7, 1.2899106e-7
0.029, 1.2229580e-7, 9.2909183e-8
0.028, 1.4691656e-7, 1.1851940e-7
0.027, 1.4132617e-7, 1.2991455e-7
0.026, 1.2361505e-7, 6.8684187e-8
0.025, 1.4271140e-7, 7.6880127e-8
0.024, 1.1908008e-7, 6.6787749e-8
0.023, 1.4495416e-7, 1.0039601e-7
0.022, 1.3715400e-7, 1.0244086e-7
0.021, 1.2552799e-7, 1.0450221e-7
0.020, 1.4226615e-7, 1.2242772e-7
0.019, 1.1121398e-7, 1.0911964e-7
0.018, 1.3776416e-7, 1.2104249e-7
0.017, 1.0695934e-7, 9.3964587e-8
0.016, 1.3517510e-7, 1.1119748e-7
0.015, 1.3642841e-7, 1.3857222e-7
0.014, 1.1848641e-7, 1.4318964e-7
0.013, 1.3667577e-7, 1.5098979e-7
0.012, 1.0531026e-7, 1.3035979e-7
0.011, 1.5181433e-7, 1.2346663e-7
0.010, 1.1474300e-7, 1.1287955e-7
0.009, 1.1820607e-7, 7.7704655e-8
0.008, 1.4515204e-7, 1.1794222e-7
0.007, 1.1607876e-7, 1.0761897e-7
0.006, 1.4737830e-7, 1.2247719e-7
0.005, 1.0939998e-7, 8.5785153e-8
0.004, 1.3680770e-7, 1.0700882e-7
0.003, 1.3415269e-7, 9.5910508e-8
0.002, 1.2579184e-7, 7.1850423e-8
0.001, 1.3519160e-7, 8.0145298e-8
-0.000, 1.0880632e-7, 8.3806256e-8
-0.001, 1.3830837e-7, 1.2839739e-7
-0.002, 1.1116450e-7, 1.1081819e-7
-0.003, 1.1855238e-7, 1.1428126e-7
-0.004, 1.3367445e-7, 1.3443302e-7
-0.005, 9.9620934e-8, 1.1182414e-7
-0.006, 1.3601613e-7, 1.0928455e-7
-0.007, 1.1162624e-7, 1.1085118e-7
-0.008, 1.3489476e-7, 1.3426811e-7
-0.009, 1.3458144e-7, 1.5384269e-7
-0.010, 1.2170213e-7, 1.3284989e-7
-0.011, 1.3204186e-7, 1.3370743e-7
-0.012, 1.1047189e-7, 1.1983867e-7
-0.013, 1.3923184e-7, 1.0310050e-7
-0.014, 1.1164273e-7, 9.4343882e-8
-0.015, 1.2135581e-7, 9.7988355e-8
-0.016, 1.3258605e-7, 1.2567639e-7
-0.017, 1.1574893e-7, 8.4564832e-8
-0.018, 1.3822591e-7, 1.1146134e-7
-0.019, 9.1276590e-8, 6.1609640e-8
-0.020, 1.2552799e-7, 9.6042427e-8
-0.021, 1.2503327e-7, 7.9040419e-8
-0.022, 1.1973971e-7, 5.8344462e-8
-0.023, 1.3532352e-7, 1.4802143e-7
-0.024, 1.0620077e-7, 1.1329182e-7
-0.025, 1.3258605e-7, 1.3154713e-7
-0.026, 9.8417111e-8, 1.0044548e-7
-0.027, 1.3100293e-7, 1.1329181e-7
-0.028, 1.3235518e-7, 1.2269157e-7
-0.029, 1.1286305e-7, 1.0390855e-7
-0.030, 1.3469688e-7, 1.3807750e-7
-0.031, 1.0908666e-7, 1.2742443e-7
-0.032, 1.3108539e-7, 1.5628333e-7
-0.033, 1.1546860e-7, 1.1307743e-7
-0.034, 1.1377004e-7, 7.8364295e-8
-0.035, 1.3227273e-7, 9.2430945e-8
-0.036, 1.0601937e-7, 9.0501516e-8
-0.037, 1.3868765e-7, 1.1962427e-7
-0.038, 9.6586632e-8, 1.0013216e-7
-0.039, 1.2173510e-7, 1.0676145e-7
-0.040, 1.2725953e-7, 8.4399929e-8
-0.041, 1.0958138e-7, 5.4914373e-8
-0.042, 1.2645148e-7, 6.9162425e-8
-0.043, 9.8301669e-8, 6.1428238e-8
-0.044, 1.3745083e-7, 1.2320278e-7
-0.045, 1.0676145e-7, 1.2198247e-7
-0.046, 1.1442968e-7, 9.3634775e-8
-0.047, 1.2598974e-7, 1.2470345e-7
-0.048, 9.5597187e-8, 1.0898772e-7
-0.049, 1.3083803e-7, 1.1220342e-7
-0.050, 9.6174361e-8, 9.1688861e-8
-0.051, 1.2686374e-7, 1.5473320e-7
-0.052, 1.2669884e-7, 1.5921870e-7
-0.053, 1.1395144e-7, 1.2641848e-7
-0.054, 1.2935385e-7, 1.3002997e-7
-0.055, 9.6273311e-8, 8.9099814e-8
-0.056, 1.3299832e-7, 9.6586632e-8
-0.057, 1.0662953e-7, 8.5158504e-8
-0.058, 1.1683734e-7, 8.7170385e-8
-0.059, 1.3151416e-7, 1.1642507e-7
-0.060, 1.0636568e-7, 1.0583797e-7
-0.061, 1.3423514e-7, 8.5273946e-8
-0.062, 9.9010776e-8, 5.3743523e-8
-0.063, 1.2010251e-7, 7.2196734e-8
-0.064, 1.2557746e-7, 8.3905206e-8
-0.065, 1.1063679e-7, 8.1728416e-8
-0.066, 1.2711109e-7, 1.1739802e-7
-0.067, 8.9017348e-8, 1.1499037e-7
-0.068, 1.2937035e-7, 1.1672190e-7
-0.069, 1.0039601e-7, 9.0748884e-8
-0.070, 1.0727267e-7, 1.0338084e-7
-0.071, 1.2763880e-7, 1.1330830e-7
-0.072, 1.0613481e-7, 1.2114144e-7
-0.073, 1.2562694e-7, 1.4282683e-7
-0.074, 9.2084647e-8, 1.2899105e-7
-0.075, 1.2524765e-7, 1.5047857e-7
-0.076, 1.1146133e-7, 9.5976475e-8
-0.077, 1.0864140e-7, 6.8717178e-8
-0.078, 1.2648445e-7, 1.2392837e-7
-0.079, 1.0446924e-7, 9.5217885e-8
-0.080, 1.3677472e-7, 1.2537957e-7
-0.081, 1.0265524e-7, 6.8519284e-8
-0.082, 1.2002006e-7, 9.2645330e-8
-0.083, 1.2488485e-7, 8.1217202e-8
-0.084, 1.0308400e-7, 6.1560165e-8
-0.085, 1.2326875e-7, 6.4198694e-8
-0.086, 1.0359522e-7, 9.1392032e-8
-0.087, 1.3031033e-7, 1.3992445e-7
-0.088, 1.1454512e-7, 1.0794879e-7
-0.089, 1.0653059e-7, 9.6190853e-8
-0.090, 1.2501678e-7, 1.1289603e-7
-0.091, 9.3667751e-8, 9.9307613e-8
-0.092, 1.3204186e-7, 1.1596333e-7
-0.093, 8.8258773e-8, 1.1236833e-7
-0.094, 1.1970673e-7, 1.4379980e-7
-0.095, 1.2697919e-7, 1.5638228e-7
-0.096, 1.0451870e-7, 1.3502670e-7
-0.097, 1.2368102e-7, 9.4921056e-8
-0.098, 9.1408516e-8, 8.3806263e-8
-0.099, 1.3138222e-7, 1.0468361e-7
-0.100, 1.0605235e-7, 8.8110362e-8
-0.101, 1.1433073e-7, 9.2134108e-8
-0.102, 1.2874369e-7, 1.2283999e-7
-0.103, 9.5861033e-8, 1.0369416e-7
-0.104, 1.3225623e-7, 8.9083315e-8
-0.105, 9.3321461e-8, 5.1039034e-8
-0.106, 1.2199895e-7, 7.2477079e-8
-0.107, 1.1253324e-7, 9.3486364e-8
-0.108, 1.1720013e-7, 8.6312859e-8
-0.109, 1.2038285e-7, 1.1988814e-7
-0.110, 9.9686901e-8, 1.1959131e-7
-0.111, 1.2280701e-7, 1.2379645e-7
-0.112, 1.0201210e-7, 9.7922381e-8
-0.113, 1.0290261e-7, 1.0026407e-7
-0.114, 1.3309727e-7, 1.1855239e-7
-0.115, 1.0306752e-7, 1.2338418e-7
-0.116, 1.3100293e-7, 1.3636244e-7
-0.117, 9.5910508e-8, 1.2696269e-7
-0.118, 1.2544554e-7, 1.3332814e-7
-0.119, 1.1855238e-7, 1.2025093e-7
-0.120, 1.1119748e-7, 9.0468546e-8
-0.121, 1.2272454e-7, 1.0036302e-7
-0.122, 9.7378191e-8, 1.0216052e-7
-0.123, 1.3794556e-7, 1.0745407e-7
-0.124, 1.0545868e-7, 8.1332644e-8
-0.125, 1.1565000e-7, 9.9901278e-8
-0.126, 1.2979910e-7, 1.0217701e-7
-0.127, 1.0788283e-7, 5.4683497e-8
-0.128, 1.3148116e-7, 6.6771257e-8
-0.129, 9.5151925e-8, 6.0389326e-8
-0.130, 1.2575886e-7, 1.0087424e-7
-0.131, 1.1658997e-7, 9.7493626e-8
-0.132, 1.1711768e-7, 1.0773442e-7
-0.133, 1.2669884e-7, 1.3186046e-7
-0.134, 1.0389206e-7, 1.1830501e-7
-0.135, 1.2895808e-7, 1.1698576e-7
-0.136, 1.0237490e-7, 7.8034475e-8
-0.137, 1.2595675e-7, 1.1451213e-7
-0.138, 1.2442310e-7, 1.4541590e-7
-0.139, 1.0494747e-7, 1.3791258e-7
-0.140, 1.2546202e-7, 1.4213423e-7
-0.141, 1.0672848e-7, 1.3125030e-7
-0.142, 1.2803460e-7, 1.4635587e-7
-0.143, 1.1499037e-7, 1.0046197e-7
-0.144, 1.1370408e-7, 8.0524593e-8
-0.145, 1.3700559e-7, 1.0857544e-7
-0.146, 1.0822914e-7, 9.2744273e-8
-0.147, 1.3703857e-7, 1.2031688e-7
-0.148, 1.0468361e-7, 9.2002189e-8
-0.149, 1.2562693e-7, 9.9109720e-8
-0.150, 1.2587429e-7, 1.1029049e-7
-0.151, 1.0692636e-7, 7.2477079e-8
-0.152, 1.3408672e-7, 6.8041047e-8
-0.153, 9.3041109e-8, 7.0085918e-8
-0.154, 1.4460784e-7, 1.0626673e-7
-0.155, 1.0883929e-7, 1.1426476e-7
-0.156, 1.1180764e-7, 1.1032347e-7
-0.157, 1.2725953e-7, 1.3529055e-7
-0.158, 1.0006620e-7, 1.2091057e-7
-0.159, 1.2678129e-7, 1.2084460e-7
-0.160, 9.5894023e-8, 9.1161155e-8
-0.161, 1.2844686e-7, 1.3322919e-7
-0.162, 1.2211440e-7, 1.5306762e-7
-0.163, 1.1525422e-7, 1.4309069e-7
-0.164, 1.3148117e-7, 1.5474970e-7
-0.165, 1.0300155e-7, 1.2302139e-7
-0.166, 1.2843037e-7, 1.3566984e-7
-0.167, 1.0662953e-7, 9.3486364e-8
-0.168, 1.1860186e-7, 9.8549030e-8
-0.169, 1.3515861e-7, 1.2859527e-7
-0.170, 1.1500686e-7, 1.0780037e-7
-0.171, 1.3695612e-7, 1.1312691e-7
-0.172, 1.0527729e-7, 1.0329838e-7
-0.173, 1.2795213e-7, 1.1467704e-7
-0.174, 1.2452205e-7, 8.6906525e-8
-0.175, 1.1937692e-7, 5.7387997e-8
-0.176, 1.3284991e-7, 8.7368271e-8
-0.177, 1.0502991e-7, 8.0392660e-8
-0.178, 1.4178791e-7, 1.3677472e-7
-0.179, 1.0996067e-7, 1.1634261e-7
-0.180, 1.1812362e-7, 1.1109854e-7
-0.181, 1.3024436e-7, 1.4028726e-7
-0.182, 1.1545211e-7, 9.0353112e-8
-0.183, 1.2973314e-7, 1.1091714e-7
-0.184, 9.6998896e-8, 1.0577201e-7
-0.185, 1.2968368e-7, 1.7834803e-7
-0.186, 1.1912956e-7, 1.6207160e-7
-0.187, 1.1868431e-7, 1.4147459e-7
-0.188, 1.3456494e-7, 1.6400104e-7
-0.189, 1.0674496e-7, 1.0499694e-7
-0.190, 1.3911642e-7, 1.1757942e-7
-0.191, 1.1179115e-7, 8.0837914e-8
-0.192, 1.3837432e-7, 1.1843694e-7
-0.193, 1.3784663e-7, 1.3639543e-7
-0.194, 1.2483537e-7, 1.0282015e-7
-0.195, 1.3966060e-7, 1.1566649e-7
-0.196, 1.0930104e-7, 9.1293089e-8
-0.197, 1.4061708e-7, 9.7312231e-8
-0.198, 1.2580833e-7, 8.2124203e-8
-0.199, 1.2331822e-7, 7.4950691e-8
-0.200, 1.4759269e-7, 1.1833801e-7
-0.201, 1.0864141e-7, 1.3156364e-7
-0.202, 1.4180441e-7, 1.4615797e-7
-0.203, 1.0658006e-7, 1.0844352e-7
-0.204, 1.2628657e-7, 1.3148117e-7
-0.205, 1.2927140e-7, 1.4361839e-7
-0.206, 1.1997059e-7, 1.1703523e-7
-0.207, 1.4234861e-7, 1.2981560e-7
-0.208, 1.0908666e-7, 1.3754979e-7
-0.209, 1.4851616e-7, 1.7406043e-7
-0.210, 1.0836107e-7, 1.5105574e-7
-0.211, 1.2577536e-7, 1.1479248e-7
-0.212, 1.3835783e-7, 1.5816329e-7
-0.213, 1.0923507e-7, 1.1500685e-7
-0.214, 1.4414610e-7, 1.2554449e-7
-0.215, 1.0930104e-7, 9.9934262e-8
-0.216, 1.5253994e-7, 1.2376348e-7
-0.217, 1.3840730e-7, 1.4246405e-7
-0.218, 1.3002997e-7, 1.2109196e-7
-0.219, 1.4210126e-7, 1.2325225e-7
-0.220, 1.2178458e-7, 9.1408523e-8
-0.221, 1.4774110e-7, 1.0847651e-7
-0.222, 1.2394487e-7, 8.4944126e-8
-0.223, 1.3354253e-7, 1.0186369e-7
-0.224, 1.5242449e-7, 1.6861844e-7
-0.225, 1.2377997e-7, 1.4140865e-7
-0.226, 1.5047858e-7, 1.4140862e-7
-0.227, 1.1701874e-7, 1.2128984e-7
-0.228, 1.4325560e-7, 1.4506959e-7
-0.229, 1.4173844e-7, 1.4056761e-7
-0.230, 1.3093697e-7, 1.1957479e-7
-0.231, 1.4792249e-7, 1.7119102e-7
-0.232, 1.1078521e-7, 1.6708482e-7
-0.233, 1.5143503e-7, 1.8083813e-7
-0.234, 1.2941982e-7, 1.5064347e-7
-0.235, 1.3352603e-7, 1.2232877e-7
-0.236, 1.5115469e-7, 1.3974305e-7
-0.237, 1.3753331e-7, 1.0425484e-7
-0.238, 1.5437040e-7, 1.2971665e-7
-0.239, 1.2262561e-7, 1.1924499e-7
-0.240, 1.5667911e-7, 1.4993437e-7
-0.241, 1.4437697e-7, 1.2874368e-7
-0.242, 1.3654386e-7, 1.0239140e-7
-0.243, 1.5629982e-7, 1.1805766e-7
-0.244, 1.3174503e-7, 1.0003321e-7
-0.245, 1.5425498e-7, 1.2551149e-7
-0.246, 1.2838089e-7, 1.0489800e-7
-0.247, 1.4795549e-7, 1.6304458e-7
-0.248, 1.5207819e-7, 1.7124049e-7
-0.249, 1.3230570e-7, 1.4361839e-7
-0.250, 1.5552476e-7, 1.5110523e-7
-0.251, 1.2653393e-7, 1.2829844e-7
-0.252, 1.5489810e-7, 1.7165277e-7
-0.253, 1.4675165e-7, 1.5031367e-7
-0.254, 1.4368436e-7, 1.4935721e-7
-0.255, 1.6802480e-7, 1.9854926e-7
-0.256, 1.3299832e-7, 1.7254327e-7
-0.257, 1.5709139e-7, 1.6513890e-7
-0.258, 1.2816652e-7, 1.4007288e-7
-0.259, 1.5338095e-7, 1.3469688e-7
-0.260, 1.5702543e-7, 1.5316657e-7
-0.261, 1.4378330e-7, 1.2551149e-7
-0.262, 1.6576554e-7, 1.4841721e-7
-0.263, 1.2419223e-7, 1.2790265e-7
-0.264, 1.6792585e-7, 1.5072592e-7
-0.265, 1.3426812e-7, 1.3268499e-7
-0.266, 1.4388225e-7, 8.2981714e-8
-0.267, 1.5517844e-7, 1.2491783e-7
-0.268, 1.3078856e-7, 1.1001013e-7
-0.269, 1.6294562e-7, 1.1868431e-7
-0.270, 1.2958472e-7, 1.3730242e-7
-0.271, 1.5610193e-7, 1.6649113e-7
-0.272, 1.5311710e-7, 1.7112507e-7
-0.273, 1.4549836e-7, 1.4008938e-7
-0.274, 1.5216064e-7, 1.4416260e-7
-0.275, 1.2201545e-7, 1.4971999e-7
-0.276, 1.6184073e-7, 1.5913625e-7
-0.277, 1.3362497e-7, 1.8103604e-7
-0.278, 1.4716393e-7, 1.7661650e-7
-0.279, 1.5969692e-7, 2.0354598e-7
-0.280, 1.3481230e-7, 1.7711122e-7
-0.281, 1.5847662e-7, 1.5128661e-7
-0.282, 1.3459794e-7, 1.4480574e-7
-0.283, 1.5171538e-7, 1.4673516e-7
-0.284, 1.5146802e-7, 1.4379980e-7
-0.285, 1.4437697e-7, 1.1993760e-7
-0.286, 1.5712438e-7, 1.5277081e-7
-0.287, 1.2658340e-7, 1.3383935e-7
-0.288, 1.6271476e-7, 1.6474313e-7
-0.289, 1.2935385e-7, 1.1325884e-7
-0.290, 1.4887895e-7, 8.9231733e-8
-0.291, 1.5557424e-7, 1.1568298e-7
-0.292, 1.3763223e-7, 8.9973810e-8
-0.293, 1.5542582e-7, 1.2981559e-7
-0.294, 1.2582483e-7, 1.4106233e-7
-0.295, 1.5133610e-7, 1.7099313e-7
-0.296, 1.3888554e-7, 1.5163292e-7
-0.297, 1.3113487e-7, 1.3595019e-7
-0.298, 1.4971999e-7, 1.6937703e-7
-0.299, 1.2750688e-7, 1.4556431e-7
-0.300, 1.5461777e-7, 1.7584144e-7
-0.301, 1.2765530e-7, 1.3867117e-7
-0.302, 1.4863159e-7, 1.7373061e-7
-0.303, 1.4947264e-7, 1.9793910e-7
-0.304, 1.2981560e-7, 1.6845354e-7
-0.305, 1.5376024e-7, 1.4825231e-7
-0.306, 1.2178457e-7, 1.0992770e-7
-0.307, 1.5846014e-7, 1.4175494e-7
-0.308, 1.4779057e-7, 1.1922849e-7
-0.309, 1.3746732e-7, 1.1591385e-7
-0.310, 1.6312703e-7, 1.5384269e-7
-0.311, 1.2608869e-7, 1.2589078e-7
-0.312, 1.5981237e-7, 1.2805108e-7
-0.313, 1.1781029e-7, 8.2140687e-8
-0.314, 1.4378330e-7, 1.0512886e-7
-0.315, 1.4502012e-7, 1.1825554e-7
-0.316, 1.2834791e-7, 1.2290594e-7
-0.317, 1.5214414e-7, 1.4906037e-7
-0.318, 1.1442968e-7, 1.3110187e-7
-0.319, 1.5380971e-7, 1.4467381e-7
-0.320, 1.2582481e-7, 1.3370743e-7
-0.321, 1.2993104e-7, 1.2082810e-7
-0.322, 1.4574572e-7, 1.5822926e-7
-0.323, 1.1901412e-7, 1.4940667e-7
-0.324, 1.4991788e-7, 1.6642518e-7
-0.325, 1.2199895e-7, 1.6085127e-7
-0.326, 1.5831171e-7, 1.8380649e-7
-0.327, 1.4063356e-7, 1.7378009e-7
-0.328, 1.3362498e-7, 1.3238815e-7
-0.329, 1.4376683e-7, 1.2770477e-7
-0.330, 1.2096004e-7, 1.2242774e-7
-0.331, 1.5192977e-7, 1.4152405e-7
-0.332, 1.2753986e-7, 1.1992111e-7
-0.333, 1.3440004e-7, 1.3159661e-7
-0.334, 1.5357885e-7, 1.4971999e-7
-0.335, 1.2475292e-7, 1.1602928e-7
-0.336, 1.5150100e-7, 9.9093228e-8
-0.337, 1.1609526e-7, 9.3519340e-8
-0.338, 1.4986843e-7, 1.1362163e-7
-0.339, 1.3980902e-7, 1.3331164e-7
-0.340, 1.4622394e-7, 1.3009594e-7
-0.341, 1.4993438e-7, 1.4835126e-7
-0.342, 1.1736505e-7, 1.4304122e-7
-0.343, 1.5339744e-7, 1.4981894e-7
-0.344, 1.2420873e-7, 1.2481888e-7
-0.345, 1.3283341e-7, 1.2594026e-7
-0.346, 1.4737830e-7, 1.6782690e-7
-0.347, 1.3182749e-7, 1.3664278e-7
-0.348, 1.4990138e-7, 1.7857889e-7
-0.349, 1.1774432e-7, 1.6154389e-7
-0.350, 1.4310719e-7, 1.9107893e-7
-0.351, 1.2986507e-7, 1.3951220e-7
-0.352, 1.2920543e-7, 1.2478590e-7
-0.353, 1.4731233e-7, 1.4502012e-7
-0.354, 1.3049171e-7, 1.2956824e-7
-0.355, 1.5537634e-7, 1.5013227e-7
-0.356, 1.3057416e-7, 1.1805766e-7
-0.357, 1.5000035e-7, 1.3929781e-7
-0.358, 1.4887897e-7, 1.2407679e-7
-0.359, 1.3072260e-7, 8.5818129e-8
-0.360, 1.5542581e-7, 1.0664601e-7
-0.361, 1.2590728e-7, 9.9950753e-8
-0.362, 1.5669561e-7, 1.6134601e-7
-0.363, 1.3190993e-7, 1.4881300e-7
-0.364, 1.3715400e-7, 1.3014541e-7
-0.365, 1.5481565e-7, 1.5611843e-7
-0.366, 1.2453856e-7, 1.4043569e-7
-0.367, 1.5615142e-7, 1.5349640e-7
-0.368, 1.1673839e-7, 1.2735848e-7
-0.369, 1.4163950e-7, 1.6444629e-7
-0.370, 1.5041262e-7, 1.8642852e-7
-0.371, 1.2956825e-7, 1.5890537e-7
-0.372, 1.5258938e-7, 1.7277414e-7
-0.373, 1.1673839e-7, 1.3677472e-7
-0.374, 1.6304456e-7, 1.4917580e-7
-0.375, 1.2788618e-7, 1.1950885e-7
-0.376, 1.4404715e-7, 1.1612823e-7
-0.377, 1.5230904e-7, 1.6101620e-7
-0.378, 1.2721004e-7, 1.3583472e-7
-0.379, 1.6080182e-7, 1.5432093e-7
-0.380, 1.2348313e-7, 1.3341059e-7
-0.381, 1.5117118e-7, 1.3504318e-7
-0.382, 1.5103926e-7, 1.2203193e-7
-0.383, 1.4203528e-7, 9.9439546e-8
-0.384, 1.4868108e-7, 1.2171863e-7
-0.385, 1.2439011e-7, 1.2437364e-7
-0.386, 1.6456173e-7, 1.6782690e-7
-0.387, 1.3482880e-7, 1.5151750e-7
-0.388, 1.4233211e-7, 1.4482222e-7
-0.389, 1.6456171e-7, 1.6853600e-7
-0.390, 1.3372392e-7, 1.4444292e-7
-0.391, 1.6091725e-7, 1.4719691e-7
-0.392, 1.3085452e-7, 1.5451882e-7
-0.393, 1.5504652e-7, 1.7556108e-7
-0.394, 1.5597000e-7, 1.8966072e-7
-0.395, 1.3987500e-7, 1.6683745e-7
-0.396, 1.5710789e-7, 1.7272467e-7
-0.397, 1.2026743e-7, 1.5171538e-7
-0.398, 1.6017516e-7, 1.4314017e-7
-0.399, 1.3824240e-7, 1.3491126e-7
-0.400, 1.5338095e-7, 1.3994094e-7
-0.401, 1.6350631e-7, 1.6479260e-7
-0.402, 1.4627342e-7, 1.2462100e-7
-0.403, 1.5949905e-7, 1.5323253e-7
-0.404, 1.2815003e-7, 1.0138545e-7
-0.405, 1.5733875e-7, 1.2946930e-7
-0.406, 1.5385919e-7, 1.1248377e-7
-0.407, 1.4292577e-7, 1.1025751e-7
-0.408, 1.6174180e-7, 1.4266193e-7
-0.409, 1.4792249e-7, 1.3350953e-7
-0.410, 1.6908021e-7, 1.7880978e-7
-0.411, 1.4434400e-7, 1.3728592e-7
-0.412, 1.5499705e-7, 1.6151094e-7
-0.413, 1.5771805e-7, 1.7284012e-7
-0.414, 1.3692312e-7, 1.4554782e-7
-0.415, 1.6987177e-7, 1.5412303e-7
-0.416, 1.4419557e-7, 1.6106567e-7
-0.417, 1.6667255e-7, 2.1276432e-7
-0.418, 1.5054454e-7, 1.9355254e-7
-0.419, 1.4996735e-7, 1.6748059e-7
-0.420, 1.7138890e-7, 1.7399447e-7
-0.421, 1.3565334e-7, 1.6284667e-7
-0.422, 1.7476954e-7, 1.6447926e-7
-0.423, 1.3489476e-7, 1.3146467e-7
-0.424, 1.6479258e-7, 1.6123056e-7
-0.425, 1.7264220e-7, 1.7546213e-7
-0.426, 1.4943964e-7, 1.4574572e-7
-0.427, 1.7422533e-7, 1.4910984e-7
-0.428, 1.3080505e-7, 1.2740794e-7
-0.429, 1.7465409e-7, 1.2100952e-7
-0.430, 1.4620746e-7, 1.0882280e-7
-0.431, 1.5196275e-7, 1.0197912e-7
-0.432, 1.7434076e-7, 1.4449242e-7
-0.433, 1.4170547e-7, 1.8341071e-7
-0.434, 1.7811715e-7, 1.7864487e-7
-0.435, 1.3464739e-7, 1.5247396e-7
-0.436, 1.6881634e-7, 1.7208151e-7
-0.437, 1.6281369e-7, 1.7504986e-7
-0.438, 1.5437040e-7, 1.5319955e-7
-0.439, 1.6729918e-7, 1.6337438e-7
-0.440, 1.5021472e-7, 1.9619108e-7
-0.441, 1.7509936e-7, 2.1563375e-7
-0.442, 1.5011578e-7, 1.9752683e-7
-0.443, 1.5943309e-7, 1.9559741e-7
-0.444, 1.6967387e-7, 1.8829198e-7
-0.445, 1.4638886e-7, 1.6871739e-7
-0.446, 1.8418577e-7, 1.5258939e-7
-0.447, 1.5427146e-7, 1.3552142e-7
-0.448, 1.7773786e-7, 1.6771146e-7
-0.449, 1.6776094e-7, 1.9262907e-7
-0.450, 1.6085129e-7, 1.4835126e-7
-0.451, 1.6858547e-7, 1.7974975e-7
-0.452, 1.4508606e-7, 1.4309069e-7
-0.453, 1.7885924e-7, 1.2316980e-7
-0.454, 1.5646474e-7, 1.0748705e-7
-0.455, 1.6713429e-7, 1.1932745e-7
-0.456, 1.8421875e-7, 1.5484864e-7
-0.457, 1.6431436e-7, 1.5242449e-7
-0.458, 1.8411981e-7, 1.7089420e-7
-0.459, 1.4299175e-7, 1.5420549e-7
-0.460, 1.8240476e-7, 1.9020493e-7
-0.461, 1.6403401e-7, 1.6583151e-7
-0.462, 1.6711780e-7, 1.5996079e-7
-0.463, 1.8576888e-7, 1.8987510e-7
-0.464, 1.5804785e-7, 1.9163961e-7
-0.465, 1.8840743e-7, 2.2345037e-7
-0.466, 1.5743771e-7, 1.9142523e-7
-0.467, 1.8322930e-7, 2.0006642e-7
-0.468, 1.8070622e-7, 2.1672213e-7
-0.469, 1.5817979e-7, 1.4432750e-7
-0.470, 1.8374053e-7, 1.5709139e-7
-0.471, 1.5827872e-7, 1.4755970e-7
-0.472, 1.8585133e-7, 1.7394498e-7
-0.473, 1.8098656e-7, 1.6001025e-7
-0.474, 1.7744102e-7, 1.5496408e-7
-0.475, 1.9106244e-7, 1.5445285e-7
-0.476, 1.6098322e-7, 1.2714409e-7
-0.477, 1.8880320e-7, 1.4013884e-7
-0.478, 1.6533679e-7, 1.1536965e-7
-0.479, 1.8047534e-7, 1.4396471e-7
-0.480, 1.9396481e-7, 1.8298194e-7
-0.481, 1.6551820e-7, 1.8913302e-7
-0.482, 1.9356904e-7, 1.8433418e-7
-0.483, 1.5742120e-7, 1.6556767e-7
-0.484, 2.0080849e-7, 1.9195295e-7
-0.485, 1.6317648e-7, 1.9055123e-7
-0.486, 1.7839750e-7, 1.6728269e-7
-0.487, 1.9859873e-7, 2.2048202e-7
-0.488, 1.7165276e-7, 2.0184743e-7
-0.489, 1.9615810e-7, 2.2966741e-7
-0.490, 1.6250036e-7, 2.0173198e-7
-0.491, 1.9820295e-7, 2.0212775e-7
-0.492, 1.9383289e-7, 2.0361196e-7
-0.493, 1.7937045e-7, 1.5410654e-7
-0.494, 2.0277091e-7, 1.7316991e-7
-0.495, 1.7828205e-7, 1.8664291e-7
-0.496, 2.1560075e-7, 2.0189691e-7
-0.497, 1.8217389e-7, 1.8415278e-7
-0.498, 1.8557100e-7, 1.8797866e-7
-0.499, 2.0636591e-7, 1.8491136e-7
-0.500, 1.7838101e-7, 1.4896142e-7
