Jan. 28, 2006   05:03:51
Square Wave Voltammetry
File: z:\users\scottsaunders\git\labwork\ida\01_17_19_psoralen_nonequil_2\data\control\5\75um_control_transfer_5_swv_15.txt
Data Source:  Experiment
Instrument Model:  CHI760E
Header: 
Note: 

Init E (V) = 0.1
Final E (V) = -0.5
Incr E (V) = 0.001
Amplitude (V) = 0.025
Frequency (Hz) = 300
Quiet Time (sec) = 2
Sensitivity (A/V) = 1e-6
Sens 2 (A/V) = 1e-6

Potential/V, i1/A, i2/A

0.099, 2.2485210e-7, 1.0024760e-7
0.098, 1.5405709e-7, 1.1781029e-7
0.097, 1.6101619e-7, 1.4523451e-7
0.096, 1.2805108e-7, 9.1425008e-8
0.095, 1.7960133e-7, 1.3659331e-7
0.094, 1.9962116e-7, 1.0664602e-7
0.093, 1.7402745e-7, 1.3599964e-7
0.092, 1.5918572e-7, 1.4284333e-7
0.091, 1.4460784e-7, 1.3977605e-7
0.090, 1.6942651e-7, 1.6929457e-7
0.089, 1.2948577e-7, 1.0042899e-7
0.088, 1.2023445e-7, 1.5267184e-7
0.087, 1.3256955e-7, 9.3981086e-8
0.086, 1.5921870e-7, 8.9083308e-8
0.085, 1.6274771e-7, 6.0356342e-8
0.084, 1.1215395e-7, 3.6114855e-8
0.083, 1.5313358e-7, 1.1510581e-7
0.082, 1.3878659e-7, 6.9953984e-8
0.081, 1.6151093e-7, 1.2978262e-7
0.080, 1.4106233e-7, 1.3281692e-7
0.079, 1.4452540e-7, 1.2727601e-7
0.078, 1.8560398e-7, 1.6182423e-7
0.077, 1.1696927e-7, 1.2443959e-7
0.076, 1.5719033e-7, 1.6807427e-7
0.075, 1.2668235e-7, 1.3024436e-7
0.074, 1.5001683e-7, 1.2753986e-7
0.073, 1.3326218e-7, 1.3181099e-7
0.072, 8.5818137e-8, 1.1662296e-7
0.071, 1.5534336e-7, 1.5592055e-7
0.070, 1.1650751e-7, 1.0428784e-7
0.069, 1.5737173e-7, 1.0110511e-7
0.068, 1.3934728e-7, 1.3187694e-7
0.067, 1.7557757e-7, 1.5184732e-7
0.066, 1.9833487e-7, 1.5557421e-7
0.065, 1.1784327e-7, 1.4942316e-7
0.064, 1.6367122e-7, 1.8984213e-7
0.063, 1.1601280e-7, 1.9053473e-7
0.062, 1.5156698e-7, 1.5514547e-7
0.061, 1.1690330e-7, 1.7097665e-7
0.060, 8.8901913e-8, 1.4810391e-7
0.059, 1.5775102e-7, 1.1167572e-7
0.058, 1.1429776e-7, 1.0521131e-7
0.057, 1.4330507e-7, 6.0686155e-8
0.056, 1.3250360e-7, 1.0674496e-7
0.055, 1.4937369e-7, 9.9439539e-8
0.054, 1.6090077e-7, 1.2373050e-7
0.053, 1.0634919e-7, 1.0535974e-7
0.052, 1.6500697e-7, 1.3464741e-7
0.051, 1.5857556e-7, 1.3471336e-7
0.050, 1.5087434e-7, 1.3740137e-7
0.049, 1.4061706e-7, 1.2994752e-7
0.048, 1.2706164e-7, 1.1109853e-7
0.047, 1.6413296e-7, 1.2145476e-7
0.046, 1.0969681e-7, 8.3278557e-8
0.045, 9.2051664e-8, 8.9627505e-8
0.044, 1.3326218e-7, 8.1893319e-8
0.043, 1.3987500e-7, 7.6434873e-8
0.042, 1.4854915e-7, 1.0719022e-7
0.041, 1.0806423e-7, 3.6659053e-8
0.040, 1.4726287e-7, 1.2351612e-7
0.039, 1.5371077e-7, 1.0209455e-7
0.038, 1.5690998e-7, 1.4002340e-7
0.037, 1.3326218e-7, 1.3680770e-7
0.036, 1.2876018e-7, 1.1972323e-7
0.035, 1.5476618e-7, 1.7979923e-7
0.034, 1.0689338e-7, 9.8367643e-8
0.033, 1.0481554e-7, 1.4191986e-7
0.032, 1.0798178e-7, 1.0097318e-7
0.031, 1.3271797e-7, 1.1507282e-7
0.030, 1.4594360e-7, 1.1317638e-7
0.029, 9.4525276e-8, 9.8549037e-8
0.028, 1.3931430e-7, 1.4300824e-7
0.027, 1.2420873e-7, 1.0666251e-7
0.026, 1.5145153e-7, 1.6042253e-7
0.025, 1.2740794e-7, 1.5864151e-7
0.024, 1.1710119e-7, 1.8346017e-7
0.023, 1.8319633e-7, 1.6413296e-7
0.022, 1.0883929e-7, 1.0649760e-7
0.021, 1.3675822e-7, 1.4388226e-7
0.020, 1.1701874e-7, 1.0968032e-7
0.019, 1.2920543e-7, 1.0916911e-7
0.018, 1.4243106e-7, 9.8977793e-8
0.017, 7.1850430e-8, 8.2519975e-8
0.016, 1.5257291e-7, 1.3078855e-7
0.015, 1.0786634e-7, 9.9983737e-8
0.014, 1.5910327e-7, 8.9545054e-8
0.013, 1.2836441e-7, 1.2316980e-7
0.012, 1.4902739e-7, 1.0877334e-7
0.011, 1.7871082e-7, 1.2127336e-7
0.010, 1.0354574e-7, 8.2173671e-8
0.009, 1.4688358e-7, 1.1218692e-7
0.008, 1.0547517e-7, 9.9637425e-8
0.007, 1.3566984e-7, 6.7991579e-8
0.006, 1.0883929e-7, 8.3905206e-8
0.005, 8.7384763e-8, 7.5395953e-8
0.004, 1.4596009e-7, 9.3882136e-8
0.003, 1.0140194e-7, 8.4333962e-8
0.002, 1.3819292e-7, 7.5016665e-8
0.001, 1.1886570e-7, 1.2374699e-7
-0.000, 1.3431759e-7, 1.2371400e-7
-0.001, 1.4683411e-7, 1.0994417e-7
-0.002, 9.6866977e-8, 1.0181422e-7
-0.003, 1.3787960e-7, 1.3865467e-7
-0.004, 1.2312033e-7, 1.3440004e-7
-0.005, 1.3435057e-7, 1.1939341e-7
-0.006, 1.1985514e-7, 1.1799169e-7
-0.007, 1.1086767e-7, 1.0127002e-7
-0.008, 1.5052805e-7, 1.4119425e-7
-0.009, 9.8021324e-8, 1.1899763e-7
-0.010, 9.4822113e-8, 1.2758933e-7
-0.011, 1.1536964e-7, 1.4688358e-7
-0.012, 1.2824897e-7, 1.4447592e-7
-0.013, 1.4030374e-7, 1.6649115e-7
-0.014, 9.1276590e-8, 1.0674496e-7
-0.015, 1.4239808e-7, 1.2178458e-7
-0.016, 1.5717384e-7, 1.0793230e-7
-0.017, 1.3444952e-7, 9.7427659e-8
-0.018, 1.2592378e-7, 1.0145142e-7
-0.019, 1.1563350e-7, 1.0051144e-7
-0.020, 1.4500363e-7, 1.5211117e-7
-0.021, 1.0001671e-7, 7.6352421e-8
-0.022, 9.7790462e-8, 1.2846334e-7
-0.023, 1.0976278e-7, 8.8110355e-8
-0.024, 1.2940333e-7, 1.0590394e-7
-0.025, 1.3199238e-7, 1.0402398e-7
-0.026, 9.8153251e-8, 5.3149854e-8
-0.027, 1.3306428e-7, 9.4805628e-8
-0.028, 1.2293893e-7, 3.9264602e-8
-0.029, 1.3845678e-7, 8.4614314e-8
-0.030, 1.2120739e-7, 8.1382112e-8
-0.031, 1.1004312e-7, 1.1642507e-7
-0.032, 1.5900432e-7, 9.3684250e-8
-0.033, 9.4937548e-8, 8.6543736e-8
-0.034, 1.3002997e-7, 1.3431759e-7
-0.035, 1.1045540e-7, 1.1088416e-7
-0.036, 1.1950884e-7, 1.2373050e-7
-0.037, 1.1779380e-7, 1.1497387e-7
-0.038, 5.4023872e-8, 1.0389205e-7
-0.039, 1.3565335e-7, 1.2630306e-7
-0.040, 8.8852445e-8, 9.7147321e-8
-0.041, 1.3520810e-7, 9.5399294e-8
-0.042, 1.1723312e-7, 1.1815661e-7
-0.043, 1.2856229e-7, 9.9670416e-8
-0.044, 1.7537968e-7, 1.2523115e-7
-0.045, 9.2200075e-8, 1.0529377e-7
-0.046, 1.4159004e-7, 1.5113821e-7
-0.047, 9.0452055e-8, 1.6352280e-7
-0.048, 1.2607219e-7, 1.3504318e-7
-0.049, 9.4162480e-8, 1.4633939e-7
-0.050, 7.3994229e-8, 1.3756627e-7
-0.051, 1.3621403e-7, 1.3593369e-7
-0.052, 8.6626187e-8, 6.7051602e-8
-0.053, 1.3631298e-7, 4.7460528e-8
-0.054, 1.0699233e-7, 9.2397968e-8
-0.055, 1.4338752e-7, 8.1645965e-8
-0.056, 1.3728592e-7, 1.1014207e-7
-0.057, 9.5085966e-8, 8.3839240e-8
-0.058, 1.4295877e-7, 1.2815002e-7
-0.059, 1.0501343e-7, 1.1785976e-7
-0.060, 1.2084460e-7, 1.1850290e-7
-0.061, 1.2203193e-7, 1.1149432e-7
-0.062, 1.0488150e-7, 9.1523951e-8
-0.063, 1.3877010e-7, 9.6965920e-8
-0.064, 9.7510117e-8, 5.8179552e-8
-0.065, 9.2068149e-8, 5.1517269e-8
-0.066, 1.1093363e-7, 7.6517324e-8
-0.067, 1.1800818e-7, 6.3440119e-8
-0.068, 1.2937035e-7, 8.9660489e-8
-0.069, 8.6197424e-8, 5.2622152e-8
-0.070, 1.3832485e-7, 1.3139872e-7
-0.071, 1.5217712e-7, 1.0371066e-7
-0.072, 1.2864476e-7, 1.1499037e-7
-0.073, 1.1614472e-7, 1.0862492e-7
-0.074, 1.1025750e-7, 9.9868302e-8
-0.075, 1.3616456e-7, 1.5826222e-7
-0.076, 8.9676988e-8, 8.2371557e-8
-0.077, 7.2806898e-8, 1.2961770e-7
-0.078, 1.0669550e-7, 9.5959976e-8
-0.079, 1.1251674e-7, 1.0872386e-7
-0.080, 1.2006953e-7, 1.0479904e-7
-0.081, 9.1474483e-8, 8.4944119e-8
-0.082, 1.2989805e-7, 1.4091390e-7
-0.083, 1.2361507e-7, 1.1137888e-7
-0.084, 1.3421864e-7, 1.5056102e-7
-0.085, 1.1611174e-7, 1.4477276e-7
-0.086, 1.0667900e-7, 1.6053797e-7
-0.087, 1.3946271e-7, 1.6847004e-7
-0.088, 9.9686901e-8, 8.8769994e-8
-0.089, 1.1195606e-7, 1.1609524e-7
-0.090, 1.0290260e-7, 8.3971166e-8
-0.091, 1.1888219e-7, 8.6131458e-8
-0.092, 1.2815002e-7, 8.2272614e-8
-0.093, 5.8509368e-8, 7.9568125e-8
-0.094, 1.4152407e-7, 1.2077864e-7
-0.095, 8.9066816e-8, 8.3657838e-8
-0.096, 1.3161309e-7, 1.1429775e-7
-0.097, 1.1344023e-7, 1.1129642e-7
-0.098, 1.2579184e-7, 1.0874035e-7
-0.099, 1.7950238e-7, 1.0056092e-7
-0.100, 8.7698091e-8, 6.2978373e-8
-0.101, 1.3476284e-7, 9.4508792e-8
-0.102, 8.9000864e-8, 8.5950063e-8
-0.103, 1.2490133e-7, 6.9855034e-8
-0.104, 9.3997571e-8, 7.3268637e-8
-0.105, 5.1269907e-8, 6.5221123e-8
-0.106, 1.3743434e-7, 8.5669718e-8
-0.107, 8.8225789e-8, 6.5600410e-8
-0.108, 1.3306429e-7, 5.4601049e-8
-0.109, 1.0707478e-7, 1.2407679e-7
-0.110, 1.4502012e-7, 1.1879974e-7
-0.111, 1.3626351e-7, 1.2572588e-7
-0.112, 8.7747559e-8, 1.0499694e-7
-0.113, 1.3090400e-7, 1.2516519e-7
-0.114, 9.2859707e-8, 1.5913625e-7
-0.115, 1.2031690e-7, 1.2336770e-7
-0.116, 1.0542569e-7, 1.1726610e-7
-0.117, 8.2338580e-8, 1.1086767e-7
-0.118, 1.3637893e-7, 1.2600623e-7
-0.119, 9.5184916e-8, 1.0938349e-7
-0.120, 1.0128652e-7, 1.0887227e-7
-0.121, 1.1093363e-7, 1.1462757e-7
-0.122, 1.2087759e-7, 1.4685060e-7
-0.123, 1.2838089e-7, 1.6020815e-7
-0.124, 8.8060887e-8, 1.2829844e-7
-0.125, 1.2795213e-7, 1.5996079e-7
-0.126, 1.4406365e-7, 1.2996402e-7
-0.127, 1.1540264e-7, 1.3242115e-7
-0.128, 1.2016847e-7, 1.2946930e-7
-0.129, 1.0737162e-7, 7.8875509e-8
-0.130, 1.4020480e-7, 1.3921536e-7
-0.131, 9.0105743e-8, 8.2338573e-8
-0.132, 7.3004784e-8, 1.0504641e-7
-0.133, 1.0905367e-7, 9.5910501e-8
-0.134, 1.3064013e-7, 1.1035645e-7
-0.135, 1.3031033e-7, 1.0074231e-7
-0.136, 9.5778582e-8, 6.5666377e-8
-0.137, 1.3966061e-7, 1.3319621e-7
-0.138, 1.3875362e-7, 8.4218534e-8
-0.139, 1.4193634e-7, 1.3583474e-7
-0.140, 1.2092706e-7, 7.4241598e-8
-0.141, 1.0601937e-7, 8.3459945e-8
-0.142, 1.4777409e-7, 9.6685582e-8
-0.143, 1.0173176e-7, 5.7206595e-8
-0.144, 1.1007610e-7, 1.0887228e-7
-0.145, 1.0658005e-7, 7.0465198e-8
-0.146, 1.1954182e-7, 1.0648111e-7
-0.147, 1.3689015e-7, 7.2493563e-8
-0.148, 8.5191488e-8, 9.0468539e-8
-0.149, 1.3566984e-7, 1.3753329e-7
-0.150, 1.0371065e-7, 9.8004833e-8
-0.151, 1.2580833e-7, 1.2953525e-7
-0.152, 1.1711768e-7, 1.1441319e-7
-0.153, 1.1418231e-7, 1.2605570e-7
-0.154, 1.7241135e-7, 1.2490133e-7
-0.155, 8.9396643e-8, 9.5646655e-8
-0.156, 1.4173845e-7, 1.2584131e-7
-0.157, 9.6784525e-8, 1.1226939e-7
-0.158, 1.2364804e-7, 1.0742109e-7
-0.159, 1.0659654e-7, 1.3491126e-7
-0.160, 5.7651846e-8, 1.3355900e-7
-0.161, 1.3837432e-7, 1.5771803e-7
-0.162, 9.5283859e-8, 1.2765531e-7
-0.163, 1.3407022e-7, 1.2493432e-7
-0.164, 1.1190659e-7, 1.5341394e-7
-0.165, 1.4810389e-7, 1.3662630e-7
-0.166, 1.6428137e-7, 1.4356893e-7
-0.167, 9.7559592e-8, 8.4812200e-8
-0.168, 1.4599308e-7, 1.2292244e-7
-0.169, 1.0014865e-7, 1.4820284e-7
-0.170, 1.3222326e-7, 1.1950885e-7
-0.171, 1.0717372e-7, 1.2232877e-7
-0.172, 9.3865651e-8, 1.1695276e-7
-0.173, 1.4769164e-7, 1.2767180e-7
-0.174, 9.7427659e-8, 9.5580688e-8
-0.175, 1.3550492e-7, 8.2767336e-8
-0.176, 1.1873378e-7, 1.0855895e-7
-0.177, 1.3662630e-7, 1.1119747e-7
-0.178, 1.4498713e-7, 1.3219028e-7
-0.179, 9.9225154e-8, 9.6899960e-8
-0.180, 1.4594360e-7, 9.0501523e-8
-0.181, 1.4003990e-7, 8.7318803e-8
-0.182, 1.3059068e-7, 1.0115458e-7
-0.183, 1.3245412e-7, 9.9670409e-8
-0.184, 1.2354909e-7, 8.0936857e-8
-0.185, 1.4912632e-7, 1.0747057e-7
-0.186, 1.0042898e-7, 8.8357723e-8
-0.187, 9.5184916e-8, 1.4325560e-7
-0.188, 1.1884921e-7, 1.4149109e-7
-0.189, 1.3339410e-7, 1.3778065e-7
-0.190, 1.3463091e-7, 1.4271140e-7
-0.191, 9.7064863e-8, 9.0979761e-8
-0.192, 1.4617449e-7, 1.4063356e-7
-0.193, 1.6121409e-7, 1.0765196e-7
-0.194, 1.4825231e-7, 1.3999043e-7
-0.195, 1.3489478e-7, 1.3875362e-7
-0.196, 1.2546202e-7, 1.3835783e-7
-0.197, 1.5023120e-7, 1.6960790e-7
-0.198, 1.1025750e-7, 1.3153064e-7
-0.199, 1.2259262e-7, 1.6217054e-7
-0.200, 1.1789275e-7, 1.5428795e-7
-0.201, 1.3731891e-7, 1.7826558e-7
-0.202, 1.5333148e-7, 1.5000033e-7
-0.203, 1.0552465e-7, 1.1396794e-7
-0.204, 1.5026420e-7, 1.7016859e-7
-0.205, 1.2770477e-7, 1.2092706e-7
-0.206, 1.4714743e-7, 1.5387569e-7
-0.207, 1.3641191e-7, 1.5369429e-7
-0.208, 1.3050821e-7, 1.4467381e-7
-0.209, 1.8339421e-7, 1.3606561e-7
-0.210, 1.1347321e-7, 1.2016848e-7
-0.211, 1.5606895e-7, 1.5039612e-7
-0.212, 1.2786968e-7, 1.3344356e-7
-0.213, 1.5699244e-7, 1.3237167e-7
-0.214, 1.4051813e-7, 1.4508608e-7
-0.215, 9.7460649e-8, 1.3167904e-7
-0.216, 1.6675500e-7, 1.6899776e-7
-0.217, 1.1896465e-7, 1.2719356e-7
-0.218, 1.6546872e-7, 1.1108204e-7
-0.219, 1.4543238e-7, 1.3359200e-7
-0.220, 1.7915607e-7, 9.7493619e-8
-0.221, 2.0161656e-7, 1.0598639e-7
-0.222, 1.2557746e-7, 1.0065986e-7
-0.223, 1.7109207e-7, 1.3781363e-7
-0.224, 1.3042576e-7, 1.6347333e-7
-0.225, 1.5992781e-7, 1.2290596e-7
-0.226, 1.4429452e-7, 1.6878336e-7
-0.227, 1.1619420e-7, 1.6434734e-7
-0.228, 1.7452216e-7, 1.6731568e-7
-0.229, 1.2887563e-7, 1.4427803e-7
-0.230, 1.7152084e-7, 1.2096002e-7
-0.231, 1.4243106e-7, 1.6777742e-7
-0.232, 1.6820618e-7, 1.5150101e-7
-0.233, 1.6957492e-7, 1.7287307e-7
-0.234, 1.3842379e-7, 1.4234861e-7
-0.235, 1.8182757e-7, 1.8797866e-7
-0.236, 1.6037306e-7, 1.9294238e-7
-0.237, 1.7612176e-7, 1.8878670e-7
-0.238, 1.6418242e-7, 2.0288634e-7
-0.239, 1.5799837e-7, 1.8011255e-7
-0.240, 1.9554794e-7, 2.3364170e-7
-0.241, 1.3433407e-7, 1.9370097e-7
-0.242, 1.2981559e-7, 2.2054799e-7
-0.243, 1.6370420e-7, 2.0727290e-7
-0.244, 1.7930449e-7, 1.8562048e-7
-0.245, 1.7785331e-7, 1.7734209e-7
-0.246, 1.5339744e-7, 1.3705505e-7
-0.247, 1.9332168e-7, 1.8392191e-7
-0.248, 2.1853612e-7, 1.6109864e-7
-0.249, 2.0254004e-7, 1.8791270e-7
-0.250, 1.9157366e-7, 1.8868776e-7
-0.251, 1.8515874e-7, 1.7734209e-7
-0.252, 2.1263241e-7, 2.2092728e-7
-0.253, 1.5578861e-7, 1.6045551e-7
-0.254, 1.5169888e-7, 2.1380326e-7
-0.255, 1.7511582e-7, 1.7153734e-7
-0.256, 1.8951229e-7, 1.7475304e-7
-0.257, 2.0036326e-7, 1.5636579e-7
-0.258, 1.6670552e-7, 1.0415592e-7
-0.259, 2.0395825e-7, 1.6997069e-7
-0.260, 2.0062710e-7, 1.2612165e-7
-0.261, 2.0783358e-7, 1.8113498e-7
-0.262, 1.9876364e-7, 1.6109864e-7
-0.263, 1.8238828e-7, 2.1037317e-7
-0.264, 2.3134947e-7, 2.2178480e-7
-0.265, 1.6263229e-7, 2.0196286e-7
-0.266, 2.1532040e-7, 2.2473667e-7
-0.267, 1.7434076e-7, 1.9025438e-7
-0.268, 1.9632300e-7, 2.0644835e-7
-0.269, 1.9482233e-7, 1.9317325e-7
-0.270, 1.3566982e-7, 1.8205846e-7
-0.271, 2.1070299e-7, 2.1405062e-7
-0.272, 1.6652413e-7, 1.7255977e-7
-0.273, 2.1193979e-7, 2.0354598e-7
-0.274, 1.9215084e-7, 2.2867796e-7
-0.275, 2.1393518e-7, 2.1464429e-7
-0.276, 2.4500386e-7, 2.4635611e-7
-0.277, 1.6553467e-7, 2.1756316e-7
-0.278, 2.1703545e-7, 2.5512921e-7
-0.279, 1.6535327e-7, 2.6279741e-7
-0.280, 1.9833489e-7, 2.1810735e-7
-0.281, 1.6533677e-7, 2.1152752e-7
-0.282, 1.2455504e-7, 1.8646151e-7
-0.283, 2.0473331e-7, 1.9102946e-7
-0.284, 1.5836117e-7, 1.7224643e-7
-0.285, 1.9755981e-7, 1.3914939e-7
-0.286, 1.7600634e-7, 1.8886917e-7
-0.287, 2.0794901e-7, 1.7829856e-7
-0.288, 2.1327554e-7, 1.7945291e-7
-0.289, 1.6375368e-7, 1.6614484e-7
-0.290, 2.0001694e-7, 2.1149454e-7
-0.291, 1.8195952e-7, 2.0453543e-7
-0.292, 1.8703869e-7, 1.7185064e-7
-0.293, 1.7125697e-7, 1.5481565e-7
-0.294, 1.6182425e-7, 1.4531695e-7
-0.295, 2.0481576e-7, 1.6753008e-7
-0.296, 1.4884598e-7, 1.4188686e-7
-0.297, 1.4962106e-7, 1.4304123e-7
-0.298, 1.6673850e-7, 1.8339421e-7
-0.299, 1.7745752e-7, 1.8639554e-7
-0.300, 1.8517521e-7, 2.0982897e-7
-0.301, 1.4808739e-7, 1.7148786e-7
-0.302, 1.9920888e-7, 2.0105587e-7
-0.303, 1.9615808e-7, 1.7491794e-7
-0.304, 1.8342719e-7, 1.7745751e-7
-0.305, 1.6998720e-7, 1.9427816e-7
-0.306, 1.5265536e-7, 1.6781041e-7
-0.307, 1.8901758e-7, 2.1779402e-7
-0.308, 1.4109530e-7, 1.6241792e-7
-0.309, 1.2247719e-7, 2.0849320e-7
-0.310, 1.5808084e-7, 1.7275765e-7
-0.311, 1.6141198e-7, 2.0321616e-7
-0.312, 1.7110857e-7, 1.9239819e-7
-0.313, 1.3753329e-7, 1.5615142e-7
-0.314, 1.7747401e-7, 2.1492463e-7
-0.315, 1.5517844e-7, 1.3477934e-7
-0.316, 1.8176164e-7, 1.6741463e-7
-0.317, 1.5702541e-7, 1.6528732e-7
-0.318, 1.4975298e-7, 1.8689025e-7
-0.319, 1.8499382e-7, 1.7730910e-7
-0.320, 1.4312367e-7, 1.5760261e-7
-0.321, 1.6418242e-7, 1.9191995e-7
-0.322, 1.4325560e-7, 1.4627344e-7
-0.323, 1.6129653e-7, 1.6042253e-7
-0.324, 1.6358877e-7, 1.5885590e-7
-0.325, 9.9340596e-8, 1.0686039e-7
-0.326, 1.7566003e-7, 1.4046866e-7
-0.327, 1.2819950e-7, 9.2810232e-8
-0.328, 1.6538625e-7, 1.3397127e-7
-0.329, 1.5453530e-7, 1.3491126e-7
-0.330, 1.6663957e-7, 1.4759267e-7
-0.331, 2.0964757e-7, 1.5267184e-7
-0.332, 1.3141519e-7, 1.5173187e-7
-0.333, 1.7439024e-7, 1.8499384e-7
-0.334, 1.2165265e-7, 2.0222672e-7
-0.335, 1.6284667e-7, 1.4619097e-7
-0.336, 1.2866124e-7, 1.7907362e-7
-0.337, 8.7302311e-8, 1.5643175e-7
-0.338, 1.6396805e-7, 1.7204854e-7
-0.339, 1.1947586e-7, 1.3433409e-7
-0.340, 1.6777744e-7, 1.4342049e-7
-0.341, 1.4172194e-7, 1.7589090e-7
-0.342, 1.7561055e-7, 1.9983554e-7
-0.343, 1.6667255e-7, 2.0064360e-7
-0.344, 1.2152073e-7, 1.7950239e-7
-0.345, 1.7460462e-7, 1.8517522e-7
-0.346, 1.2653393e-7, 2.1474322e-7
-0.347, 1.5982887e-7, 1.7788629e-7
-0.348, 1.4658674e-7, 1.6096672e-7
-0.349, 1.2933737e-7, 1.4691656e-7
-0.350, 1.7432427e-7, 1.6515538e-7
-0.351, 1.2570938e-7, 1.4450890e-7
-0.352, 1.3566982e-7, 1.4594360e-7
-0.353, 1.4965404e-7, 1.5646474e-7
-0.354, 1.5671209e-7, 1.5522792e-7
-0.355, 1.5969694e-7, 1.6997069e-7
-0.356, 1.1875028e-7, 1.3161309e-7
-0.357, 1.7488496e-7, 1.1403391e-7
-0.358, 1.7834802e-7, 1.1614471e-7
-0.359, 1.5687701e-7, 1.2518169e-7
-0.360, 1.5494757e-7, 1.3672523e-7
-0.361, 1.3979252e-7, 1.1095013e-7
-0.362, 1.7546213e-7, 2.2008624e-7
-0.363, 1.1535316e-7, 1.5628333e-7
-0.364, 1.1718365e-7, 1.8571940e-7
-0.365, 1.3425162e-7, 1.6192320e-7
-0.366, 1.5021472e-7, 1.5676156e-7
-0.367, 1.5519493e-7, 1.6406699e-7
-0.368, 1.2036637e-7, 1.1751346e-7
-0.369, 1.6749708e-7, 1.7755647e-7
-0.370, 1.6908020e-7, 1.4346999e-7
-0.371, 1.6990474e-7, 1.8863830e-7
-0.372, 1.4845020e-7, 1.8064024e-7
-0.373, 1.3298184e-7, 2.0834480e-7
-0.374, 1.7678140e-7, 2.0545889e-7
-0.375, 1.3367445e-7, 1.7656703e-7
-0.376, 1.4480574e-7, 2.0328213e-7
-0.377, 1.3116784e-7, 1.2749038e-7
-0.378, 1.5674507e-7, 1.4940667e-7
-0.379, 1.6335788e-7, 1.1942640e-7
-0.380, 8.7582656e-8, 1.3632948e-7
-0.381, 1.6490803e-7, 1.7260922e-7
-0.382, 1.4290930e-7, 1.3916589e-7
-0.383, 1.7105910e-7, 1.6104917e-7
-0.384, 1.5677807e-7, 1.5293571e-7
-0.385, 1.4813689e-7, 1.5282026e-7
-0.386, 2.0883952e-7, 1.5097331e-7
-0.387, 1.2467046e-7, 1.0324892e-7
-0.388, 1.7874380e-7, 1.3532353e-7
-0.389, 1.2452205e-7, 1.3824240e-7
-0.390, 1.5880642e-7, 1.1950885e-7
-0.391, 1.4114477e-7, 1.7653403e-7
-0.392, 1.0725618e-7, 1.6291264e-7
-0.393, 1.7506636e-7, 1.9150770e-7
-0.394, 1.2928790e-7, 1.3974307e-7
-0.395, 1.6311053e-7, 1.3146467e-7
-0.396, 1.4213423e-7, 1.6724971e-7
-0.397, 1.7744104e-7, 1.6174178e-7
-0.398, 1.8100306e-7, 1.5235851e-7
-0.399, 1.2902404e-7, 1.5854259e-7
-0.400, 1.6949247e-7, 1.9271152e-7
-0.401, 1.3440004e-7, 2.3026108e-7
-0.402, 1.7157031e-7, 2.1147804e-7
-0.403, 1.4869755e-7, 2.0488173e-7
-0.404, 1.2656692e-7, 1.9802155e-7
-0.405, 1.8011254e-7, 1.8698920e-7
-0.406, 1.3060716e-7, 1.2655042e-7
-0.407, 1.4876353e-7, 1.3276745e-7
-0.408, 1.5549176e-7, 1.5100628e-7
-0.409, 1.7308746e-7, 1.4708147e-7
-0.410, 1.7274115e-7, 1.7823260e-7
-0.411, 1.3158011e-7, 1.5023122e-7
-0.412, 1.7876030e-7, 1.6987175e-7
-0.413, 1.9220030e-7, 1.7293905e-7
-0.414, 1.6650763e-7, 1.3792906e-7
-0.415, 1.5844363e-7, 1.2946930e-7
-0.416, 1.5422199e-7, 9.8318168e-8
-0.417, 1.8301492e-7, 1.8603276e-7
-0.418, 1.3486179e-7, 1.4088093e-7
-0.419, 1.2608868e-7, 1.7762244e-7
-0.420, 1.5351287e-7, 1.6781041e-7
-0.421, 1.6701885e-7, 1.6645816e-7
-0.422, 1.6677149e-7, 1.9201890e-7
-0.423, 1.3715399e-7, 1.2689671e-7
-0.424, 1.7963431e-7, 1.9973660e-7
-0.425, 1.8019500e-7, 1.4734530e-7
-0.426, 1.8515873e-7, 1.8408683e-7
-0.427, 1.7242783e-7, 2.1289625e-7
-0.428, 1.5781698e-7, 2.2274126e-7
-0.429, 1.9224977e-7, 2.3985871e-7
-0.430, 1.4871407e-7, 1.7387902e-7
-0.431, 1.4769164e-7, 2.2069641e-7
-0.432, 1.5361182e-7, 1.7224644e-7
-0.433, 1.6553466e-7, 1.6462766e-7
-0.434, 1.8388894e-7, 1.2877666e-7
-0.435, 1.1220342e-7, 1.4688356e-7
-0.436, 1.8726955e-7, 1.8260266e-7
-0.437, 1.5953202e-7, 1.4661973e-7
-0.438, 1.8108548e-7, 1.8563696e-7
-0.439, 1.7285660e-7, 1.6261579e-7
-0.440, 1.6695287e-7, 1.5018173e-7
-0.441, 2.2651766e-7, 1.4114478e-7
-0.442, 1.3751679e-7, 1.1612823e-7
-0.443, 1.7810068e-7, 1.5417251e-7
-0.444, 1.4447593e-7, 1.7330186e-7
-0.445, 1.8103603e-7, 1.7493444e-7
-0.446, 1.6286317e-7, 1.7976623e-7
-0.447, 9.5118949e-8, 1.7533021e-7
-0.448, 1.9046877e-7, 1.9592721e-7
-0.449, 1.3247060e-7, 1.6428137e-7
-0.450, 1.8520819e-7, 1.5031367e-7
-0.451, 1.5834468e-7, 1.8708815e-7
-0.452, 1.9815349e-7, 1.8509277e-7
-0.453, 2.1647477e-7, 1.9854926e-7
-0.454, 1.5407358e-7, 2.0531050e-7
-0.455, 1.9218382e-7, 2.3352625e-7
-0.456, 1.4980245e-7, 2.2577558e-7
-0.457, 1.8380649e-7, 1.9586125e-7
-0.458, 1.5613492e-7, 1.8301492e-7
-0.459, 1.4826881e-7, 1.6383612e-7
-0.460, 1.9063368e-7, 1.7795226e-7
-0.461, 1.5267184e-7, 1.5300166e-7
-0.462, 1.8715411e-7, 1.4498713e-7
-0.463, 1.6919564e-7, 1.8471347e-7
-0.464, 1.9004000e-7, 1.6716727e-7
-0.465, 1.8517522e-7, 1.6705184e-7
-0.466, 1.5499705e-7, 1.1980569e-7
-0.467, 1.9841733e-7, 1.4381629e-7
-0.468, 1.9182100e-7, 1.5968044e-7
-0.469, 1.8207496e-7, 1.7041593e-7
-0.470, 1.8992456e-7, 2.0928476e-7
-0.471, 1.7178469e-7, 1.9175505e-7
-0.472, 2.0118780e-7, 2.0961461e-7
-0.473, 1.5191326e-7, 1.7168574e-7
-0.474, 1.3756627e-7, 1.9564686e-7
-0.475, 1.6776093e-7, 1.7836452e-7
-0.476, 1.8771482e-7, 1.7064681e-7
-0.477, 1.9267854e-7, 2.1764562e-7
-0.478, 1.5834469e-7, 1.6975632e-7
-0.479, 2.0522805e-7, 2.3687387e-7
-0.480, 2.2376369e-7, 2.0679465e-7
-0.481, 2.0278739e-7, 2.1335799e-7
-0.482, 1.8685728e-7, 2.0931776e-7
-0.483, 1.7193310e-7, 1.9434411e-7
-0.484, 2.0911986e-7, 2.1048859e-7
-0.485, 1.6325893e-7, 1.6533679e-7
-0.486, 1.7887574e-7, 2.2056447e-7
-0.487, 1.7828206e-7, 1.7425832e-7
-0.488, 1.9848332e-7, 1.8126690e-7
-0.489, 2.0443647e-7, 1.5733875e-7
-0.490, 1.6185723e-7, 1.0141843e-7
-0.491, 1.9831839e-7, 1.6724972e-7
-0.492, 1.8570293e-7, 1.3698910e-7
-0.493, 2.0742131e-7, 1.7770489e-7
-0.494, 1.8895162e-7, 1.8436717e-7
-0.495, 1.8382298e-7, 2.1922872e-7
-0.496, 2.3562058e-7, 2.2005328e-7
-0.497, 1.6358877e-7, 1.9564690e-7
-0.498, 2.1850313e-7, 2.3611533e-7
-0.499, 1.7061384e-7, 1.8599977e-7
-0.500, 2.0958160e-7, 1.8758288e-7
