Jan. 28, 2006   05:22:12
Square Wave Voltammetry
File: z:\users\scottsaunders\git\labwork\ida\01_17_19_psoralen_nonequil_2\data\control\5\75um_control_transfer_5_swv_32.txt
Data Source:  Experiment
Instrument Model:  CHI760E
Header: 
Note: 

Init E (V) = 0.1
Final E (V) = -0.5
Incr E (V) = 0.001
Amplitude (V) = 0.025
Frequency (Hz) = 300
Quiet Time (sec) = 2
Sensitivity (A/V) = 1e-6
Sens 2 (A/V) = 1e-6

Potential/V, i1/A, i2/A

0.099, 2.3692337e-7, 1.1881623e-7
0.098, 1.6363823e-7, 1.5395813e-7
0.097, 1.3801152e-7, 1.3624700e-7
0.096, 1.6238494e-7, 1.4760917e-7
0.095, 1.3395480e-7, 1.1278060e-7
0.094, 1.5052804e-7, 1.3720349e-7
0.093, 1.5968045e-7, 1.5046207e-7
0.092, 1.3164608e-7, 1.3662628e-7
0.091, 1.5898783e-7, 1.2943632e-7
0.090, 1.2694620e-7, 1.1380303e-7
0.089, 1.6896476e-7, 1.5159995e-7
0.088, 1.2796863e-7, 1.4332157e-7
0.087, 1.4694955e-7, 1.5460128e-7
0.086, 1.6695289e-7, 1.8538960e-7
0.085, 1.3905044e-7, 1.7114155e-7
0.084, 1.6553467e-7, 1.7861188e-7
0.083, 1.2407679e-7, 1.5379322e-7
0.082, 1.5753665e-7, 1.6944300e-7
0.081, 1.4960456e-7, 1.8250371e-7
0.080, 1.4755969e-7, 1.3319621e-7
0.079, 1.4962104e-7, 1.1825554e-7
0.078, 1.2788617e-7, 1.0498044e-7
0.077, 1.5753663e-7, 1.3962763e-7
0.076, 1.3078855e-7, 1.1688680e-7
0.075, 1.4600957e-7, 1.1315989e-7
0.074, 1.5837767e-7, 1.3355901e-7
0.073, 1.3225623e-7, 1.1386899e-7
0.072, 1.5564019e-7, 1.2290596e-7
0.071, 1.2918895e-7, 1.0219350e-7
0.070, 1.5687701e-7, 1.2493432e-7
0.069, 1.5258939e-7, 1.3684067e-7
0.068, 1.3905046e-7, 1.0456819e-7
0.067, 1.5229256e-7, 1.2805107e-7
0.066, 1.1962427e-7, 1.0361171e-7
0.065, 1.5267184e-7, 8.7384763e-8
0.064, 1.2864474e-7, 7.6368913e-8
0.063, 1.3778066e-7, 8.3278550e-8
0.062, 1.4910984e-7, 1.0504641e-7
0.061, 1.3276744e-7, 7.4175631e-8
0.060, 1.5265536e-7, 9.3733725e-8
0.059, 1.2063022e-7, 8.2322089e-8
0.058, 1.4978596e-7, 1.2719356e-7
0.057, 1.5286975e-7, 1.4312367e-7
0.056, 1.4137565e-7, 1.1584788e-7
0.055, 1.4803794e-7, 1.5794890e-7
0.054, 1.1601280e-7, 1.3052470e-7
0.053, 1.5065996e-7, 1.3901747e-7
0.052, 1.2854581e-7, 1.0587095e-7
0.051, 1.3967710e-7, 1.2173510e-7
0.050, 1.3238817e-7, 1.5394164e-7
0.049, 1.2194948e-7, 1.0291910e-7
0.048, 1.4215072e-7, 1.2030040e-7
0.047, 1.1220342e-7, 1.0267173e-7
0.046, 1.3933079e-7, 1.6955843e-7
0.045, 1.3547194e-7, 1.2970017e-7
0.044, 1.3080505e-7, 1.2946930e-7
0.043, 1.4622395e-7, 1.6802478e-7
0.042, 1.1566649e-7, 1.5268834e-7
0.041, 1.4713095e-7, 1.6118111e-7
0.040, 1.1698575e-7, 1.2661638e-7
0.039, 1.4046866e-7, 1.5352937e-7
0.038, 1.4216721e-7, 1.4719690e-7
0.037, 1.2430768e-7, 1.3115135e-7
0.036, 1.4538291e-7, 9.9769352e-8
0.035, 1.0826211e-7, 8.9594529e-8
0.034, 1.4970351e-7, 1.2668235e-7
0.033, 1.3167906e-7, 1.0163281e-7
0.032, 1.2777073e-7, 9.1721844e-8
0.031, 1.4813688e-7, 1.3106890e-7
0.030, 1.1848642e-7, 9.8895342e-8
0.029, 1.5328200e-7, 1.2089407e-7
0.028, 1.1250026e-7, 9.2612346e-8
0.027, 1.4424505e-7, 1.1139538e-7
0.026, 1.3692315e-7, 1.2940333e-7
0.025, 1.2018496e-7, 9.9291121e-8
0.024, 1.3924833e-7, 8.4383437e-8
0.023, 1.0196263e-7, 6.5666377e-8
0.022, 1.5578861e-7, 6.8601736e-8
0.021, 1.1617770e-7, 7.1965857e-8
0.020, 1.1983866e-7, 6.0834566e-8
0.019, 1.3609861e-7, 9.5910508e-8
0.018, 1.1978919e-7, 1.0493098e-7
0.017, 1.5077541e-7, 1.0568955e-7
0.016, 1.1388549e-7, 1.0651409e-7
0.015, 1.4300824e-7, 1.3618106e-7
0.014, 1.3748382e-7, 1.3537300e-7
0.013, 1.2622061e-7, 1.1414934e-7
0.012, 1.3268499e-7, 1.1726610e-7
0.011, 1.1517176e-7, 1.0308401e-7
0.010, 1.3334463e-7, 1.1256621e-7
0.009, 1.1535317e-7, 1.0283664e-7
0.008, 1.2407679e-7, 1.0011566e-7
0.007, 1.4015532e-7, 1.3858870e-7
0.006, 1.0557412e-7, 1.1820607e-7
0.005, 1.4460784e-7, 1.3835783e-7
0.004, 1.0948244e-7, 1.0207806e-7
0.003, 1.3016191e-7, 1.5661314e-7
0.002, 1.2849634e-7, 1.6424841e-7
0.001, 1.2420873e-7, 1.2940333e-7
-0.000, 1.3024436e-7, 1.4312369e-7
-0.001, 1.0400750e-7, 1.3822590e-7
-0.002, 1.3296534e-7, 1.2938683e-7
-0.003, 1.0453520e-7, 8.9099807e-8
-0.004, 1.1525422e-7, 9.6289796e-8
-0.005, 1.3689015e-7, 1.2198245e-7
-0.006, 1.2127336e-7, 7.9815486e-8
-0.007, 1.4307420e-7, 1.0882280e-7
-0.008, 1.0051144e-7, 9.0320128e-8
-0.009, 1.3466388e-7, 1.2191650e-7
-0.010, 1.2645147e-7, 1.1202202e-7
-0.011, 1.2590728e-7, 9.6718558e-8
-0.012, 1.3329516e-7, 1.2490133e-7
-0.013, 1.0986173e-7, 1.0938349e-7
-0.014, 1.3853924e-7, 1.1269815e-7
-0.015, 1.1283007e-7, 7.0580633e-8
-0.016, 1.2679777e-7, 8.6988983e-8
-0.017, 1.3271799e-7, 9.1490975e-8
-0.018, 1.0771792e-7, 5.9696703e-8
-0.019, 1.2768828e-7, 7.7968515e-8
-0.020, 9.8994292e-8, 5.5029808e-8
-0.021, 1.2529711e-7, 9.9390064e-8
-0.022, 1.1926149e-7, 9.0171710e-8
-0.023, 1.1258271e-7, 8.9264717e-8
-0.024, 1.3393830e-7, 1.4666919e-7
-0.025, 1.0310050e-7, 1.0377663e-7
-0.026, 1.2867773e-7, 1.3657683e-7
-0.027, 1.0484852e-7, 8.3707306e-8
-0.028, 1.2740794e-7, 1.1687032e-7
-0.029, 1.2917245e-7, 1.3339410e-7
-0.030, 1.0400749e-7, 1.0430432e-7
-0.031, 1.3715399e-7, 9.8680957e-8
-0.032, 9.4492293e-8, 1.0864141e-7
-0.033, 1.4022129e-7, 1.1545211e-7
-0.034, 1.1660646e-7, 1.0918561e-7
-0.035, 1.1734855e-7, 1.0649761e-7
-0.036, 1.3304779e-7, 1.6809075e-7
-0.037, 1.0455169e-7, 1.4478925e-7
-0.038, 1.3031033e-7, 1.4577870e-7
-0.039, 8.9446111e-8, 1.3101942e-7
-0.040, 1.2336768e-7, 1.4320612e-7
-0.041, 1.2570939e-7, 1.3144819e-7
-0.042, 1.1118100e-7, 1.1215395e-7
-0.043, 1.3566984e-7, 1.1040592e-7
-0.044, 9.0204686e-8, 8.1250185e-8
-0.045, 1.4129320e-7, 9.3453380e-8
-0.046, 9.9043760e-8, 8.7863000e-8
-0.047, 1.1555106e-7, 8.1579998e-8
-0.048, 1.3754978e-7, 1.2234527e-7
-0.049, 1.0692636e-7, 9.5663147e-8
-0.050, 1.4083145e-7, 1.0125353e-7
-0.051, 9.3453380e-8, 8.7681599e-8
-0.052, 1.2946929e-7, 1.1792573e-7
-0.053, 1.2148774e-7, 1.1367111e-7
-0.054, 1.2006953e-7, 9.2332002e-8
-0.055, 1.2587429e-7, 9.4178972e-8
-0.056, 9.7922381e-8, 5.2407771e-8
-0.057, 1.2305438e-7, 7.1273256e-8
-0.058, 1.0432082e-7, 5.9234964e-8
-0.059, 1.1510580e-7, 6.8238940e-8
-0.060, 1.2255964e-7, 8.5290424e-8
-0.061, 1.0075881e-7, 7.5593846e-8
-0.062, 1.3153064e-7, 1.0377661e-7
-0.063, 9.6322779e-8, 8.5999538e-8
-0.064, 1.2166913e-7, 1.1241780e-7
-0.065, 1.2852931e-7, 1.2425819e-7
-0.066, 1.0440327e-7, 9.7658535e-8
-0.067, 1.2671532e-7, 1.1510581e-7
-0.068, 9.1012737e-8, 1.0529376e-7
-0.069, 1.2887561e-7, 1.1784327e-7
-0.070, 9.9472523e-8, 8.8126853e-8
-0.071, 1.1479247e-7, 1.0376013e-7
-0.072, 1.2015198e-7, 1.2696269e-7
-0.073, 1.0814668e-7, 9.4442832e-8
-0.074, 1.2389540e-7, 1.2714408e-7
-0.075, 8.8555609e-8, 1.0225946e-7
-0.076, 1.2900755e-7, 1.4670218e-7
-0.077, 1.1997059e-7, 1.5313358e-7
-0.078, 1.1535316e-7, 1.2590726e-7
-0.079, 1.2918895e-7, 1.6533679e-7
-0.080, 1.0750354e-7, 1.3855572e-7
-0.081, 1.3133275e-7, 1.3162958e-7
-0.082, 9.4393357e-8, 8.8374215e-8
-0.083, 1.2458801e-7, 1.1439670e-7
-0.084, 1.2061373e-7, 1.1339075e-7
-0.085, 1.0943296e-7, 7.5874183e-8
-0.086, 1.2326875e-7, 8.8242288e-8
-0.087, 9.2546387e-8, 7.3136704e-8
-0.088, 1.1833799e-7, 1.2114144e-7
-0.089, 1.1950884e-7, 9.6289796e-8
-0.090, 1.0748705e-7, 8.0738971e-8
-0.091, 1.3538948e-7, 1.2023443e-7
-0.092, 9.8252201e-8, 9.1672376e-8
-0.093, 1.2269157e-7, 1.1835449e-7
-0.094, 9.5267367e-8, 7.9155846e-8
-0.095, 1.2188352e-7, 9.5399294e-8
-0.096, 1.2034988e-7, 8.6527237e-8
-0.097, 9.6306294e-8, 7.1553593e-8
-0.098, 1.2231229e-7, 6.9739606e-8
-0.099, 8.9825399e-8, 5.6233635e-8
-0.100, 1.3240465e-7, 8.2008761e-8
-0.101, 1.0954840e-7, 7.0217837e-8
-0.102, 1.0976278e-7, 6.9393295e-8
-0.103, 1.3309726e-7, 1.2120739e-7
-0.104, 1.0364469e-7, 1.1561701e-7
-0.105, 1.3403724e-7, 1.3087100e-7
-0.106, 8.3905206e-8, 1.1063679e-7
-0.107, 1.1743100e-7, 1.2753986e-7
-0.108, 1.2013550e-7, 1.1058732e-7
-0.109, 1.1484195e-7, 9.3717226e-8
-0.110, 1.2902404e-7, 1.0956489e-7
-0.111, 8.5983046e-8, 9.6801010e-8
-0.112, 1.2401084e-7, 1.1024102e-7
-0.113, 9.5135441e-8, 9.6372247e-8
-0.114, 1.0702530e-7, 9.1556934e-8
-0.115, 1.2160318e-7, 1.4281035e-7
-0.116, 9.3766701e-8, 1.3096995e-7
-0.117, 1.2689672e-7, 1.3027734e-7
-0.118, 9.1903239e-8, 1.3205835e-7
-0.119, 1.2587429e-7, 1.5250694e-7
-0.120, 1.1459458e-7, 1.5489810e-7
-0.121, 1.1624367e-7, 1.2882614e-7
-0.122, 1.2533010e-7, 1.2386242e-7
-0.123, 9.3816176e-8, 1.1873378e-7
-0.124, 1.2945280e-7, 1.2081162e-7
-0.125, 9.6784518e-8, 7.7358358e-8
-0.126, 1.0986173e-7, 9.0682931e-8
-0.127, 1.3059066e-7, 1.1385250e-7
-0.128, 1.0234192e-7, 8.8786479e-8
-0.129, 1.3299832e-7, 1.0051144e-7
-0.130, 1.0545868e-7, 8.6296367e-8
-0.131, 1.2978262e-7, 1.1050487e-7
-0.132, 1.2191650e-7, 1.1805766e-7
-0.133, 1.1790924e-7, 8.5735678e-8
-0.134, 1.2927140e-7, 1.0301805e-7
-0.135, 9.2134115e-8, 1.0958138e-7
-0.136, 1.3408672e-7, 7.5280511e-8
-0.137, 1.0991120e-7, 5.2143925e-8
-0.138, 1.1769486e-7, 6.7744210e-8
-0.139, 1.3606561e-7, 8.7120910e-8
-0.140, 1.0615129e-7, 4.9258027e-8
-0.141, 1.2439011e-7, 8.2998206e-8
-0.142, 9.2101132e-8, 7.2740924e-8
-0.143, 1.2488485e-7, 1.1926149e-7
-0.144, 1.2158668e-7, 1.3186046e-7
-0.145, 1.2514869e-7, 1.0245735e-7
-0.146, 1.3595017e-7, 1.3857220e-7
-0.147, 1.0529378e-7, 1.1774434e-7
-0.148, 1.4045216e-7, 1.2641848e-7
-0.149, 1.0948244e-7, 9.0435563e-8
-0.150, 1.2612166e-7, 1.1649103e-7
-0.151, 1.2313681e-7, 1.1315989e-7
-0.152, 1.1325884e-7, 9.8812890e-8
-0.153, 1.2282351e-7, 1.0560710e-7
-0.154, 8.7928960e-8, 1.1080170e-7
-0.155, 1.2958473e-7, 1.5146802e-7
-0.156, 1.1609524e-7, 1.2180107e-7
-0.157, 1.1680436e-7, 1.1680435e-7
-0.158, 1.3337761e-7, 1.6668903e-7
-0.159, 9.7889405e-8, 1.4693305e-7
-0.160, 1.3308077e-7, 1.5176485e-7
-0.161, 1.0018162e-7, 1.2237824e-7
-0.162, 1.2420873e-7, 1.5849309e-7
-0.163, 1.2495082e-7, 1.3563685e-7
-0.164, 1.1093363e-7, 1.1614472e-7
-0.165, 1.3073908e-7, 9.0946777e-8
-0.166, 9.3816176e-8, 1.0794879e-7
-0.167, 1.4294228e-7, 1.3339410e-7
-0.168, 1.1597981e-7, 9.8153258e-8
-0.169, 1.1856887e-7, 9.4525284e-8
-0.170, 1.3444951e-7, 1.2326875e-7
-0.171, 1.0854246e-7, 1.1134590e-7
-0.172, 1.3928133e-7, 1.2702866e-7
-0.173, 9.9901285e-8, 1.1264867e-7
-0.174, 1.3212431e-7, 1.1418231e-7
-0.175, 1.3092048e-7, 1.2732548e-7
-0.176, 1.1507282e-7, 9.4343882e-8
-0.177, 1.3077207e-7, 9.0781867e-8
-0.178, 9.6504181e-8, 7.4439484e-8
-0.179, 1.4759267e-7, 8.5702695e-8
-0.180, 1.0747057e-7, 6.4182196e-8
-0.181, 1.1970674e-7, 6.3258717e-8
-0.182, 1.3344356e-7, 1.0014865e-7
-0.183, 1.0842703e-7, 1.0527729e-7
-0.184, 1.3482881e-7, 1.1987164e-7
-0.185, 9.9785844e-8, 1.2455503e-7
-0.186, 1.3007946e-7, 1.4178791e-7
-0.187, 1.2839739e-7, 1.5168240e-7
-0.188, 1.1705171e-7, 1.2470345e-7
-0.189, 1.2706164e-7, 1.3080505e-7
-0.190, 1.0634918e-7, 1.2171861e-7
-0.191, 1.3415267e-7, 1.3865466e-7
-0.192, 1.1456161e-7, 1.1292902e-7
-0.193, 1.2100951e-7, 1.2463748e-7
-0.194, 1.3326218e-7, 1.3700559e-7
-0.195, 1.1855238e-7, 1.2053127e-7
-0.196, 1.4081496e-7, 1.5095681e-7
-0.197, 1.0961436e-7, 1.3748382e-7
-0.198, 1.4409662e-7, 1.7298851e-7
-0.199, 1.3004647e-7, 1.8285002e-7
-0.200, 1.1794221e-7, 1.4058409e-7
-0.201, 1.3811047e-7, 1.6352280e-7
-0.202, 1.0024758e-7, 1.4624042e-7
-0.203, 1.4713093e-7, 1.5709138e-7
-0.204, 1.1205501e-7, 1.0575552e-7
-0.205, 1.3179448e-7, 1.0176474e-7
-0.206, 1.3738487e-7, 1.3830837e-7
-0.207, 1.2587429e-7, 8.7005475e-8
-0.208, 1.4224966e-7, 1.2028391e-7
-0.209, 1.1276411e-7, 1.0605235e-7
-0.210, 1.3944621e-7, 1.4757620e-7
-0.211, 1.3161309e-7, 1.3336113e-7
-0.212, 1.2852931e-7, 1.1607876e-7
-0.213, 1.4869757e-7, 1.4488820e-7
-0.214, 1.2247719e-7, 1.2838090e-7
-0.215, 1.4469030e-7, 1.2834792e-7
-0.216, 1.2242772e-7, 8.7038458e-8
-0.217, 1.5173188e-7, 9.6866977e-8
-0.218, 1.4510258e-7, 1.1185712e-7
-0.219, 1.3336113e-7, 6.9409793e-8
-0.220, 1.5023122e-7, 1.0018162e-7
-0.221, 1.2117442e-7, 9.0402580e-8
-0.222, 1.5168239e-7, 1.5359534e-7
-0.223, 1.3933079e-7, 1.2504975e-7
-0.224, 1.4122725e-7, 1.4878002e-7
-0.225, 1.5806435e-7, 1.4673516e-7
-0.226, 1.2185055e-7, 1.4165599e-7
-0.227, 1.4770811e-7, 1.5405708e-7
-0.228, 1.2275753e-7, 1.2782021e-7
-0.229, 1.4233211e-7, 1.5491460e-7
-0.230, 1.3895149e-7, 1.5387567e-7
-0.231, 1.2768828e-7, 1.3174501e-7
-0.232, 1.5423848e-7, 1.3797855e-7
-0.233, 1.2229579e-7, 1.3543897e-7
-0.234, 1.6086777e-7, 1.7941993e-7
-0.235, 1.3779714e-7, 1.6980579e-7
-0.236, 1.4099636e-7, 1.5326550e-7
-0.237, 1.6078532e-7, 1.8863828e-7
-0.238, 1.2643500e-7, 1.9071614e-7
-0.239, 1.6675500e-7, 1.9384937e-7
-0.240, 1.2297191e-7, 1.7834803e-7
-0.241, 1.6543575e-7, 1.6997072e-7
-0.242, 1.5127013e-7, 1.7204854e-7
-0.243, 1.4627342e-7, 1.4274440e-7
-0.244, 1.5240799e-7, 1.3652736e-7
-0.245, 1.2956824e-7, 1.3261904e-7
-0.246, 1.7503338e-7, 1.4419558e-7
-0.247, 1.3758277e-7, 1.4243106e-7
-0.248, 1.4803793e-7, 1.2986507e-7
-0.249, 1.5831171e-7, 1.6024111e-7
-0.250, 1.3553790e-7, 1.4434400e-7
-0.251, 1.6508942e-7, 1.5476618e-7
-0.252, 1.4183739e-7, 1.5075892e-7
-0.253, 1.6235195e-7, 1.6889879e-7
-0.254, 1.6367122e-7, 1.4661973e-7
-0.255, 1.5209469e-7, 1.0730567e-7
-0.256, 1.6617783e-7, 1.1454510e-7
-0.257, 1.3258604e-7, 1.2316981e-7
-0.258, 1.7180118e-7, 1.3807748e-7
-0.259, 1.4614149e-7, 1.2275754e-7
-0.260, 1.5690998e-7, 1.3408672e-7
-0.261, 1.6972332e-7, 1.7087770e-7
-0.262, 1.5397461e-7, 1.6876686e-7
-0.263, 1.7518180e-7, 1.8162970e-7
-0.264, 1.3453197e-7, 1.6490802e-7
-0.265, 1.7109207e-7, 1.7303799e-7
-0.266, 1.5517844e-7, 1.8166268e-7
-0.267, 1.4759269e-7, 1.4882950e-7
-0.268, 1.6447926e-7, 1.7034999e-7
-0.269, 1.3566982e-7, 1.5989482e-7
-0.270, 1.7379658e-7, 1.7232890e-7
-0.271, 1.5034665e-7, 1.6005974e-7
-0.272, 1.5547529e-7, 1.7117452e-7
-0.273, 1.7142189e-7, 1.9450903e-7
-0.274, 1.5197924e-7, 1.6794233e-7
-0.275, 1.6614483e-7, 2.0225968e-7
-0.276, 1.4530048e-7, 1.8227284e-7
-0.277, 1.7556108e-7, 2.0997740e-7
-0.278, 1.5094032e-7, 1.6515540e-7
-0.279, 1.5019823e-7, 1.5727278e-7
-0.280, 1.6761251e-7, 1.6223652e-7
-0.281, 1.5146802e-7, 1.5270483e-7
-0.282, 1.7877679e-7, 1.6233547e-7
-0.283, 1.5031367e-7, 1.2866124e-7
-0.284, 1.7475303e-7, 1.5503004e-7
-0.285, 1.7364816e-7, 1.8042587e-7
-0.286, 1.4718042e-7, 1.4292578e-7
-0.287, 1.7810068e-7, 1.4140863e-7
-0.288, 1.3311376e-7, 1.5013225e-7
-0.289, 1.7119102e-7, 1.6715077e-7
-0.290, 1.4990140e-7, 1.0864140e-7
-0.291, 1.4797197e-7, 1.0138545e-7
-0.292, 1.6573257e-7, 1.2204842e-7
-0.293, 1.4145810e-7, 1.2034988e-7
-0.294, 1.6565011e-7, 1.2356558e-7
-0.295, 1.3377338e-7, 1.1241780e-7
-0.296, 1.4934071e-7, 1.7450567e-7
-0.297, 1.6472663e-7, 1.7928801e-7
-0.298, 1.2991454e-7, 1.7053138e-7
-0.299, 1.6311053e-7, 1.5608545e-7
-0.300, 1.3088750e-7, 1.5272131e-7
-0.301, 1.6903073e-7, 1.7541267e-7
-0.302, 1.3055768e-7, 1.5877345e-7
-0.303, 1.3547195e-7, 1.3695612e-7
-0.304, 1.5572266e-7, 1.5874048e-7
-0.305, 1.4096337e-7, 1.7046543e-7
-0.306, 1.6418242e-7, 1.7570950e-7
-0.307, 1.2862826e-7, 1.8115146e-7
-0.308, 1.5920222e-7, 2.0039623e-7
-0.309, 1.5661315e-7, 2.0435402e-7
-0.310, 1.3982552e-7, 1.7536320e-7
-0.311, 1.4858212e-7, 1.5697594e-7
-0.312, 1.2508274e-7, 1.5277078e-7
-0.313, 1.6370419e-7, 1.4556431e-7
-0.314, 1.2724303e-7, 1.2958473e-7
-0.315, 1.4190337e-7, 1.1846992e-7
-0.316, 1.5100628e-7, 1.4398120e-7
-0.317, 1.2541256e-7, 1.4604255e-7
-0.318, 1.6208809e-7, 1.4314016e-7
-0.319, 1.1944289e-7, 1.3792906e-7
-0.320, 1.5395813e-7, 1.5283676e-7
-0.321, 1.4317315e-7, 1.5310060e-7
-0.322, 1.3227272e-7, 1.1101608e-7
-0.323, 1.4215072e-7, 1.1142836e-7
-0.324, 1.1627664e-7, 1.0765196e-7
-0.325, 1.5658017e-7, 1.3944624e-7
-0.326, 1.3007944e-7, 1.0765196e-7
-0.327, 1.4007288e-7, 1.3938026e-7
-0.328, 1.5275430e-7, 1.4483871e-7
-0.329, 1.3690665e-7, 1.5445286e-7
-0.330, 1.5989481e-7, 1.6472663e-7
-0.331, 1.2054775e-7, 1.5014876e-7
-0.332, 1.5323253e-7, 1.5992781e-7
-0.333, 1.3994094e-7, 1.5613492e-7
-0.334, 1.2994752e-7, 1.2902404e-7
-0.335, 1.4572923e-7, 1.5948254e-7
-0.336, 1.1922850e-7, 1.4693305e-7
-0.337, 1.6474313e-7, 1.7818311e-7
-0.338, 1.2343367e-7, 1.4530045e-7
-0.339, 1.4300824e-7, 1.8012904e-7
-0.340, 1.4940666e-7, 2.0628345e-7
-0.341, 1.3064013e-7, 1.7711122e-7
-0.342, 1.5122066e-7, 1.8136585e-7
-0.343, 1.1401741e-7, 1.4967053e-7
-0.344, 1.4602607e-7, 1.5374374e-7
-0.345, 1.3916588e-7, 1.3006296e-7
-0.346, 1.3492775e-7, 1.2707812e-7
-0.347, 1.5504654e-7, 1.5610193e-7
-0.348, 1.3444952e-7, 1.4774110e-7
-0.349, 1.5865801e-7, 1.6668905e-7
-0.350, 1.3407023e-7, 1.1426478e-7
-0.351, 1.5483215e-7, 1.4635587e-7
-0.352, 1.4510256e-7, 1.6132952e-7
-0.353, 1.3529055e-7, 1.0867439e-7
-0.354, 1.5445285e-7, 9.4030554e-8
-0.355, 1.2932088e-7, 9.7378177e-8
-0.356, 1.4958806e-7, 1.3674173e-7
-0.357, 1.3789609e-7, 1.0629971e-7
-0.358, 1.4295875e-7, 1.3309726e-7
-0.359, 1.6367122e-7, 1.5438688e-7
-0.360, 1.2815002e-7, 1.5857555e-7
-0.361, 1.5700893e-7, 1.6515538e-7
-0.362, 1.1845344e-7, 1.3461442e-7
-0.363, 1.3812696e-7, 1.4736182e-7
-0.364, 1.4526748e-7, 1.6693639e-7
-0.365, 1.2447259e-7, 1.3834133e-7
-0.366, 1.5809732e-7, 1.3537300e-7
-0.367, 1.2503327e-7, 1.5288623e-7
-0.368, 1.6348982e-7, 1.7739157e-7
-0.369, 1.3667577e-7, 1.8632957e-7
-0.370, 1.3969358e-7, 1.7529723e-7
-0.371, 1.4937369e-7, 1.9114489e-7
-0.372, 1.2389540e-7, 1.7757297e-7
-0.373, 1.5977939e-7, 1.5822926e-7
-0.374, 1.2211439e-7, 1.4929122e-7
-0.375, 1.5315008e-7, 1.4041919e-7
-0.376, 1.5366130e-7, 1.4767515e-7
-0.377, 1.4342051e-7, 1.3850627e-7
-0.378, 1.5278728e-7, 1.5524442e-7
-0.379, 1.3121732e-7, 1.3784663e-7
-0.380, 1.6408349e-7, 1.5301815e-7
-0.381, 1.2782021e-7, 1.5224309e-7
-0.382, 1.3954516e-7, 1.3924833e-7
-0.383, 1.5676157e-7, 1.2666585e-7
-0.384, 1.2810054e-7, 1.0506290e-7
-0.385, 1.6253335e-7, 1.1586437e-7
-0.386, 1.3093698e-7, 1.0550816e-7
-0.387, 1.4901089e-7, 1.3281692e-7
-0.388, 1.5601948e-7, 1.3895151e-7
-0.389, 1.4010587e-7, 1.4775759e-7
-0.390, 1.5189678e-7, 1.6202215e-7
-0.391, 1.2577534e-7, 1.6334140e-7
-0.392, 1.6868442e-7, 1.7447269e-7
-0.393, 1.3153064e-7, 1.5298517e-7
-0.394, 1.3672525e-7, 1.5719033e-7
-0.395, 1.5667912e-7, 1.7109207e-7
-0.396, 1.4849968e-7, 1.4685060e-7
-0.397, 1.7407690e-7, 1.6320948e-7
-0.398, 1.3120084e-7, 1.9871418e-7
-0.399, 1.6508943e-7, 1.9162312e-7
-0.400, 1.5034664e-7, 2.0529400e-7
-0.401, 1.4342051e-7, 1.6985527e-7
-0.402, 1.5783348e-7, 2.0348001e-7
-0.403, 1.3286639e-7, 1.5940010e-7
-0.404, 1.6814022e-7, 1.8507627e-7
-0.405, 1.3482881e-7, 1.2772126e-7
-0.406, 1.5925168e-7, 1.4846670e-7
-0.407, 1.6360525e-7, 1.8327879e-7
-0.408, 1.4314016e-7, 1.3298182e-7
-0.409, 1.6962440e-7, 1.5926817e-7
-0.410, 1.2735846e-7, 1.4099636e-7
-0.411, 1.6995421e-7, 1.8059077e-7
-0.412, 1.4685060e-7, 1.5390864e-7
-0.413, 1.5064347e-7, 1.1261570e-7
-0.414, 1.6436383e-7, 1.3387233e-7
-0.415, 1.3787960e-7, 1.1340726e-7
-0.416, 1.7185066e-7, 1.3172854e-7
-0.417, 1.4711445e-7, 1.0557412e-7
-0.418, 1.6447927e-7, 1.5499705e-7
-0.419, 1.6973983e-7, 1.8156373e-7
-0.420, 1.4823583e-7, 1.6779393e-7
-0.421, 1.6607886e-7, 1.6962439e-7
-0.422, 1.4182091e-7, 1.5052805e-7
-0.423, 1.7650105e-7, 1.8454857e-7
-0.424, 1.5135259e-7, 1.6436383e-7
-0.425, 1.5514547e-7, 1.4276087e-7
-0.426, 1.7556108e-7, 1.7056438e-7
-0.427, 1.4404715e-7, 1.6860197e-7
-0.428, 1.7815015e-7, 1.8756639e-7
-0.429, 1.4215072e-7, 1.8575238e-7
-0.430, 1.5837766e-7, 2.0583821e-7
-0.431, 1.7297204e-7, 2.0641538e-7
-0.432, 1.4775759e-7, 1.6370420e-7
-0.433, 1.7630316e-7, 1.6873389e-7
-0.434, 1.4546536e-7, 1.5816327e-7
-0.435, 1.8754989e-7, 1.6141198e-7
-0.436, 1.4800496e-7, 1.5209469e-7
-0.437, 1.6080183e-7, 1.4309070e-7
-0.438, 1.8298196e-7, 1.6814023e-7
-0.439, 1.5648124e-7, 1.5550827e-7
-0.440, 1.7717718e-7, 1.7345026e-7
-0.441, 1.4394821e-7, 1.4985193e-7
-0.442, 1.7518180e-7, 1.7861188e-7
-0.443, 1.7110857e-7, 1.5631633e-7
-0.444, 1.6990474e-7, 1.1442967e-7
-0.445, 1.7551162e-7, 1.3362498e-7
-0.446, 1.4939017e-7, 1.2623710e-7
-0.447, 1.8095358e-7, 1.5626685e-7
-0.448, 1.5135258e-7, 1.3877010e-7
-0.449, 1.6738164e-7, 1.7290607e-7
-0.450, 1.7462111e-7, 2.0006641e-7
-0.451, 1.4767514e-7, 1.8040937e-7
-0.452, 1.8472997e-7, 1.7064681e-7
-0.453, 1.5145152e-7, 1.5656367e-7
-0.454, 1.7488496e-7, 1.7902414e-7
-0.455, 1.6993772e-7, 1.8253668e-7
-0.456, 1.6005973e-7, 1.5712438e-7
-0.457, 1.8199249e-7, 1.7498391e-7
-0.458, 1.5339745e-7, 1.8243774e-7
-0.459, 1.8181110e-7, 2.0204530e-7
-0.460, 1.6015868e-7, 2.1263240e-7
-0.461, 1.7128997e-7, 2.1030719e-7
-0.462, 1.7638563e-7, 2.1672213e-7
-0.463, 1.6317648e-7, 1.9549844e-7
-0.464, 1.8702220e-7, 1.6235197e-7
-0.465, 1.5476617e-7, 1.6744761e-7
-0.466, 1.7907362e-7, 1.7780383e-7
-0.467, 1.8045884e-7, 1.6667254e-7
-0.468, 1.6495750e-7, 1.5181433e-7
-0.469, 1.9394834e-7, 1.8651096e-7
-0.470, 1.6497400e-7, 1.6565012e-7
-0.471, 1.8992458e-7, 1.9323923e-7
-0.472, 1.5944957e-7, 1.5951552e-7
-0.473, 1.8593380e-7, 1.6820620e-7
-0.474, 1.8662641e-7, 1.6137899e-7
-0.475, 1.7020157e-7, 1.2422522e-7
-0.476, 1.8743445e-7, 1.4797197e-7
-0.477, 1.5915273e-7, 1.2889211e-7
-0.478, 1.8858881e-7, 1.7785331e-7
-0.479, 1.7597335e-7, 1.4785654e-7
-0.480, 1.7941993e-7, 1.5331501e-7
-0.481, 1.9544899e-7, 2.1464429e-7
-0.482, 1.6555117e-7, 1.9825242e-7
-0.483, 1.9615810e-7, 1.9681772e-7
-0.484, 1.6142846e-7, 1.6487505e-7
-0.485, 1.9816997e-7, 1.9218382e-7
-0.486, 1.8682429e-7, 2.0098989e-7
-0.487, 1.6584801e-7, 1.8989161e-7
-0.488, 2.0160005e-7, 1.8425175e-7
-0.489, 1.7265869e-7, 1.7676491e-7
-0.490, 2.0371088e-7, 2.2508297e-7
-0.491, 1.8992458e-7, 2.0001694e-7
-0.492, 1.8235531e-7, 2.1721684e-7
-0.493, 2.1805789e-7, 2.3819317e-7
-0.494, 1.7605581e-7, 2.2109219e-7
-0.495, 2.0814691e-7, 2.4157379e-7
-0.496, 1.6629326e-7, 1.8784674e-7
-0.497, 1.9881311e-7, 1.7904065e-7
-0.498, 1.9897803e-7, 2.0143516e-7
-0.499, 1.8064026e-7, 1.6723322e-7
-0.500, 2.0725641e-7, 1.7938694e-7
