Jan. 28, 2006   05:14:39
Square Wave Voltammetry
File: z:\users\scottsaunders\git\labwork\ida\01_17_19_psoralen_nonequil_2\data\control\5\75um_control_transfer_5_swv_25.txt
Data Source:  Experiment
Instrument Model:  CHI760E
Header: 
Note: 

Init E (V) = 0.1
Final E (V) = -0.5
Incr E (V) = 0.001
Amplitude (V) = 0.025
Frequency (Hz) = 300
Quiet Time (sec) = 2
Sensitivity (A/V) = 1e-6
Sens 2 (A/V) = 1e-6

Potential/V, i1/A, i2/A

0.099, 2.6010943e-7, 1.1416584e-7
0.098, 1.5855906e-7, 1.4139215e-7
0.097, 1.4244755e-7, 1.4002339e-7
0.096, 1.7316991e-7, 1.3420215e-7
0.095, 1.1904712e-7, 6.6952659e-8
0.094, 1.0643164e-7, 1.2450555e-7
0.093, 1.3360848e-7, 9.5135441e-8
0.092, 1.6320948e-7, 1.1419880e-7
0.091, 1.6607886e-7, 1.2689672e-7
0.090, 1.2279051e-7, 1.0308402e-7
0.089, 1.6421542e-7, 1.4449242e-7
0.088, 1.7448917e-7, 1.0846001e-7
0.087, 1.7010262e-7, 1.6360526e-7
0.086, 1.4930772e-7, 1.6065340e-7
0.085, 1.4882950e-7, 2.0587117e-7
0.084, 1.7526426e-7, 2.1042264e-7
0.083, 1.1690329e-7, 1.3255307e-7
0.082, 1.5646474e-7, 1.4135917e-7
0.081, 1.2979909e-7, 1.1309392e-7
0.080, 1.5783347e-7, 1.2590728e-7
0.079, 1.4854916e-7, 1.1342374e-7
0.078, 1.2664937e-7, 7.4439484e-8
0.077, 1.6195618e-7, 1.2722654e-7
0.076, 1.2249369e-7, 6.2038396e-8
0.075, 1.6291264e-7, 8.7615632e-8
0.074, 1.3974307e-7, 9.7114331e-8
0.073, 1.7102612e-7, 1.4721338e-7
0.072, 1.8733553e-7, 1.5118768e-7
0.071, 1.1805765e-7, 1.1576543e-7
0.070, 1.6226949e-7, 1.5019823e-7
0.069, 1.1403390e-7, 1.2439013e-7
0.068, 1.5311710e-7, 1.1325883e-7
0.067, 1.2697917e-7, 1.7661650e-7
0.066, 8.5240956e-8, 1.5966395e-7
0.065, 1.5874046e-7, 1.7597335e-7
0.064, 1.1264868e-7, 1.2185053e-7
0.063, 1.6167583e-7, 7.8034475e-8
0.062, 1.4165599e-7, 1.1192308e-7
0.061, 1.6142846e-7, 1.1340725e-7
0.060, 1.8692324e-7, 1.2719356e-7
0.059, 1.1274761e-7, 1.0661304e-7
0.058, 1.6472663e-7, 1.1754644e-7
0.057, 1.2556097e-7, 1.2859527e-7
0.056, 1.4335455e-7, 9.8928325e-8
0.055, 1.3240465e-7, 1.0507939e-7
0.054, 1.0394153e-7, 1.3926483e-7
0.053, 1.5941660e-7, 1.4845021e-7
0.052, 1.1424828e-7, 1.1033995e-7
0.051, 1.3811047e-7, 8.1217202e-8
0.050, 1.2132284e-7, 1.2655042e-7
0.049, 1.4183740e-7, 1.3751681e-7
0.048, 1.5758610e-7, 1.4797196e-7
0.047, 1.0659655e-7, 1.4292578e-7
0.046, 1.6052148e-7, 1.5846013e-7
0.045, 1.5169890e-7, 1.3073908e-7
0.044, 1.3240465e-7, 1.1581491e-7
0.043, 1.4935719e-7, 1.1304445e-7
0.042, 1.3585122e-7, 1.1038942e-7
0.041, 1.5427146e-7, 1.2872719e-7
0.040, 9.5531220e-8, 1.0507939e-7
0.039, 8.8720519e-8, 1.2251017e-7
0.038, 1.2402732e-7, 5.5903822e-8
0.037, 1.3126677e-7, 7.5165076e-8
0.036, 1.4912632e-7, 1.0573903e-7
0.035, 1.1668891e-7, 1.0006619e-7
0.034, 1.5628333e-7, 1.3745084e-7
0.033, 1.6574906e-7, 9.4327390e-8
0.032, 1.5300166e-7, 1.3914939e-7
0.031, 1.3057416e-7, 1.3031033e-7
0.030, 1.2841389e-7, 1.3726944e-7
0.029, 1.5501354e-7, 1.8590082e-7
0.028, 1.1325884e-7, 1.3565334e-7
0.027, 1.0771792e-7, 1.7633616e-7
0.026, 1.1772784e-7, 1.0755302e-7
0.025, 1.3204186e-7, 9.7856415e-8
0.024, 1.3878659e-7, 8.7830017e-8
0.023, 1.0540921e-7, 6.1444730e-8
0.022, 1.4676814e-7, 1.2023445e-7
0.021, 1.1738153e-7, 8.7961936e-8
0.020, 1.3997393e-7, 1.1345672e-7
0.019, 1.2496730e-7, 6.9904509e-8
0.018, 1.3591719e-7, 7.7803605e-8
0.017, 1.5384271e-7, 9.8318168e-8
0.016, 1.0793231e-7, 9.6768034e-8
0.015, 1.4864810e-7, 1.3834133e-7
0.014, 1.0343031e-7, 1.1503984e-7
0.013, 1.3428459e-7, 1.1416583e-7
0.012, 1.0021461e-7, 1.1739802e-7
0.011, 7.7985007e-8, 1.1507282e-7
0.010, 1.4967051e-7, 1.4765865e-7
0.009, 9.5976475e-8, 1.1950884e-7
0.008, 1.4848320e-7, 1.3116784e-7
0.007, 1.2377997e-7, 1.2152073e-7
0.006, 1.5196275e-7, 9.9901278e-8
0.005, 1.7956833e-7, 1.0112161e-7
0.004, 1.1131291e-7, 9.1573426e-8
0.003, 1.5301816e-7, 1.2732548e-7
0.002, 1.1423179e-7, 1.5705839e-7
0.001, 1.3270149e-7, 1.1637559e-7
-0.000, 1.1385250e-7, 8.5768662e-8
-0.001, 7.0118887e-8, 6.4973761e-8
-0.002, 1.4569625e-7, 9.7081355e-8
-0.003, 9.4343882e-8, 6.7711234e-8
-0.004, 1.3608211e-7, 8.3723805e-8
-0.005, 1.1428126e-7, 1.1283007e-7
-0.006, 1.2968368e-7, 9.8417111e-8
-0.007, 1.4040270e-7, 1.1347321e-7
-0.008, 9.3502848e-8, 9.5795073e-8
-0.009, 1.4035322e-7, 1.4442645e-7
-0.010, 1.2519817e-7, 1.6426489e-7
-0.011, 1.2562694e-7, 1.6499047e-7
-0.012, 1.1967376e-7, 1.6433084e-7
-0.013, 1.0334786e-7, 9.2876199e-8
-0.014, 1.4170547e-7, 1.1978919e-7
-0.015, 8.9281201e-8, 7.5775233e-8
-0.016, 9.5366310e-8, 1.1319287e-7
-0.017, 1.1601280e-7, 1.0761898e-7
-0.018, 1.2559396e-7, 1.1047189e-7
-0.019, 1.2922193e-7, 8.8852445e-8
-0.020, 1.0253981e-7, 5.0412382e-8
-0.021, 1.4503661e-7, 8.5521300e-8
-0.022, 1.6302808e-7, 5.0610275e-8
-0.023, 1.4328859e-7, 1.1720013e-7
-0.024, 1.2839739e-7, 1.3507616e-7
-0.025, 1.1332479e-7, 1.2401084e-7
-0.026, 1.3898448e-7, 1.4312367e-7
-0.027, 8.4878167e-8, 8.3542403e-8
-0.028, 8.4498879e-8, 1.5237501e-7
-0.029, 1.0877334e-7, 1.1781029e-7
-0.030, 1.2120739e-7, 1.3621403e-7
-0.031, 1.3040926e-7, 1.2684725e-7
-0.032, 8.9545061e-8, 7.7341866e-8
-0.033, 1.3007946e-7, 1.2039935e-7
-0.034, 1.2546204e-7, 7.5725765e-8
-0.035, 1.3868765e-7, 1.1508931e-7
-0.036, 1.2605570e-7, 1.0803124e-7
-0.037, 1.2539607e-7, 1.1818959e-7
-0.038, 1.4342051e-7, 1.3176151e-7
-0.039, 9.6108401e-8, 5.9894596e-8
-0.040, 1.4360191e-7, 9.9357088e-8
-0.041, 9.8878857e-8, 7.0762027e-8
-0.042, 1.2460450e-7, 1.0476607e-7
-0.043, 1.0903719e-7, 1.1668892e-7
-0.044, 8.4004149e-8, 8.5917080e-8
-0.045, 1.3875362e-7, 1.2717707e-7
-0.046, 9.0485031e-8, 9.8647988e-8
-0.047, 1.3326218e-7, 1.1114801e-7
-0.048, 1.1367110e-7, 1.2946929e-7
-0.049, 1.3720349e-7, 1.4757619e-7
-0.050, 1.5793242e-7, 1.5225957e-7
-0.051, 9.0798359e-8, 9.9587957e-8
-0.052, 1.4734532e-7, 1.2826546e-7
-0.053, 9.6058926e-8, 1.1190659e-7
-0.054, 1.2455503e-7, 9.1804296e-8
-0.055, 1.0216053e-7, 1.0600287e-7
-0.056, 5.9383378e-8, 1.0108862e-7
-0.057, 1.3009594e-7, 1.0760249e-7
-0.058, 8.9611021e-8, 3.3558784e-8
-0.059, 1.2267508e-7, 2.9848351e-8
-0.060, 1.0432082e-7, 7.3713892e-8
-0.061, 1.3329516e-7, 8.5207986e-8
-0.062, 1.6172530e-7, 1.3096995e-7
-0.063, 9.0320128e-8, 1.0095668e-7
-0.064, 1.3710454e-7, 1.3914939e-7
-0.065, 1.0277068e-7, 1.4200231e-7
-0.066, 1.2185055e-7, 1.0992770e-7
-0.067, 1.1360514e-7, 1.3284991e-7
-0.068, 9.7790455e-8, 1.3454846e-7
-0.069, 1.3726944e-7, 1.4962106e-7
-0.070, 8.6923016e-8, 1.2406031e-7
-0.071, 1.1355566e-7, 7.8710606e-8
-0.072, 1.0659654e-7, 9.4706678e-8
-0.073, 1.1954182e-7, 8.7170385e-8
-0.074, 1.3169554e-7, 1.1101608e-7
-0.075, 8.7698083e-8, 8.4136069e-8
-0.076, 1.3799503e-7, 1.2265859e-7
-0.077, 1.4046866e-7, 7.8628148e-8
-0.078, 1.2232877e-7, 7.6797669e-8
-0.079, 1.1749697e-7, 8.0046355e-8
-0.080, 1.1160975e-7, 7.6797669e-8
-0.081, 1.3209133e-7, 1.1800818e-7
-0.082, 8.2800319e-8, 9.3700734e-8
-0.083, 6.7183528e-8, 1.3369093e-7
-0.084, 9.6949428e-8, 9.4047046e-8
-0.085, 1.0394152e-7, 1.0836106e-7
-0.086, 1.2185053e-7, 1.0361171e-7
-0.087, 8.8638060e-8, 8.6510745e-8
-0.088, 1.2866124e-7, 1.5382619e-7
-0.089, 1.4393171e-7, 1.0372715e-7
-0.090, 1.3006296e-7, 1.2008603e-7
-0.091, 1.2224632e-7, 9.2332002e-8
-0.092, 1.0720671e-7, 1.1909658e-7
-0.093, 1.4358542e-7, 1.2735848e-7
-0.094, 9.2645330e-8, 1.0105564e-7
-0.095, 1.1987164e-7, 1.2124039e-7
-0.096, 1.0184719e-7, 9.7081355e-8
-0.097, 1.1751345e-7, 6.7744217e-8
-0.098, 1.0920209e-7, 7.5989618e-8
-0.099, 9.1606417e-8, 2.5329873e-8
-0.100, 1.3336111e-7, 1.0489799e-7
-0.101, 9.9307613e-8, 9.2068142e-8
-0.102, 1.3555440e-7, 1.1439670e-7
-0.103, 1.0641514e-7, 1.0916912e-7
-0.104, 1.3374040e-7, 1.1088416e-7
-0.105, 1.5354586e-7, 1.1792573e-7
-0.106, 9.0171703e-8, 1.2326875e-7
-0.107, 1.4030374e-7, 1.6048848e-7
-0.108, 9.2942159e-8, 1.3975955e-7
-0.109, 1.1324234e-7, 1.3873712e-7
-0.110, 9.5151925e-8, 1.1088416e-7
-0.111, 6.0834566e-8, 8.6708646e-8
-0.112, 1.3586772e-7, 1.1675488e-7
-0.113, 8.9512078e-8, 9.0616965e-8
-0.114, 1.3428460e-7, 7.3235654e-8
-0.115, 1.1189009e-7, 1.2030040e-7
-0.116, 1.3411970e-7, 6.7876144e-8
-0.117, 1.6672202e-7, 7.1702004e-8
-0.118, 9.2430945e-8, 6.0158442e-8
-0.119, 1.4289280e-7, 9.1441500e-8
-0.120, 1.0407345e-7, 1.5999376e-7
-0.121, 1.1987164e-7, 1.3431759e-7
-0.122, 1.0910315e-7, 1.3519160e-7
-0.123, 7.1520610e-8, 1.1576543e-7
-0.124, 1.4370086e-7, 1.2147125e-7
-0.125, 9.2826724e-8, 1.0382610e-7
-0.126, 1.1794221e-7, 8.8077378e-8
-0.127, 1.0796528e-7, 1.4492117e-7
-0.128, 1.2171861e-7, 1.2897456e-7
-0.129, 1.3598316e-7, 1.1373707e-7
-0.130, 9.0765383e-8, 8.9891365e-8
-0.131, 1.3675822e-7, 1.1571596e-7
-0.132, 1.2915596e-7, 1.0752003e-7
-0.133, 1.2485187e-7, 1.0987822e-7
-0.134, 1.2716058e-7, 1.1596332e-7
-0.135, 1.0608533e-7, 7.8182900e-8
-0.136, 1.3812696e-7, 8.2272614e-8
-0.137, 8.2948738e-8, 5.5310146e-8
-0.138, 7.1899898e-8, 1.0735512e-7
-0.139, 1.1332479e-7, 8.1678941e-8
-0.140, 1.1726610e-7, 1.2043233e-7
-0.141, 1.2150423e-7, 1.1706821e-7
-0.142, 9.6190846e-8, 8.0277232e-8
-0.143, 1.3954518e-7, 1.2869423e-7
-0.144, 1.5826222e-7, 8.8011411e-8
-0.145, 1.3994095e-7, 1.4079848e-7
-0.146, 1.2457153e-7, 1.5761910e-7
-0.147, 1.0801476e-7, 1.5016525e-7
-0.148, 1.4408013e-7, 1.4498713e-7
-0.149, 9.2843216e-8, 1.0441976e-7
-0.150, 1.0758600e-7, 1.2712761e-7
-0.151, 1.0722319e-7, 9.4937548e-8
-0.152, 1.2663287e-7, 1.2211439e-7
-0.153, 1.2556096e-7, 8.6774605e-8
-0.154, 8.7599140e-8, 5.7965174e-8
-0.155, 1.3044225e-7, 1.0075880e-7
-0.156, 1.0958138e-7, 5.3050911e-8
-0.157, 1.2923842e-7, 8.6164441e-8
-0.158, 1.2194948e-7, 1.0880631e-7
-0.159, 1.3111837e-7, 1.2701216e-7
-0.160, 1.4518503e-7, 1.5041260e-7
-0.161, 9.3337945e-8, 1.1599631e-7
-0.162, 1.4005639e-7, 1.3235517e-7
-0.163, 9.9324104e-8, 1.0915262e-7
-0.164, 1.2688024e-7, 1.0710777e-7
-0.165, 1.0384259e-7, 1.5488160e-7
-0.166, 6.4924293e-8, 1.5125364e-7
-0.167, 1.4353594e-7, 1.6259931e-7
-0.168, 8.8588592e-8, 1.1395144e-7
-0.169, 1.3332814e-7, 6.7167036e-8
-0.170, 1.2364804e-7, 1.0217701e-7
-0.171, 1.4709795e-7, 9.6669083e-8
-0.172, 1.7965080e-7, 1.0949893e-7
-0.173, 1.0069284e-7, 1.0014864e-7
-0.174, 1.4884598e-7, 1.3355901e-7
-0.175, 1.0996068e-7, 1.2142178e-7
-0.176, 1.2689674e-7, 7.6451357e-8
-0.177, 1.1347321e-7, 1.0001671e-7
-0.178, 8.5768662e-8, 1.0639866e-7
-0.179, 1.4084793e-7, 1.4525099e-7
-0.180, 9.7872913e-8, 9.7955365e-8
-0.181, 1.3101942e-7, 7.6698726e-8
-0.182, 1.0605235e-7, 1.2529712e-7
-0.183, 1.2798512e-7, 1.0250683e-7
-0.184, 1.4962104e-7, 1.4196931e-7
-0.185, 9.5943491e-8, 1.2930438e-7
-0.186, 1.4536643e-7, 1.5944957e-7
-0.187, 1.1665594e-7, 1.5367779e-7
-0.188, 1.3159661e-7, 1.4567975e-7
-0.189, 1.3004647e-7, 1.1436371e-7
-0.190, 1.1306093e-7, 1.1043890e-7
-0.191, 1.5743770e-7, 1.4137564e-7
-0.192, 9.2760772e-8, 9.0369603e-8
-0.193, 9.6932936e-8, 1.3900097e-7
-0.194, 1.1833800e-7, 1.0432082e-7
-0.195, 1.2546202e-7, 7.9370224e-8
-0.196, 1.4314017e-7, 1.0356224e-7
-0.197, 1.0606884e-7, 8.1332644e-8
-0.198, 1.5862503e-7, 1.5077541e-7
-0.199, 1.6673852e-7, 1.1205501e-7
-0.200, 1.4322261e-7, 1.4287630e-7
-0.201, 1.3133274e-7, 1.3357550e-7
-0.202, 1.1624367e-7, 1.4482222e-7
-0.203, 1.5420551e-7, 1.6842057e-7
-0.204, 1.0671198e-7, 1.3317971e-7
-0.205, 8.3839240e-8, 1.9722999e-7
-0.206, 1.1627665e-7, 1.5379322e-7
-0.207, 1.3380637e-7, 1.2864476e-7
-0.208, 1.4264543e-7, 1.1807414e-7
-0.209, 1.0626673e-7, 8.0986325e-8
-0.210, 1.5123715e-7, 1.3034330e-7
-0.211, 1.2427469e-7, 1.1553456e-7
-0.212, 1.4078199e-7, 1.4464084e-7
-0.213, 1.3659331e-7, 1.3040926e-7
-0.214, 1.3024436e-7, 1.2661638e-7
-0.215, 1.5789942e-7, 1.2440663e-7
-0.216, 1.1001014e-7, 8.6576712e-8
-0.217, 1.5338095e-7, 1.3769819e-7
-0.218, 1.2251017e-7, 1.4236510e-7
-0.219, 1.4394821e-7, 1.4790601e-7
-0.220, 1.2849634e-7, 1.5166592e-7
-0.221, 8.8621576e-8, 1.2531360e-7
-0.222, 1.5059402e-7, 1.6299509e-7
-0.223, 1.0996068e-7, 1.3103592e-7
-0.224, 1.5908677e-7, 1.8532363e-7
-0.225, 1.3486178e-7, 1.8974318e-7
-0.226, 1.6347333e-7, 1.7285659e-7
-0.227, 1.8954528e-7, 1.8044236e-7
-0.228, 1.1350619e-7, 1.1914606e-7
-0.229, 1.6471013e-7, 1.5852608e-7
-0.230, 1.2427468e-7, 1.7511584e-7
-0.231, 1.5651422e-7, 1.2970017e-7
-0.232, 1.2854581e-7, 1.5376024e-7
-0.233, 8.2421025e-8, 1.4328859e-7
-0.234, 1.6002674e-7, 1.3891851e-7
-0.235, 1.2511573e-7, 8.5603759e-8
-0.236, 1.6348982e-7, 7.9139355e-8
-0.237, 1.4022129e-7, 1.2534657e-7
-0.238, 1.6561712e-7, 1.4937369e-7
-0.239, 1.8103603e-7, 1.6372070e-7
-0.240, 1.2346663e-7, 1.5094031e-7
-0.241, 1.7458812e-7, 1.9106243e-7
-0.242, 1.4104583e-7, 1.9924187e-7
-0.243, 1.6311053e-7, 1.5832821e-7
-0.244, 1.6114812e-7, 1.8603275e-7
-0.245, 1.3934728e-7, 1.8378999e-7
-0.246, 1.7552810e-7, 2.0212777e-7
-0.247, 1.2796862e-7, 1.6131303e-7
-0.248, 1.4675165e-7, 1.5615142e-7
-0.249, 1.4607554e-7, 1.5082487e-7
-0.250, 1.5687701e-7, 1.5173187e-7
-0.251, 1.7117453e-7, 1.6362175e-7
-0.252, 1.3875362e-7, 1.4538291e-7
-0.253, 1.8390543e-7, 1.7401095e-7
-0.254, 1.9934083e-7, 1.4986840e-7
-0.255, 1.7148786e-7, 1.3664280e-7
-0.256, 1.7041594e-7, 1.3430109e-7
-0.257, 1.4871407e-7, 1.4323911e-7
-0.258, 1.8293247e-7, 1.7951889e-7
-0.259, 1.3748382e-7, 1.5194625e-7
-0.260, 1.2006954e-7, 2.0334809e-7
-0.261, 1.5240799e-7, 1.5013228e-7
-0.262, 1.6248387e-7, 1.5788294e-7
-0.263, 1.7279064e-7, 1.5493109e-7
-0.264, 1.4587765e-7, 1.3672523e-7
-0.265, 1.8217389e-7, 2.0161654e-7
-0.266, 1.8693973e-7, 1.7481899e-7
-0.267, 1.7866135e-7, 1.9965415e-7
-0.268, 1.6217054e-7, 1.8677483e-7
-0.269, 1.5699243e-7, 1.8346017e-7
-0.270, 1.9800507e-7, 2.0295231e-7
-0.271, 1.3581824e-7, 1.6724972e-7
-0.272, 1.7562704e-7, 1.8817656e-7
-0.273, 1.4661973e-7, 1.5666262e-7
-0.274, 1.7152082e-7, 1.4462434e-7
-0.275, 1.6627676e-7, 1.2023445e-7
-0.276, 1.3616454e-7, 8.2486991e-8
-0.277, 1.8207496e-7, 1.4765865e-7
-0.278, 1.4114477e-7, 1.3593367e-7
-0.279, 1.8779727e-7, 1.7790278e-7
-0.280, 1.6062042e-7, 1.7417587e-7
-0.281, 1.8022797e-7, 1.7036648e-7
-0.282, 2.0199585e-7, 1.7241135e-7
-0.283, 1.3171203e-7, 1.4802144e-7
-0.284, 1.8944633e-7, 1.9190347e-7
-0.285, 1.4083146e-7, 1.8182759e-7
-0.286, 1.6868441e-7, 1.9544898e-7
-0.287, 1.3146467e-7, 2.0484876e-7
-0.288, 1.0110512e-7, 1.7003666e-7
-0.289, 1.6599641e-7, 1.9889558e-7
-0.290, 1.3764873e-7, 1.2013550e-7
-0.291, 1.7099313e-7, 1.3047523e-7
-0.292, 1.5443636e-7, 1.5883941e-7
-0.293, 1.7806768e-7, 1.3870412e-7
-0.294, 2.0648135e-7, 1.6278072e-7
-0.295, 1.3510913e-7, 1.3280044e-7
-0.296, 1.7356568e-7, 1.4116127e-7
-0.297, 1.3898448e-7, 1.6164284e-7
-0.298, 1.6833810e-7, 1.1784327e-7
-0.299, 1.5230906e-7, 1.8441663e-7
-0.300, 1.1662296e-7, 1.6753008e-7
-0.301, 1.7772138e-7, 1.7729262e-7
-0.302, 1.1957481e-7, 1.5503004e-7
-0.303, 1.5006630e-7, 1.2917245e-7
-0.304, 1.4699901e-7, 1.5197924e-7
-0.305, 1.5694296e-7, 1.6662308e-7
-0.306, 1.6988825e-7, 1.9821944e-7
-0.307, 1.1916254e-7, 1.7128997e-7
-0.308, 1.7734209e-7, 2.0143516e-7
-0.309, 1.5974639e-7, 1.6495750e-7
-0.310, 1.5478267e-7, 1.4312367e-7
-0.311, 1.4861511e-7, 1.5844364e-7
-0.312, 1.4089741e-7, 1.3863817e-7
-0.313, 1.6185723e-7, 1.6121409e-7
-0.314, 1.1690330e-7, 1.2979910e-7
-0.315, 1.0979576e-7, 1.7844698e-7
-0.316, 1.3682418e-7, 9.2200082e-8
-0.317, 1.4426155e-7, 1.0130300e-7
-0.318, 1.5300166e-7, 1.1485844e-7
-0.319, 1.2867774e-7, 1.2659990e-7
-0.320, 1.7504986e-7, 2.0070955e-7
-0.321, 1.7800171e-7, 1.3562035e-7
-0.322, 1.7066331e-7, 1.7709472e-7
-0.323, 1.3812696e-7, 1.7030052e-7
-0.324, 1.3641191e-7, 1.6058742e-7
-0.325, 1.6799180e-7, 1.8994106e-7
-0.326, 1.3100293e-7, 1.5390866e-7
-0.327, 1.2267509e-7, 2.2541278e-7
-0.328, 1.3187696e-7, 1.7930449e-7
-0.329, 1.4589413e-7, 1.6754655e-7
-0.330, 1.4516854e-7, 1.4939017e-7
-0.331, 1.1245079e-7, 9.2068149e-8
-0.332, 1.6335790e-7, 1.5415601e-7
-0.333, 1.2871072e-7, 1.1205501e-7
-0.334, 1.5732226e-7, 1.6083480e-7
-0.335, 1.4187037e-7, 1.4299175e-7
-0.336, 1.5463425e-7, 1.5286973e-7
-0.337, 1.7272467e-7, 1.4412961e-7
-0.338, 1.1997059e-7, 8.8209305e-8
-0.339, 1.6104917e-7, 1.2617113e-7
-0.340, 1.1931095e-7, 1.2857878e-7
-0.341, 1.4879650e-7, 1.6266529e-7
-0.342, 1.1439671e-7, 1.7072927e-7
-0.343, 8.8506134e-8, 1.3568632e-7
-0.344, 1.5659666e-7, 1.6581502e-7
-0.345, 1.0939998e-7, 1.3014541e-7
-0.346, 1.5298517e-7, 1.4831828e-7
-0.347, 1.3949570e-7, 1.6756304e-7
-0.348, 1.6129655e-7, 1.9099647e-7
-0.349, 1.9643844e-7, 1.8014552e-7
-0.350, 1.2097652e-7, 1.5966394e-7
-0.351, 1.6099970e-7, 1.6815670e-7
-0.352, 1.2435714e-7, 1.7424182e-7
-0.353, 1.5021472e-7, 1.4747724e-7
-0.354, 1.3835783e-7, 1.6157686e-7
-0.355, 8.3476436e-8, 1.4389873e-7
-0.356, 1.6459470e-7, 1.5554126e-7
-0.357, 1.1637560e-7, 1.0529376e-7
-0.358, 1.5199574e-7, 7.9650590e-8
-0.359, 1.3547194e-7, 9.4921063e-8
-0.360, 1.5489810e-7, 1.0189667e-7
-0.361, 1.7013561e-7, 1.1995409e-7
-0.362, 1.1705171e-7, 1.4663621e-7
-0.363, 1.6822268e-7, 1.7429129e-7
-0.364, 1.3679120e-7, 1.9088104e-7
-0.365, 1.4432750e-7, 1.6236844e-7
-0.366, 1.4167247e-7, 1.6703534e-7
-0.367, 1.2673183e-7, 1.4386578e-7
-0.368, 1.6635921e-7, 1.8060726e-7
-0.369, 1.0285314e-7, 1.5138555e-7
-0.370, 1.1675488e-7, 2.0001694e-7
-0.371, 1.3890204e-7, 1.7655053e-7
-0.372, 1.4892845e-7, 1.5270483e-7
-0.373, 1.5972991e-7, 1.5316658e-7
-0.374, 1.1901412e-7, 1.3278394e-7
-0.375, 1.7168574e-7, 1.5837767e-7
-0.376, 1.8839093e-7, 1.2913948e-7
-0.377, 1.6782690e-7, 1.6626026e-7
-0.378, 1.5824574e-7, 1.6042253e-7
-0.379, 1.3916589e-7, 1.4592712e-7
-0.380, 1.6400104e-7, 1.4149109e-7
-0.381, 1.2554447e-7, 9.3997578e-8
-0.382, 1.1002663e-7, 1.4739479e-7
-0.383, 1.3060715e-7, 1.2034988e-7
-0.384, 1.5681104e-7, 1.6853600e-7
-0.385, 1.6099970e-7, 1.3512563e-7
-0.386, 1.1949236e-7, 1.2100951e-7
-0.387, 1.6073585e-7, 1.7307099e-7
-0.388, 1.3799503e-7, 1.2895808e-7
-0.389, 1.5949905e-7, 1.6362173e-7
-0.390, 1.4271140e-7, 1.7478601e-7
-0.391, 1.5290273e-7, 1.8004658e-7
-0.392, 1.7894169e-7, 2.0603609e-7
-0.393, 1.2443961e-7, 1.7598984e-7
-0.394, 1.6207161e-7, 1.9032035e-7
-0.395, 1.2523117e-7, 1.5798189e-7
-0.396, 1.5597001e-7, 1.3815995e-7
-0.397, 1.4065006e-7, 1.5418901e-7
-0.398, 1.0534325e-7, 1.4440995e-7
-0.399, 1.6332490e-7, 1.8245424e-7
-0.400, 1.2537957e-7, 1.4503661e-7
-0.401, 1.7824910e-7, 1.5539284e-7
-0.402, 1.5240799e-7, 1.2740793e-7
-0.403, 1.8339422e-7, 1.0738811e-7
-0.404, 2.1042266e-7, 1.3454846e-7
-0.405, 1.3652735e-7, 1.1348970e-7
-0.406, 1.8332827e-7, 1.8314685e-7
-0.407, 1.4012234e-7, 2.1207173e-7
-0.408, 1.6283019e-7, 1.6251687e-7
-0.409, 1.3195940e-7, 1.6757953e-7
-0.410, 8.9017355e-8, 1.6523785e-7
-0.411, 1.6800830e-7, 1.7348326e-7
-0.412, 1.2849632e-7, 1.3817643e-7
-0.413, 1.7002019e-7, 1.5677806e-7
-0.414, 1.4816986e-7, 2.1322607e-7
-0.415, 1.6762901e-7, 1.9615810e-7
-0.416, 1.8776427e-7, 2.0610204e-7
-0.417, 1.3238815e-7, 1.3951220e-7
-0.418, 1.7988167e-7, 1.9429464e-7
-0.419, 1.5418900e-7, 1.8906704e-7
-0.420, 1.7021806e-7, 1.5832819e-7
-0.421, 1.6297861e-7, 1.7358219e-7
-0.422, 1.4287630e-7, 1.5758611e-7
-0.423, 1.8774779e-7, 1.8125041e-7
-0.424, 1.2221332e-7, 1.4699901e-7
-0.425, 1.4930772e-7, 1.1932744e-7
-0.426, 1.4996736e-7, 1.1175817e-7
-0.427, 1.5946605e-7, 1.3507616e-7
-0.428, 1.7252678e-7, 1.3730242e-7
-0.429, 1.3309727e-7, 1.5094032e-7
-0.430, 1.8685728e-7, 1.9866469e-7
-0.431, 2.0041271e-7, 1.5844364e-7
-0.432, 1.7925501e-7, 1.7786979e-7
-0.433, 1.6616131e-7, 1.7945291e-7
-0.434, 1.5377672e-7, 1.8540609e-7
-0.435, 1.7684737e-7, 2.0295231e-7
-0.436, 1.3479581e-7, 1.6324246e-7
-0.437, 1.2445609e-7, 2.3273469e-7
-0.438, 1.5156697e-7, 1.8657694e-7
-0.439, 1.6551819e-7, 1.9670230e-7
-0.440, 1.7876030e-7, 1.6154391e-7
-0.441, 1.3563685e-7, 1.1442967e-7
-0.442, 1.8618117e-7, 1.8167916e-7
-0.443, 1.9097999e-7, 1.3468038e-7
-0.444, 1.8860530e-7, 1.7974975e-7
-0.445, 1.7086120e-7, 1.8064026e-7
-0.446, 1.6939352e-7, 1.9657035e-7
-0.447, 1.9193646e-7, 2.0883954e-7
-0.448, 1.4091390e-7, 1.2033338e-7
-0.449, 1.7359869e-7, 1.4383278e-7
-0.450, 1.6010921e-7, 1.1602929e-7
-0.451, 1.6777743e-7, 1.3911639e-7
-0.452, 1.6678797e-7, 1.7648456e-7
-0.453, 1.4271140e-7, 1.4940666e-7
-0.454, 1.8232232e-7, 1.9271151e-7
-0.455, 1.3929781e-7, 1.5992781e-7
-0.456, 1.8421875e-7, 1.8496084e-7
-0.457, 1.7590739e-7, 1.7478602e-7
-0.458, 1.9620757e-7, 1.7651755e-7
-0.459, 2.0991142e-7, 2.3698932e-7
-0.460, 1.4607554e-7, 1.8985862e-7
-0.461, 1.9330518e-7, 2.3901768e-7
-0.462, 1.5610195e-7, 2.1462779e-7
-0.463, 1.7348324e-7, 1.5166592e-7
-0.464, 1.5733875e-7, 1.6947598e-7
-0.465, 1.1370408e-7, 1.5768505e-7
-0.466, 1.8934739e-7, 1.7864485e-7
-0.467, 1.4520151e-7, 1.6527082e-7
-0.468, 1.9355255e-7, 1.3924833e-7
-0.469, 1.7336779e-7, 1.7839750e-7
-0.470, 1.8435068e-7, 1.5470022e-7
-0.471, 2.3143193e-7, 1.2658339e-7
-0.472, 1.5684404e-7, 1.2437363e-7
-0.473, 1.9863172e-7, 1.6154391e-7
-0.474, 1.6891529e-7, 2.0123726e-7
-0.475, 1.8858881e-7, 1.9584476e-7
-0.476, 1.7592389e-7, 1.9825242e-7
-0.477, 1.4045217e-7, 1.8047534e-7
-0.478, 2.0699255e-7, 2.0390877e-7
-0.479, 1.4826880e-7, 1.6678797e-7
-0.480, 1.7218048e-7, 1.5123715e-7
-0.481, 1.8309737e-7, 1.9355254e-7
-0.482, 1.8169567e-7, 2.0484875e-7
-0.483, 2.0394175e-7, 2.2838114e-7
-0.484, 1.5771802e-7, 2.0094043e-7
-0.485, 2.0981248e-7, 2.2470367e-7
-0.486, 2.0051166e-7, 1.9013896e-7
-0.487, 1.9096349e-7, 1.7013561e-7
-0.488, 1.8862180e-7, 1.9464095e-7
-0.489, 1.7478602e-7, 1.8840743e-7
-0.490, 2.1184084e-7, 2.0532697e-7
-0.491, 1.5681104e-7, 1.6911318e-7
-0.492, 1.4650428e-7, 2.1388570e-7
-0.493, 1.7193311e-7, 1.6749708e-7
-0.494, 1.8674183e-7, 1.6578204e-7
-0.495, 2.0207828e-7, 1.3545545e-7
-0.496, 1.6856897e-7, 1.3529055e-7
-0.497, 2.1418255e-7, 1.7638561e-7
-0.498, 2.3665950e-7, 1.7363166e-7
-0.499, 2.1207173e-7, 2.3296558e-7
-0.500, 1.9937382e-7, 2.1449586e-7
