Jan. 27, 2006   23:20:20
Square Wave Voltammetry
File: z:\users\scottsaunders\git\labwork\ida\01_17_19_psoralen_nonequil_2\data\control\0um_control_transfer_swv_1.txt
Data Source:  Experiment
Instrument Model:  CHI760E
Header: 
Note: 

Init E (V) = 0.1
Final E (V) = -0.5
Incr E (V) = 0.001
Amplitude (V) = 0.025
Frequency (Hz) = 300
Quiet Time (sec) = 2
Sensitivity (A/V) = 1e-6
Sens 2 (A/V) = 1e-6

Potential/V, i1/A, i2/A

0.099, 1.0202860e-7, 1.0547517e-7
0.098, 8.7961936e-8, 9.8713940e-8
0.097, 1.1995409e-7, 1.0423836e-7
0.096, 9.7773970e-8, 9.0353105e-8
0.095, 1.0067635e-7, 5.3809487e-8
0.094, 1.2356558e-7, 1.2150423e-7
0.093, 8.9347168e-8, 1.0999366e-7
0.092, 1.1381952e-7, 1.0684391e-7
0.091, 9.2332002e-8, 1.0018162e-7
0.090, 1.1396793e-7, 9.3535832e-8
0.089, 1.2541256e-7, 1.0407346e-7
0.088, 9.5745598e-8, 7.1306225e-8
0.087, 1.1899763e-7, 9.7427659e-8
0.086, 7.8644632e-8, 1.0385907e-7
0.085, 1.2147126e-7, 1.4539941e-7
0.084, 1.0275419e-7, 1.0849299e-7
0.083, 1.0658006e-7, 8.4713250e-8
0.082, 1.1790924e-7, 1.0733864e-7
0.081, 9.3634782e-8, 7.4406501e-8
0.080, 1.1363812e-7, 1.0738810e-7
0.079, 8.7549665e-8, 8.3080657e-8
0.078, 1.0892175e-7, 1.1485844e-7
0.077, 1.1370408e-7, 1.1576543e-7
0.076, 9.8944817e-8, 1.0230893e-7
0.075, 1.1401741e-7, 6.0851065e-8
0.074, 8.4383444e-8, 8.5570775e-8
0.073, 1.1080170e-7, 1.1428126e-7
0.072, 9.3700734e-8, 9.7592576e-8
0.071, 1.0750354e-7, 1.1500686e-7
0.070, 1.1185712e-7, 1.1837098e-7
0.069, 9.3684250e-8, 9.3601798e-8
0.068, 1.1230237e-7, 6.6837224e-8
0.067, 8.5273939e-8, 5.1055526e-8
0.066, 1.0565657e-7, 1.1327532e-7
0.065, 1.0763547e-7, 1.2359857e-7
0.064, 1.0305102e-7, 1.2552800e-7
0.063, 1.0907017e-7, 1.0036302e-7
0.062, 8.8835954e-8, 9.6355762e-8
0.061, 1.1952534e-7, 5.8954619e-8
0.060, 8.9973817e-8, 7.9023927e-8
0.059, 1.0545868e-7, 8.8588592e-8
0.058, 1.1315989e-7, 1.2216387e-7
0.057, 9.4657203e-8, 1.2587429e-7
0.056, 1.1426477e-7, 7.5395945e-8
0.055, 8.3476444e-8, 6.9986967e-8
0.054, 1.0181422e-7, 6.6441444e-8
0.053, 1.0366118e-7, 1.0222648e-7
0.052, 9.9208670e-8, 8.6477769e-8
0.051, 1.0722320e-7, 1.0982875e-7
0.050, 8.3311534e-8, 1.2084460e-7
0.049, 1.1583140e-7, 8.0656513e-8
0.048, 9.5102465e-8, 8.0359676e-8
0.047, 9.7444151e-8, 5.1484285e-8
0.046, 1.0458466e-7, 1.0646463e-7
0.045, 8.7533181e-8, 9.2826724e-8
0.044, 1.1329181e-7, 1.0623375e-7
0.043, 8.0771947e-8, 9.7130830e-8
0.042, 1.0537623e-7, 9.8746924e-8
0.041, 1.0476607e-7, 1.0237490e-7
0.040, 9.3981086e-8, 5.4337200e-8
0.039, 1.1527072e-7, 1.2137231e-7
0.038, 8.0837921e-8, 9.6965920e-8
0.037, 1.1398443e-7, 1.2285648e-7
0.036, 8.7994920e-8, 9.7279248e-8
0.035, 1.0244086e-7, 8.5422357e-8
0.034, 1.0677795e-7, 1.1403390e-7
0.033, 9.1161155e-8, 5.4023872e-8
0.032, 1.1386899e-7, 9.6801010e-8
0.031, 8.0656513e-8, 8.5768662e-8
0.030, 1.0752003e-7, 1.2157020e-7
0.029, 9.6603117e-8, 9.9967238e-8
0.028, 9.2414453e-8, 7.7061515e-8
0.027, 1.1814011e-7, 8.3690821e-8
0.026, 8.3608370e-8, 6.5847779e-8
0.025, 1.1225289e-7, 9.9983730e-8
0.024, 8.1448079e-8, 9.5927000e-8
0.023, 1.0763547e-7, 1.0568955e-7
0.022, 1.1025750e-7, 1.1871730e-7
0.021, 9.6124886e-8, 8.5537792e-8
0.020, 1.1070276e-7, 8.5207972e-8
0.019, 8.7516689e-8, 6.6243558e-8
0.018, 1.1184063e-7, 1.1782678e-7
0.017, 9.1144663e-8, 9.5201401e-8
0.016, 9.2381477e-8, 9.6487682e-8
0.015, 1.1258270e-7, 1.0501343e-7
0.014, 8.3740296e-8, 8.6972491e-8
0.013, 1.1548509e-7, 7.6236972e-8
0.012, 8.2948731e-8, 4.1062098e-8
0.011, 1.0413942e-7, 1.0771792e-7
0.010, 1.0253981e-7, 9.7064870e-8
0.009, 8.6774598e-8, 1.0709127e-7
0.008, 1.0585446e-7, 8.8143338e-8
0.007, 7.5808217e-8, 7.9980396e-8
0.006, 1.1367110e-7, 1.1132941e-7
0.005, 8.9742947e-8, 6.4627457e-8
0.004, 9.3173043e-8, 8.9940841e-8
0.003, 1.0344681e-7, 9.5316835e-8
0.002, 8.4663782e-8, 1.1193956e-7
0.001, 1.1170869e-7, 9.7444151e-8
-0.000, 7.7968515e-8, 8.3113648e-8
-0.001, 1.1419881e-7, 7.8199385e-8
-0.002, 9.9274629e-8, 7.6665742e-8
-0.003, 9.3008126e-8, 1.0465062e-7
-0.004, 1.0405697e-7, 9.0468546e-8
-0.005, 8.4993601e-8, 1.1197255e-7
-0.006, 1.1177466e-7, 1.1020803e-7
-0.007, 8.9281201e-8, 8.4218527e-8
-0.008, 9.6636107e-8, 8.3773273e-8
-0.009, 1.0694285e-7, 6.5798304e-8
-0.010, 8.4630798e-8, 9.2661821e-8
-0.011, 1.0935052e-7, 9.4607728e-8
-0.012, 7.9831977e-8, 1.0413942e-7
-0.013, 1.0211104e-7, 1.0600288e-7
-0.014, 9.8219218e-8, 9.3354437e-8
-0.015, 9.2282534e-8, 7.5280518e-8
-0.016, 1.0791581e-7, 6.2483650e-8
-0.017, 8.4680273e-8, 1.0013216e-7
-0.018, 1.1032347e-7, 1.0649760e-7
-0.019, 8.7714582e-8, 1.0946594e-7
-0.020, 9.9835312e-8, 1.0611832e-7
-0.021, 9.9456031e-8, 9.7757479e-8
-0.022, 9.3090584e-8, 8.1530523e-8
-0.023, 1.1279710e-7, 5.3727032e-8
-0.024, 7.5280511e-8, 9.3420397e-8
-0.025, 1.0161632e-7, 1.0239140e-7
-0.026, 1.0181422e-7, 1.1866781e-7
-0.027, 8.7219853e-8, 8.3723805e-8
-0.028, 1.1187360e-7, 8.2041737e-8
-0.029, 8.2157179e-8, 9.0682924e-8
-0.030, 1.1728260e-7, 5.7387993e-8
-0.031, 8.9429619e-8, 9.0534499e-8
-0.032, 9.5729106e-8, 8.9512078e-8
-0.033, 1.1114801e-7, 1.2340067e-7
-0.034, 8.7533174e-8, 1.0930104e-7
-0.035, 1.1038944e-7, 8.6444786e-8
-0.036, 7.3235654e-8, 8.1497546e-8
-0.037, 1.0859194e-7, 6.1461222e-8
-0.038, 9.9917770e-8, 7.7688171e-8
-0.039, 8.9281201e-8, 7.7638695e-8
-0.040, 1.1076872e-7, 1.1759592e-7
-0.041, 8.1645965e-8, 1.2834791e-7
-0.042, 1.0568956e-7, 1.0869088e-7
-0.043, 8.3146631e-8, 7.9683559e-8
-0.044, 1.0310050e-7, 6.4742892e-8
-0.045, 1.1202202e-7, 6.5649886e-8
-0.046, 8.4416413e-8, 8.9066823e-8
-0.047, 1.0188018e-7, 9.5069481e-8
-0.048, 7.8166408e-8, 1.2005304e-7
-0.049, 1.0933402e-7, 1.0817967e-7
-0.050, 9.6866977e-8, 8.4696765e-8
-0.051, 9.2348493e-8, 6.7711234e-8
-0.052, 1.1238481e-7, 7.2922333e-8
-0.053, 7.8578672e-8, 1.0979576e-7
-0.054, 1.0235841e-7, 1.0592043e-7
-0.055, 7.3614949e-8, 1.0875684e-7
-0.056, 9.8565529e-8, 1.0692636e-7
-0.057, 1.0872385e-7, 9.6075411e-8
-0.058, 9.0303637e-8, 8.0046355e-8
-0.059, 1.0789933e-7, 5.1368851e-8
-0.060, 7.8595164e-8, 9.3601798e-8
-0.061, 1.0781686e-7, 1.1322585e-7
-0.062, 8.4268002e-8, 1.0641514e-7
-0.063, 7.8826034e-8, 9.9752860e-8
-0.064, 1.0918561e-7, 9.4030547e-8
-0.065, 8.8473151e-8, 9.5069481e-8
-0.066, 1.0852597e-7, 5.7684822e-8
-0.067, 8.0244249e-8, 9.4195464e-8
-0.068, 9.9472516e-8, 8.2833303e-8
-0.069, 1.0095668e-7, 1.1325883e-7
-0.070, 8.7104418e-8, 9.6570140e-8
-0.071, 1.0618428e-7, 8.2503490e-8
-0.072, 7.5923658e-8, 8.4251511e-8
-0.073, 1.0583797e-7, 5.4221758e-8
-0.074, 8.7731074e-8, 7.9254797e-8
-0.075, 9.0303644e-8, 7.9864954e-8
-0.076, 1.0690988e-7, 1.1429776e-7
-0.077, 8.5950056e-8, 1.2199897e-7
-0.078, 1.0636568e-7, 7.9568125e-8
-0.079, 8.0607037e-8, 7.4043705e-8
-0.080, 1.0507939e-7, 5.4716473e-8
-0.081, 9.6685575e-8, 6.5254106e-8
-0.082, 9.2826731e-8, 7.7308883e-8
-0.083, 9.9340596e-8, 1.0385907e-7
-0.084, 7.2971801e-8, 1.2389540e-7
-0.085, 1.1561701e-7, 9.7955365e-8
-0.086, 9.0946777e-8, 6.8321398e-8
-0.087, 9.2925667e-8, 4.8845759e-8
-0.088, 1.0667900e-7, 6.8964532e-8
-0.089, 8.1514038e-8, 1.0062688e-7
-0.090, 1.0506291e-7, 8.3773280e-8
-0.091, 7.4422999e-8, 9.2760772e-8
-0.092, 9.9736376e-8, 9.9554974e-8
-0.093, 1.0572254e-7, 8.7302304e-8
-0.094, 9.1342557e-8, 5.3595109e-8
-0.095, 1.0428783e-7, 5.7585879e-8
-0.096, 6.9228385e-8, 9.3370929e-8
-0.097, 1.0913612e-7, 9.1721844e-8
-0.098, 9.1260105e-8, 9.1622901e-8
-0.099, 8.8192806e-8, 9.2975149e-8
-0.100, 1.0849298e-7, 9.6883468e-8
-0.101, 8.0046355e-8, 8.6378819e-8
-0.102, 1.0860843e-7, 4.9472408e-8
-0.103, 7.3730376e-8, 8.5026578e-8
-0.104, 9.8713947e-8, 9.2826724e-8
-0.105, 9.6339271e-8, 1.1271463e-7
-0.106, 8.7698083e-8, 8.6593204e-8
-0.107, 1.0930104e-7, 1.0155036e-7
-0.108, 7.9073395e-8, 8.6758106e-8
-0.109, 1.0669549e-7, 6.1527189e-8
-0.110, 9.4113012e-8, 8.6296367e-8
-0.111, 9.9357081e-8, 9.1128179e-8
-0.112, 1.0018163e-7, 1.2030041e-7
-0.113, 8.6906532e-8, 1.1213746e-7
-0.114, 1.0470011e-7, 6.8568752e-8
-0.115, 8.0590553e-8, 8.8225789e-8
-0.116, 1.0011566e-7, 6.6358986e-8
-0.117, 8.6131465e-8, 8.4498872e-8
-0.118, 8.4251511e-8, 8.1283162e-8
-0.119, 1.1192308e-7, 1.2270806e-7
-0.120, 7.9221813e-8, 1.2991454e-7
-0.121, 1.0974629e-7, 7.2130767e-8
-0.122, 7.7787121e-8, 7.0399238e-8
-0.123, 1.0341383e-7, 5.3100386e-8
-0.124, 1.0750354e-7, 6.1543673e-8
-0.125, 8.3245567e-8, 9.8779907e-8
-0.126, 1.1012558e-7, 8.8407191e-8
-0.127, 8.2585942e-8, 1.2630306e-7
-0.128, 1.0531026e-7, 1.1527071e-7
-0.129, 1.0150088e-7, 7.8941468e-8
-0.130, 9.3090577e-8, 6.6523896e-8
-0.131, 1.1088416e-7, 8.7615632e-8
-0.132, 7.2147266e-8, 1.0900420e-7
-0.133, 1.1126345e-7, 8.4218534e-8
-0.134, 7.3763360e-8, 1.0773442e-7
-0.135, 1.0333137e-7, 8.5653234e-8
-0.136, 1.0926806e-7, 9.2859715e-8
-0.137, 8.9215234e-8, 8.7994920e-8
-0.138, 1.0275419e-7, 4.7955250e-8
-0.139, 8.2404540e-8, 1.0072582e-7
-0.140, 1.1165923e-7, 9.9752860e-8
-0.141, 8.5834628e-8, 9.9901278e-8
-0.142, 9.1523951e-8, 7.8364295e-8
-0.143, 1.1202201e-7, 9.9538482e-8
-0.144, 8.3806263e-8, 9.0122235e-8
-0.145, 1.1522123e-7, 6.2038396e-8
-0.146, 7.7671679e-8, 8.2734360e-8
-0.147, 9.8961308e-8, 9.0798352e-8
-0.148, 1.0092371e-7, 1.3712103e-7
-0.149, 9.5382802e-8, 9.4706671e-8
-0.150, 1.0130300e-7, 8.6560220e-8
-0.151, 8.9990309e-8, 8.2536474e-8
-0.152, 1.1086767e-7, 5.6415040e-8
-0.153, 9.1326065e-8, 9.5630163e-8
-0.154, 1.0052793e-7, 6.8222455e-8
-0.155, 1.0214403e-7, 1.0755301e-7
-0.156, 7.4620878e-8, 1.0864140e-7
-0.157, 1.1688681e-7, 8.9825392e-8
-0.158, 7.8100435e-8, 8.3031189e-8
-0.159, 1.0994418e-7, 6.5583919e-8
-0.160, 1.0318295e-7, 1.1334129e-7
-0.161, 8.7895970e-8, 8.8225796e-8
-0.162, 1.0346329e-7, 1.0260577e-7
-0.163, 7.8743582e-8, 1.0578850e-7
-0.164, 1.1127994e-7, 8.6890040e-8
-0.165, 8.4498872e-8, 7.4505444e-8
-0.166, 9.1474490e-8, 5.4996832e-8
-0.167, 1.0310049e-7, 1.1266516e-7
-0.168, 8.5488324e-8, 8.9462603e-8
-0.169, 1.1446267e-7, 1.1307743e-7
-0.170, 7.4406501e-8, 1.1396794e-7
-0.171, 1.1114801e-7, 9.4822113e-8
-0.172, 1.0295208e-7, 9.7790455e-8
-0.173, 9.0798352e-8, 4.3865537e-8
-0.174, 1.1779380e-7, 9.5151933e-8
-0.175, 7.6913096e-8, 9.5861033e-8
-0.176, 1.1571596e-7, 1.2450556e-7
-0.177, 8.7302311e-8, 1.0793230e-7
-0.178, 9.4888073e-8, 7.5626822e-8
-0.179, 1.1156028e-7, 9.1144670e-8
-0.180, 8.3971173e-8, 3.9231619e-8
-0.181, 1.1254973e-7, 6.5550935e-8
-0.182, 7.6995562e-8, 9.1062205e-8
-0.183, 1.0923507e-7, 1.1888219e-7
-0.184, 9.7477134e-8, 1.2094354e-7
-0.185, 9.7790455e-8, 6.4808852e-8
-0.186, 1.1317638e-7, 1.0413942e-7
-0.187, 7.9815486e-8, 7.6500832e-8
-0.188, 1.0958138e-7, 7.4967190e-8
-0.189, 8.3410484e-8, 8.4680273e-8
-0.190, 1.0448574e-7, 1.0560709e-7
-0.191, 1.1284656e-7, 1.3448249e-7
-0.192, 8.4515364e-8, 9.3915119e-8
-0.193, 1.1891517e-7, 8.0936857e-8
-0.194, 8.5504809e-8, 4.6998782e-8
-0.195, 1.1037294e-7, 7.0778526e-8
-0.196, 1.0202860e-7, 8.6081982e-8
-0.197, 9.1276590e-8, 9.0155226e-8
-0.198, 1.1342375e-7, 1.3319621e-7
-0.199, 7.9073402e-8, 8.8275264e-8
-0.200, 1.1352269e-7, 9.6256812e-8
-0.201, 8.3938190e-8, 6.8700672e-8
-0.202, 1.0559061e-7, 5.5046304e-8
-0.203, 1.1400093e-7, 1.1759591e-7
-0.204, 8.5389374e-8, 9.0105743e-8
-0.205, 1.1614473e-7, 1.1466056e-7
-0.206, 8.0755456e-8, 1.0521133e-7
-0.207, 1.1982218e-7, 1.0583797e-7
-0.208, 9.1787804e-8, 8.0359676e-8
-0.209, 9.1507459e-8, 6.3984317e-8
-0.210, 1.1334129e-7, 1.0620076e-7
-0.211, 8.0161790e-8, 9.9950753e-8
-0.212, 1.0875684e-7, 1.1630963e-7
-0.213, 8.2585935e-8, 9.0897302e-8
-0.214, 1.0885579e-7, 8.7961936e-8
-0.215, 1.1029049e-7, 8.7104425e-8
-0.216, 1.0069284e-7, 4.9010666e-8
-0.217, 1.1230236e-7, 1.0250682e-7
-0.218, 7.6533809e-8, 9.4690193e-8
-0.219, 1.1119748e-7, 1.1782677e-7
-0.220, 9.0963262e-8, 1.0351277e-7
-0.221, 1.0376013e-7, 7.5115608e-8
-0.222, 1.0682742e-7, 1.0740460e-7
-0.223, 9.2364985e-8, 6.5567427e-8
-0.224, 1.1200553e-7, 9.1688875e-8
-0.225, 8.2833296e-8, 8.7961944e-8
-0.226, 1.1246728e-7, 1.2181756e-7
-0.227, 9.9538475e-8, 1.2275754e-7
-0.228, 1.0239140e-7, 7.9980389e-8
-0.229, 1.1894816e-7, 9.8004833e-8
-0.230, 8.2058236e-8, 7.0448706e-8
-0.231, 1.2475290e-7, 1.0456817e-7
-0.232, 8.6659163e-8, 8.9973810e-8
-0.233, 1.0438678e-7, 1.0875683e-7
-0.234, 1.1123046e-7, 1.4523449e-7
-0.235, 9.3370915e-8, 8.6180933e-8
-0.236, 1.1990463e-7, 8.9561546e-8
-0.237, 8.0936857e-8, 5.2308820e-8
-0.238, 1.1142835e-7, 1.0389206e-7
-0.239, 1.0092371e-7, 1.1350620e-7
-0.240, 9.5514729e-8, 1.0016514e-7
-0.241, 1.1672190e-7, 1.2501677e-7
-0.242, 8.3344517e-8, 1.0877334e-7
-0.243, 1.2465398e-7, 9.2810247e-8
-0.244, 9.2661814e-8, 5.2143914e-8
-0.245, 9.9505513e-8, 6.6391969e-8
-0.246, 1.0928455e-7, 1.2252667e-7
-0.247, 9.2529902e-8, 1.0260577e-7
-0.248, 1.1353917e-7, 1.2651743e-7
-0.249, 8.5669726e-8, 8.7252843e-8
-0.250, 1.1805766e-7, 9.9587965e-8
-0.251, 1.1447916e-7, 1.0201209e-7
-0.252, 1.0041251e-7, 6.0785105e-8
-0.253, 1.2526414e-7, 1.2132283e-7
-0.254, 8.4564832e-8, 1.0057740e-7
-0.255, 1.2244422e-7, 1.3726945e-7
-0.256, 8.8852445e-8, 9.2942152e-8
-0.257, 1.1428126e-7, 9.2744273e-8
-0.258, 1.1845344e-7, 1.0814668e-7
-0.259, 9.8037816e-8, 6.3341176e-8
-0.260, 1.1901412e-7, 1.0286963e-7
-0.261, 8.5933564e-8, 1.0062687e-7
-0.262, 1.2490133e-7, 1.3072260e-7
-0.263, 1.0387556e-7, 1.3195940e-7
-0.264, 1.0049496e-7, 8.7483699e-8
-0.265, 1.2602271e-7, 1.0573903e-7
-0.266, 8.9808907e-8, 7.6517324e-8
-0.267, 1.1485844e-7, 7.3730384e-8
-0.268, 8.8242281e-8, 9.5498223e-8
-0.269, 1.0511238e-7, 1.1820607e-7
-0.270, 1.2063022e-7, 1.4304122e-7
-0.271, 1.0206158e-7, 1.1182413e-7
-0.272, 1.2998051e-7, 8.6923009e-8
-0.273, 8.7120910e-8, 1.0827861e-7
-0.274, 1.2346665e-7, 7.6286447e-8
-0.275, 1.0715723e-7, 1.0410643e-7
-0.276, 1.0141844e-7, 8.9825392e-8
-0.277, 1.2659990e-7, 1.3222325e-7
-0.278, 8.7895984e-8, 1.1231886e-7
-0.279, 1.2894159e-7, 1.0004970e-7
-0.280, 8.7236344e-8, 8.6147949e-8
-0.281, 1.1782678e-7, 6.8271930e-8
-0.282, 1.1734856e-7, 1.1571596e-7
-0.283, 1.0057741e-7, 1.0290260e-7
-0.284, 1.3200886e-7, 1.0798177e-7
-0.285, 9.0204693e-8, 1.3618104e-7
-0.286, 1.2246070e-7, 1.2556097e-7
-0.287, 1.0255630e-7, 1.0265525e-7
-0.288, 1.0522781e-7, 6.9145926e-8
-0.289, 1.1962427e-7, 9.6157862e-8
-0.290, 9.0089259e-8, 1.2021795e-7
-0.291, 1.2137231e-7, 1.0390855e-7
-0.292, 9.5020006e-8, 1.2244421e-7
-0.293, 1.2285648e-7, 1.1936044e-7
-0.294, 1.2124038e-7, 1.0273770e-7
-0.295, 1.0577202e-7, 9.2150600e-8
-0.296, 1.2533010e-7, 6.0010038e-8
-0.297, 1.0596990e-7, 1.0977928e-7
-0.298, 1.2696270e-7, 1.0664602e-7
-0.299, 1.0623374e-7, 1.1942639e-7
-0.300, 1.1116450e-7, 1.2130634e-7
-0.301, 1.1751347e-7, 1.0755301e-7
-0.302, 9.5646655e-8, 1.0295207e-7
-0.303, 1.2666585e-7, 7.8446753e-8
-0.304, 9.6998903e-8, 6.5930223e-8
-0.305, 1.1386899e-7, 1.1731557e-7
-0.306, 1.0925156e-7, 1.1221991e-7
-0.307, 1.1113151e-7, 1.0420539e-7
-0.308, 1.1607877e-7, 1.1057083e-7
-0.309, 9.7147307e-8, 9.6833986e-8
-0.310, 1.3190994e-7, 1.1408336e-7
-0.311, 1.0740459e-7, 5.9597767e-8
-0.312, 1.1220342e-7, 1.0996067e-7
-0.313, 1.2782020e-7, 1.2239474e-7
-0.314, 1.0671198e-7, 1.1716716e-7
-0.315, 1.3512563e-7, 1.3453197e-7
-0.316, 9.4838605e-8, 9.2183576e-8
-0.317, 1.2691321e-7, 1.0796528e-7
-0.318, 1.1438019e-7, 7.7358344e-8
-0.319, 1.1865133e-7, 6.4215193e-8
-0.320, 1.2909000e-7, 1.2897456e-7
-0.321, 9.5811572e-8, 1.1352269e-7
-0.322, 1.3428460e-7, 1.6246739e-7
-0.323, 1.0224298e-7, 1.1386899e-7
-0.324, 1.1850290e-7, 1.0832809e-7
-0.325, 1.2857878e-7, 1.2288946e-7
-0.326, 1.0575553e-7, 5.9762669e-8
-0.327, 1.3913291e-7, 1.1210449e-7
-0.328, 1.0049495e-7, 9.8532553e-8
-0.329, 1.2640200e-7, 1.3001350e-7
-0.330, 1.1861835e-7, 1.2988157e-7
-0.331, 1.1663944e-7, 8.4977103e-8
-0.332, 1.3339410e-7, 1.2570939e-7
-0.333, 1.0478256e-7, 8.0310201e-8
-0.334, 1.3525755e-7, 9.3964594e-8
-0.335, 1.0946594e-7, 1.0374364e-7
-0.336, 1.3087100e-7, 1.2592376e-7
-0.337, 1.3477933e-7, 1.5699246e-7
-0.338, 1.0601936e-7, 8.7087926e-8
-0.339, 1.3624701e-7, 9.5217892e-8
-0.340, 1.0458467e-7, 9.3717233e-8
-0.341, 1.4010585e-7, 9.4871581e-8
-0.342, 1.1162624e-7, 1.2658340e-7
-0.343, 1.0992770e-7, 1.1597980e-7
-0.344, 1.3741786e-7, 1.2676480e-7
-0.345, 1.1510581e-7, 1.3497723e-7
-0.346, 1.3684068e-7, 1.0623376e-7
-0.347, 1.1390198e-7, 1.0174826e-7
-0.348, 1.2104249e-7, 7.7045023e-8
-0.349, 1.3482880e-7, 1.2303786e-7
-0.350, 1.1060381e-7, 1.1728260e-7
-0.351, 1.4281035e-7, 1.1530369e-7
-0.352, 9.3354444e-8, 1.3270149e-7
-0.353, 1.3723646e-7, 1.1660646e-7
-0.354, 1.2133933e-7, 1.1726609e-7
-0.355, 1.1957481e-7, 7.0234336e-8
-0.356, 1.4599307e-7, 7.7523268e-8
-0.357, 1.1289603e-7, 1.2349962e-7
-0.358, 1.3921535e-7, 1.3283341e-7
-0.359, 1.1388548e-7, 1.4518503e-7
-0.360, 1.3416917e-7, 1.2628655e-7
-0.361, 1.3708804e-7, 1.2132283e-7
-0.362, 1.1978918e-7, 1.1517176e-7
-0.363, 1.3466389e-7, 8.2388055e-8
-0.364, 1.0697584e-7, 1.2333470e-7
-0.365, 1.3989148e-7, 1.2541256e-7
-0.366, 1.1916254e-7, 1.4823583e-7
-0.367, 1.3049173e-7, 1.1383601e-7
-0.368, 1.4046864e-7, 1.1454511e-7
-0.369, 1.2432416e-7, 1.1781030e-7
-0.370, 1.3947921e-7, 8.5306922e-8
-0.371, 1.1759591e-7, 1.2506625e-7
-0.372, 1.2945280e-7, 1.3111838e-7
-0.373, 1.2922193e-7, 1.5771803e-7
-0.374, 1.2437363e-7, 1.5192975e-7
-0.375, 1.3626351e-7, 1.0717372e-7
-0.376, 1.1266516e-7, 1.2793565e-7
-0.377, 1.5291920e-7, 1.0773442e-7
-0.378, 1.2627007e-7, 9.4310899e-8
-0.379, 1.3581825e-7, 1.2854579e-7
-0.380, 1.4084793e-7, 1.3669226e-7
-0.381, 1.2508274e-7, 1.5374374e-7
-0.382, 1.5130313e-7, 1.3350953e-7
-0.383, 1.1789274e-7, 1.1782679e-7
-0.384, 1.3707155e-7, 1.2815002e-7
-0.385, 1.4243106e-7, 1.0362819e-7
-0.386, 1.3710454e-7, 1.1451213e-7
-0.387, 1.4810389e-7, 1.2679779e-7
-0.388, 1.1477599e-7, 1.4810391e-7
-0.389, 1.5542582e-7, 1.4642183e-7
-0.390, 1.2716058e-7, 1.0249033e-7
-0.391, 1.4211773e-7, 1.1550159e-7
-0.392, 1.5207817e-7, 1.1162625e-7
-0.393, 1.3171203e-7, 1.2112494e-7
-0.394, 1.5214414e-7, 1.3039276e-7
-0.395, 1.1881624e-7, 1.4404716e-7
-0.396, 1.4950561e-7, 1.7152084e-7
-0.397, 1.5080838e-7, 1.4742778e-7
-0.398, 1.3964410e-7, 1.1358865e-7
-0.399, 1.6330841e-7, 1.5062699e-7
-0.400, 1.2570939e-7, 1.1543561e-7
-0.401, 1.5725631e-7, 1.5085786e-7
-0.402, 1.1988814e-7, 1.2719356e-7
-0.403, 1.5026420e-7, 1.6517188e-7
-0.404, 1.5461777e-7, 1.5234204e-7
-0.405, 1.3370743e-7, 1.1959131e-7
-0.406, 1.5677806e-7, 1.2244421e-7
-0.407, 1.3134924e-7, 8.9099792e-8
-0.408, 1.5009928e-7, 1.5855906e-7
-0.409, 1.4439347e-7, 1.4099636e-7
-0.410, 1.4732883e-7, 1.5196274e-7
-0.411, 1.5728926e-7, 1.8837443e-7
-0.412, 1.2965070e-7, 1.3923184e-7
-0.413, 1.6370419e-7, 1.3433407e-7
-0.414, 1.2145475e-7, 1.1238483e-7
-0.415, 1.5301815e-7, 1.1894816e-7
-0.416, 1.6156039e-7, 1.4948913e-7
-0.417, 1.4243106e-7, 1.3705505e-7
-0.418, 1.6332491e-7, 1.5780049e-7
-0.419, 1.3565335e-7, 1.5397463e-7
-0.420, 1.6062042e-7, 1.4673518e-7
-0.421, 1.4549835e-7, 1.4449242e-7
-0.422, 1.5216062e-7, 9.5943484e-8
-0.423, 1.7979923e-7, 1.6169233e-7
-0.424, 1.4455837e-7, 1.4958806e-7
-0.425, 1.7321939e-7, 1.5039610e-7
-0.426, 1.3692312e-7, 1.5498057e-7
-0.427, 1.6235197e-7, 1.3867117e-7
-0.428, 1.6324246e-7, 1.5181433e-7
-0.429, 1.5463425e-7, 1.0763547e-7
-0.430, 1.7440674e-7, 1.3238817e-7
-0.431, 1.3570282e-7, 1.5349639e-7
-0.432, 1.7175171e-7, 1.6433084e-7
-0.433, 1.5100629e-7, 1.8007958e-7
-0.434, 1.5445286e-7, 1.4449242e-7
-0.435, 1.7127347e-7, 1.5065997e-7
-0.436, 1.4792249e-7, 1.4053461e-7
-0.437, 1.7285657e-7, 1.2044882e-7
-0.438, 1.4897790e-7, 1.4515204e-7
-0.439, 1.7160329e-7, 1.6099969e-7
-0.440, 1.6381962e-7, 1.9838436e-7
-0.441, 1.5931764e-7, 1.6024111e-7
-0.442, 1.7887574e-7, 1.3839082e-7
-0.443, 1.5573914e-7, 1.4680111e-7
-0.444, 1.7625369e-7, 1.1251675e-7
-0.445, 1.6090075e-7, 1.5385919e-7
-0.446, 1.6530380e-7, 1.4808741e-7
-0.447, 1.7320291e-7, 1.8761585e-7
-0.448, 1.5580511e-7, 1.9495427e-7
-0.449, 1.8454858e-7, 1.3660981e-7
-0.450, 1.5575563e-7, 1.5503004e-7
-0.451, 1.8395490e-7, 1.3092048e-7
-0.452, 1.7790278e-7, 1.4546538e-7
-0.453, 1.7277414e-7, 1.5089083e-7
-0.454, 1.7956835e-7, 1.6993772e-7
-0.455, 1.6078533e-7, 2.0273794e-7
-0.456, 1.9279398e-7, 1.6942651e-7
-0.457, 1.7368113e-7, 1.5159995e-7
-0.458, 1.7496743e-7, 1.6728271e-7
-0.459, 1.8890213e-7, 1.4792251e-7
-0.460, 1.6485853e-7, 1.7415937e-7
-0.461, 1.9356904e-7, 1.6894828e-7
-0.462, 1.5844363e-7, 1.7758946e-7
-0.463, 1.8954529e-7, 1.8802814e-7
-0.464, 1.8842391e-7, 1.5786645e-7
-0.465, 1.8278405e-7, 1.5117119e-7
-0.466, 1.9401429e-7, 1.3075558e-7
-0.467, 1.7102612e-7, 1.8220688e-7
-0.468, 1.9564688e-7, 1.9236522e-7
-0.469, 1.7542915e-7, 1.7859540e-7
-0.470, 1.9196943e-7, 1.9650440e-7
-0.471, 1.9775770e-7, 1.8819303e-7
-0.472, 1.8045884e-7, 1.6170880e-7
-0.473, 1.9945625e-7, 1.2683077e-7
-0.474, 1.7786981e-7, 1.5148451e-7
-0.475, 1.9530059e-7, 1.8680781e-7
-0.476, 1.9142524e-7, 1.7605581e-7
-0.477, 1.8383946e-7, 1.9780720e-7
-0.478, 2.1131314e-7, 1.8690675e-7
-0.479, 1.8210793e-7, 1.8146480e-7
-0.480, 2.1057106e-7, 1.6893179e-7
-0.481, 1.8003009e-7, 1.3243763e-7
-0.482, 2.1589759e-7, 1.9602616e-7
-0.483, 2.1850313e-7, 1.8791269e-7
-0.484, 1.8652747e-7, 2.0336458e-7
-0.485, 2.0621749e-7, 1.8667588e-7
-0.486, 1.8720360e-7, 1.7293905e-7
-0.487, 2.1751369e-7, 1.9879663e-7
-0.488, 1.9980256e-7, 1.4241456e-7
-0.489, 2.0057760e-7, 1.8519172e-7
-0.490, 2.1705195e-7, 1.7468707e-7
-0.491, 1.9685072e-7, 2.0395825e-7
-0.492, 2.1635933e-7, 2.1583162e-7
-0.493, 1.8578537e-7, 1.5526091e-7
-0.494, 2.1076896e-7, 1.8482891e-7
-0.495, 2.2119113e-7, 1.6172530e-7
-0.496, 2.0046218e-7, 1.5138556e-7
-0.497, 2.3223996e-7, 1.8515874e-7
-0.498, 1.8461454e-7, 1.8982563e-7
-0.499, 2.3027755e-7, 2.5324925e-7
-0.500, 2.0326563e-7, 1.8792920e-7
