Jan. 28, 2006   02:55:16
Cyclic Voltammetry
File: z:\users\scottsaunders\git\labwork\ida\01_17_19_psoralen_nonequil_2\data\psoralen\3\75um_psoralen_transfer_3_gc_1.txt
Data Source:  Experiment
Instrument Model:  CHI760E
Header: 
Note: 

Init E (V) = 0
High E (V) = 0
Low E (V) = -0.4
Init P/N = N
Scan Rate (V/s) = 0.003
Segment = 1
Sample Interval (V) = 0.001
Quiet Time (sec) = 2
Sensitivity (A/V) = 1e-7
2nd E (V) = 0
Sens 2 (A/V) = 1e-7

Potential/V, i1/A, i2/A, Time/s

0.000, -2.8384754e-8, -3.2728188e-8, 3.3333334e-1
-0.001, -2.3541563e-8, -2.9812838e-8, 6.6666669e-1
-0.002, -2.0931122e-8, -2.7477881e-8, 1.0000000e+0
-0.003, -1.8928086e-8, -2.5551611e-8, 1.3333334e+0
-0.004, -1.7254914e-8, -2.3938878e-8, 1.6666667e+0
-0.005, -1.5862000e-8, -2.2547857e-8, 2.0000000e+0
-0.006, -1.4623804e-8, -2.1340847e-8, 2.3333333e+0
-0.007, -1.3555438e-8, -2.0290786e-8, 2.6666665e+0
-0.008, -1.2617695e-8, -1.9356428e-8, 2.9999998e+0
-0.009, -1.1749754e-8, -1.8533632e-8, 3.3333330e+0
-0.010, -1.1008891e-8, -1.7785295e-8, 3.6666663e+0
-0.011, -1.0296490e-8, -1.7107039e-8, 3.9999995e+0
-0.012, -9.6418429e-9, -1.6491656e-8, 4.3333330e+0
-0.013, -9.0855741e-9, -1.5926977e-8, 4.6666665e+0
-0.014, -8.5235197e-9, -1.5405314e-8, 5.0000000e+0
-0.015, -8.0091782e-9, -1.4923598e-8, 5.3333335e+0
-0.016, -7.5419617e-9, -1.4468355e-8, 5.6666670e+0
-0.017, -7.0697830e-9, -1.4056367e-8, 6.0000005e+0
-0.018, -6.6707111e-9, -1.3669434e-8, 6.3333340e+0
-0.019, -6.2669159e-9, -1.3314411e-8, 6.6666675e+0
-0.020, -5.8733947e-9, -1.2984561e-8, 7.0000010e+0
-0.021, -5.5414056e-9, -1.2671610e-8, 7.3333344e+0
-0.022, -5.2075273e-9, -1.2381234e-8, 7.6666679e+0
-0.023, -4.8757745e-9, -1.2105393e-8, 8.0000010e+0
-0.024, -4.5744923e-9, -1.1843616e-8, 8.3333340e+0
-0.025, -4.2695487e-9, -1.1600040e-8, 8.6666670e+0
-0.026, -4.0186974e-9, -1.1360718e-8, 9.0000000e+0
-0.027, -3.7357206e-9, -1.1144914e-8, 9.3333330e+0
-0.028, -3.4887664e-9, -1.0927103e-8, 9.6666660e+0
-0.029, -3.2659053e-9, -1.0729972e-8, 9.9999990e+0
-0.030, -3.0100931e-9, -1.0542298e-8, 1.0333332e+1
-0.031, -2.7793186e-9, -1.0364549e-8, 1.0666665e+1
-0.032, -2.5611817e-9, -1.0186210e-8, 1.0999998e+1
-0.033, -2.3256832e-9, -1.0024889e-8, 1.1333331e+1
-0.034, -2.1420321e-9, -9.8724326e-9, 1.1666664e+1
-0.035, -1.9396027e-9, -9.7158397e-9, 1.1999997e+1
-0.036, -1.7137886e-9, -9.5718917e-9, 1.2333330e+1
-0.037, -1.5460817e-9, -9.4330259e-9, 1.2666663e+1
-0.038, -1.3586514e-9, -9.3036157e-9, 1.2999996e+1
-0.039, -1.1787797e-9, -9.1726680e-9, 1.3333329e+1
-0.040, -1.0081201e-9, -9.0517656e-9, 1.3666662e+1
-0.041, -8.2281570e-10, -8.9337009e-9, 1.3999995e+1
-0.042, -6.8794143e-10, -8.8215444e-9, 1.4333328e+1
-0.043, -5.2023441e-10, -8.7099794e-9, 1.4666661e+1
-0.044, -3.4166192e-10, -8.6108232e-9, 1.4999994e+1
-0.045, -2.0832305e-10, -8.5069400e-9, 1.5333327e+1
-0.046, -5.0300535e-11, -8.4036467e-9, 1.5666660e+1
-0.047, 9.8982329e-11, -8.3124094e-9, 1.5999993e+1
-0.048, 2.2865999e-10, -8.2169178e-9, 1.6333326e+1
-0.049, 3.8762735e-10, -8.1328881e-9, 1.6666660e+1
-0.050, 5.1494298e-10, -8.0443687e-9, 1.6999994e+1
-0.051, 6.4946287e-10, -7.9564400e-9, 1.7333328e+1
-0.052, 7.8433704e-10, -7.8795033e-9, 1.7666662e+1
-0.053, 8.8590607e-10, -7.8004385e-9, 1.7999996e+1
-0.054, 1.0093243e-9, -7.7300015e-9, 1.8333330e+1
-0.055, 1.1347503e-9, -7.6585005e-9, 1.8666664e+1
-0.056, 1.2360831e-9, -7.5924351e-9, 1.8999998e+1
-0.057, 1.3884366e-9, -7.5171522e-9, 1.9333332e+1
-0.058, 1.4596531e-9, -7.4506152e-9, 1.9666666e+1
-0.059, 1.5329953e-9, -7.4058235e-9, 2.0000000e+1
-0.060, 1.6653894e-9, -7.3396409e-9, 2.0333334e+1
-0.061, 1.7361333e-9, -7.2793669e-9, 2.0666668e+1
-0.062, 1.8420723e-9, -7.2177930e-9, 2.1000002e+1
-0.063, 1.9451765e-9, -7.1669741e-9, 2.1333336e+1
-0.064, 2.0147397e-9, -7.1100104e-9, 2.1666670e+1
-0.065, 2.1106397e-9, -7.0658097e-9, 2.2000004e+1
-0.066, 2.1974458e-9, -7.0047079e-9, 2.2333338e+1
-0.067, 2.2359476e-9, -6.9671260e-9, 2.2666672e+1
-0.068, 2.3348001e-9, -6.9127619e-9, 2.3000006e+1
-0.069, 2.3885371e-9, -6.8643065e-9, 2.3333340e+1
-0.070, 2.4791227e-9, -6.8143144e-9, 2.3666674e+1
-0.071, 2.5346314e-9, -6.7735413e-9, 2.4000008e+1
-0.072, 2.6007694e-9, -6.7308767e-9, 2.4333342e+1
-0.073, 2.6806073e-9, -6.6941217e-9, 2.4666676e+1
-0.074, 2.7154479e-9, -6.6509851e-9, 2.5000010e+1
-0.075, 2.8008367e-9, -6.6113937e-9, 2.5333344e+1
-0.076, 2.8813834e-9, -6.5692025e-9, 2.5666677e+1
-0.077, 2.9234282e-9, -6.5310286e-9, 2.6000011e+1
-0.078, 2.9999592e-9, -6.4938011e-9, 2.6333345e+1
-0.079, 3.0751912e-9, -6.4523182e-9, 2.6666679e+1
-0.080, 3.1216056e-9, -6.4152084e-9, 2.7000013e+1
-0.081, 3.2149077e-9, -6.3782180e-9, 2.7333347e+1
-0.082, 3.2537635e-9, -6.3485532e-9, 2.7666681e+1
-0.083, 3.3249798e-9, -6.3121530e-9, 2.8000015e+1
-0.084, 3.3952516e-9, -6.2844978e-9, 2.8333349e+1
-0.085, 3.4311551e-9, -6.2571974e-9, 2.8666683e+1
-0.086, 3.4917427e-9, -6.2231607e-9, 2.9000017e+1
-0.087, 3.5496130e-9, -6.1932597e-9, 2.9333351e+1
-0.088, 3.5983898e-9, -6.1598140e-9, 2.9666685e+1
-0.089, 3.6712595e-9, -6.1320411e-9, 3.0000019e+1
-0.090, 3.7051551e-9, -6.1040315e-9, 3.0333353e+1
-0.091, 3.7650336e-9, -6.0734222e-9, 3.0666687e+1
-0.092, 3.8311718e-9, -6.0442309e-9, 3.1000021e+1
-0.093, 3.8660124e-9, -6.0220118e-9, 3.1333355e+1
-0.094, 3.9397090e-9, -5.9949481e-9, 3.1666689e+1
-0.095, 4.0096264e-9, -5.9685932e-9, 3.2000023e+1
-0.096, 4.0625370e-9, -5.9350289e-9, 3.2333355e+1
-0.097, 4.1446189e-9, -5.9100924e-9, 3.2666687e+1
-0.098, 4.1864272e-9, -5.8852736e-9, 3.3000019e+1
-0.099, 4.2576436e-9, -5.8632916e-9, 3.3333351e+1
-0.100, 4.3427963e-9, -5.8341003e-9, 3.3666683e+1
-0.101, 4.3962971e-9, -5.8109362e-9, 3.4000015e+1
-0.102, 4.4904258e-9, -5.7884817e-9, 3.4333347e+1
-0.103, 4.5606972e-9, -5.7679177e-9, 3.4666679e+1
-0.104, 4.6105368e-9, -5.7525540e-9, 3.5000011e+1
-0.105, 4.6940363e-9, -5.7230074e-9, 3.5333344e+1
-0.106, 4.7503712e-9, -5.6977165e-9, 3.5666676e+1
-0.107, 4.8330442e-9, -5.6754983e-9, 3.6000008e+1
-0.108, 4.9203224e-9, -5.6611977e-9, 3.6333340e+1
-0.109, 4.9874052e-9, -5.6400427e-9, 3.6666672e+1
-0.110, 5.0751563e-9, -5.6161698e-9, 3.7000004e+1
-0.111, 5.1616076e-9, -5.5986784e-9, 3.7333336e+1
-0.112, 5.2191242e-9, -5.5835514e-9, 3.7666668e+1
-0.113, 5.3262443e-9, -5.5633413e-9, 3.8000000e+1
-0.114, 5.3861227e-9, -5.5471507e-9, 3.8333332e+1
-0.115, 5.4692677e-9, -5.5268234e-9, 3.8666664e+1
-0.116, 5.5717817e-9, -5.5098046e-9, 3.8999996e+1
-0.117, 5.6418168e-9, -5.4880589e-9, 3.9333328e+1
-0.118, 5.7333471e-9, -5.4726947e-9, 3.9666660e+1
-0.119, 5.8326726e-9, -5.4513034e-9, 3.9999992e+1
-0.120, 5.9273915e-9, -5.4357034e-9, 4.0333324e+1
-0.121, 6.0488015e-9, -5.4190399e-9, 4.0666656e+1
-0.122, 6.1417493e-9, -5.4033213e-9, 4.0999989e+1
-0.123, 6.2500498e-9, -5.3878391e-9, 4.1333321e+1
-0.124, 6.3707524e-9, -5.3759028e-9, 4.1666653e+1
-0.125, 6.4527153e-9, -5.3597113e-9, 4.1999985e+1
-0.126, 6.5764882e-9, -5.3475384e-9, 4.2333317e+1
-0.127, 6.6976624e-9, -5.3324110e-9, 4.2666649e+1
-0.128, 6.7901373e-9, -5.3169291e-9, 4.2999981e+1
-0.129, 6.9213502e-9, -5.2968376e-9, 4.3333313e+1
-0.130, 7.0139441e-9, -5.2876197e-9, 4.3666645e+1
-0.131, 7.1261423e-9, -5.2729647e-9, 4.3999977e+1
-0.132, 7.2580635e-9, -5.2631557e-9, 4.4333309e+1
-0.133, 7.3465229e-9, -5.2551190e-9, 4.4666641e+1
-0.134, 7.4789170e-9, -5.2462554e-9, 4.4999973e+1
-0.135, 7.5839113e-9, -5.2320734e-9, 4.5333305e+1
-0.136, 7.6801658e-9, -5.2242730e-9, 4.5666637e+1
-0.137, 7.7937816e-9, -5.2151727e-9, 4.5999969e+1
-0.138, 7.8738553e-9, -5.2050093e-9, 4.6333302e+1
-0.139, 7.9862899e-9, -5.1952003e-9, 4.6666634e+1
-0.140, 8.1073468e-9, -5.1876361e-9, 4.6999966e+1
-0.141, 8.1862392e-9, -5.1825544e-9, 4.7333298e+1
-0.142, 8.3018632e-9, -5.1725091e-9, 4.7666630e+1
-0.143, 8.4134708e-9, -5.1630544e-9, 4.7999962e+1
-0.144, 8.4999217e-9, -5.1603357e-9, 4.8333294e+1
-0.145, 8.6203880e-9, -5.1541904e-9, 4.8666626e+1
-0.146, 8.7179419e-9, -5.1487539e-9, 4.8999958e+1
-0.147, 8.8208099e-9, -5.1485176e-9, 4.9333290e+1
-0.148, 8.9359604e-9, -5.1453268e-9, 4.9666622e+1
-0.149, 9.0305612e-9, -5.1417808e-9, 4.9999954e+1
-0.150, 9.1509094e-9, -5.1385904e-9, 5.0333286e+1
-0.151, 9.2988923e-9, -5.1351630e-9, 5.0666618e+1
-0.152, 9.4393169e-9, -5.1325628e-9, 5.0999950e+1
-0.153, 9.6254489e-9, -5.1319717e-9, 5.1333282e+1
-0.154, 9.7946913e-9, -5.1317359e-9, 5.1666615e+1
-0.155, 1.0026529e-8, -5.1389444e-9, 5.1999947e+1
-0.156, 1.0307851e-8, -5.1314988e-9, 5.2333279e+1
-0.157, 1.0520083e-8, -5.1344538e-9, 5.2666611e+1
-0.158, 1.0813807e-8, -5.1355173e-9, 5.2999943e+1
-0.159, 1.1106585e-8, -5.1389444e-9, 5.3333275e+1
-0.160, 1.1393459e-8, -5.1363442e-9, 5.3666607e+1
-0.161, 1.1684230e-8, -5.1482814e-9, 5.3999939e+1
-0.162, 1.1935436e-8, -5.1584448e-9, 5.4333271e+1
-0.163, 1.2165856e-8, -5.1631721e-9, 5.4666603e+1
-0.164, 1.2425330e-8, -5.1710907e-9, 5.4999935e+1
-0.165, 1.2639097e-8, -5.1765268e-9, 5.5333267e+1
-0.166, 1.2895735e-8, -5.1840905e-9, 5.5666599e+1
-0.167, 1.3152847e-8, -5.1988636e-9, 5.5999931e+1
-0.168, 1.3411494e-8, -5.2087912e-9, 5.6333263e+1
-0.169, 1.3707224e-8, -5.2252189e-9, 5.6666595e+1
-0.170, 1.3972721e-8, -5.2346731e-9, 5.6999928e+1
-0.171, 1.4276957e-8, -5.2477915e-9, 5.7333260e+1
-0.172, 1.4611190e-8, -5.2649280e-9, 5.7666592e+1
-0.173, 1.4918022e-8, -5.2876197e-9, 5.7999924e+1
-0.174, 1.5265838e-8, -5.3062923e-9, 5.8333256e+1
-0.175, 1.5615424e-8, -5.3293383e-9, 5.8666588e+1
-0.176, 1.5957806e-8, -5.3552207e-9, 5.8999920e+1
-0.177, 1.6337154e-8, -5.3840572e-9, 5.9333252e+1
-0.178, 1.6674104e-8, -5.4146665e-9, 5.9666584e+1
-0.179, 1.7024163e-8, -5.4468128e-9, 5.9999916e+1
-0.180, 1.7376701e-8, -5.4834497e-9, 6.0333248e+1
-0.181, 1.7701840e-8, -5.5231593e-9, 6.0666580e+1
-0.182, 1.8052667e-8, -5.5626326e-9, 6.0999912e+1
-0.183, 1.8395697e-8, -5.6057701e-9, 6.1333244e+1
-0.184, 1.8728752e-8, -5.6531611e-9, 6.1666576e+1
-0.185, 1.9081170e-8, -5.7023257e-9, 6.1999908e+1
-0.186, 1.9399282e-8, -5.7602358e-9, 6.2333241e+1
-0.187, 1.9731036e-8, -5.8211000e-9, 6.2666573e+1
-0.188, 2.0095918e-8, -5.8848011e-9, 6.2999905e+1
-0.189, 2.0429029e-8, -5.9503931e-9, 6.3333237e+1
-0.190, 2.0819773e-8, -6.0260303e-9, 6.3666569e+1
-0.191, 2.1219023e-8, -6.1056862e-9, 6.3999901e+1
-0.192, 2.1616145e-8, -6.1906604e-9, 6.4333237e+1
-0.193, 2.2064940e-8, -6.2783525e-9, 6.4666573e+1
-0.194, 2.2481254e-8, -6.3772716e-9, 6.4999908e+1
-0.195, 2.2950598e-8, -6.4769008e-9, 6.5333244e+1
-0.196, 2.3425255e-8, -6.5913031e-9, 6.5666580e+1
-0.197, 2.3883910e-8, -6.7073582e-9, 6.5999916e+1
-0.198, 2.4378883e-8, -6.8355881e-9, 6.6333252e+1
-0.199, 2.4852241e-8, -6.9778809e-9, 6.6666588e+1
-0.200, 2.5327727e-8, -7.1310460e-9, 6.6999924e+1
-0.201, 2.5830374e-8, -7.2861033e-9, 6.7333260e+1
-0.202, 2.6308692e-8, -7.4528606e-9, 6.7666595e+1
-0.203, 2.6812110e-8, -7.6285991e-9, 6.7999931e+1
-0.204, 2.7327809e-8, -7.8272668e-9, 6.8333267e+1
-0.205, 2.7853131e-8, -8.0351512e-9, 6.8666603e+1
-0.206, 2.8359029e-8, -8.2591090e-9, 6.8999939e+1
-0.207, 2.8921377e-8, -8.4987848e-9, 6.9333275e+1
-0.208, 2.9463948e-8, -8.7531156e-9, 6.9666611e+1
-0.209, 3.0093382e-8, -9.0289562e-9, 6.9999947e+1
-0.210, 3.0699074e-8, -9.3259516e-9, 7.0333282e+1
-0.211, 3.1374626e-8, -9.6418562e-9, 7.0666618e+1
-0.212, 3.2078876e-8, -9.9722977e-9, 7.0999954e+1
-0.213, 3.2802500e-8, -1.0331694e-8, 7.1333290e+1
-0.214, 3.3588890e-8, -1.0727017e-8, 7.1666626e+1
-0.215, 3.4432386e-8, -1.1143379e-8, 7.1999962e+1
-0.216, 3.5340307e-8, -1.1578294e-8, 7.2333298e+1
-0.217, 3.6354223e-8, -1.2048310e-8, 7.2666634e+1
-0.218, 3.7416509e-8, -1.2550590e-8, 7.2999969e+1
-0.219, 3.8568903e-8, -1.3081235e-8, 7.3333305e+1
-0.220, 3.9794816e-8, -1.3654779e-8, 7.3666641e+1
-0.221, 4.1059650e-8, -1.4267798e-8, 7.3999977e+1
-0.222, 4.2443052e-8, -1.4927735e-8, 7.4333313e+1
-0.223, 4.3880551e-8, -1.5622890e-8, 7.4666649e+1
-0.224, 4.5383533e-8, -1.6353857e-8, 7.4999985e+1
-0.225, 4.6981889e-8, -1.7124648e-8, 7.5333321e+1
-0.226, 4.8616858e-8, -1.7956188e-8, 7.5666656e+1
-0.227, 5.0338805e-8, -1.8828029e-8, 7.5999992e+1
-0.228, 5.2141242e-8, -1.9752697e-8, 7.6333328e+1
-0.229, 5.3980525e-8, -2.0740002e-8, 7.6666664e+1
-0.230, 5.5910217e-8, -2.1780963e-8, 7.7000000e+1
-0.231, 5.7873457e-8, -2.2883260e-8, 7.7333336e+1
-0.232, 5.9902767e-8, -2.4057059e-8, 7.7666672e+1
-0.233, 6.2032115e-8, -2.5272813e-8, 7.8000008e+1
-0.234, 6.4168368e-8, -2.6563377e-8, 7.8333344e+1
-0.235, 6.6441451e-8, -2.7930760e-8, 7.8666679e+1
-0.236, 6.8793774e-8, -2.9354167e-8, 7.9000015e+1
-0.237, 7.1195885e-8, -3.0864314e-8, 7.9333351e+1
-0.238, 7.3726547e-8, -3.2434148e-8, 7.9666687e+1
-0.239, 7.6308474e-8, -3.4077136e-8, 8.0000023e+1
-0.240, 7.9017767e-8, -3.5783941e-8, 8.0333359e+1
-0.241, 8.1861870e-8, -3.7572889e-8, 8.0666695e+1
-0.242, 8.4760963e-8, -3.9449048e-8, 8.1000031e+1
-0.243, 8.7785651e-8, -4.1388677e-8, 8.1333366e+1
-0.244, 9.0850264e-8, -4.3401347e-8, 8.1666702e+1
-0.245, 9.3927632e-8, -4.5475112e-8, 8.2000038e+1
-0.246, 9.7103488e-8, -4.7638345e-8, 8.2333374e+1
-0.247, 1.0028177e-7, -4.9849795e-8, 8.2666710e+1
-0.248, 1.0352490e-7, -5.2123767e-8, 8.3000046e+1
-0.249, 1.0680682e-7, -5.4478217e-8, 8.3333382e+1
-0.250, 1.1009075e-7, -5.6887981e-8, 8.3666718e+1
-0.251, 1.1349029e-7, -5.9354235e-8, 8.4000053e+1
-0.252, 1.1693172e-7, -6.1865400e-8, 8.4333389e+1
-0.253, 1.2034349e-7, -6.4421236e-8, 8.4666725e+1
-0.254, 1.2383320e-7, -6.6992087e-8, 8.5000061e+1
-0.255, 1.2732991e-7, -6.9615524e-8, 8.5333397e+1
-0.256, 1.3082955e-7, -7.2293560e-8, 8.5666733e+1
-0.257, 1.3431631e-7, -7.4977038e-8, 8.6000069e+1
-0.258, 1.3772974e-7, -7.7689592e-8, 8.6333405e+1
-0.259, 1.4114057e-7, -8.0409698e-8, 8.6666740e+1
-0.260, 1.4450865e-7, -8.3119531e-8, 8.7000076e+1
-0.261, 1.4782080e-7, -8.5848157e-8, 8.7333412e+1
-0.262, 1.5112191e-7, -8.8585523e-8, 8.7666748e+1
-0.263, 1.5434827e-7, -9.1309410e-8, 8.8000084e+1
-0.264, 1.5752961e-7, -9.4032949e-8, 8.8333420e+1
-0.265, 1.6069379e-7, -9.6717493e-8, 8.8666756e+1
-0.266, 1.6372977e-7, -9.9367760e-8, 8.9000092e+1
-0.267, 1.6678398e-7, -1.0200278e-7, 8.9333427e+1
-0.268, 1.6976782e-7, -1.0460364e-7, 8.9666763e+1
-0.269, 1.7260960e-7, -1.0714884e-7, 9.0000099e+1
-0.270, 1.7547386e-7, -1.0965162e-7, 9.0333435e+1
-0.271, 1.7823666e-7, -1.1213525e-7, 9.0666771e+1
-0.272, 1.8093667e-7, -1.1454597e-7, 9.1000107e+1
-0.273, 1.8360228e-7, -1.1690335e-7, 9.1333443e+1
-0.274, 1.8616376e-7, -1.1921291e-7, 9.1666779e+1
-0.275, 1.8866992e-7, -1.2147376e-7, 9.2000114e+1
-0.276, 1.9114053e-7, -1.2366714e-7, 9.2333450e+1
-0.277, 1.9350283e-7, -1.2581594e-7, 9.2666786e+1
-0.278, 1.9585249e-7, -1.2786265e-7, 9.3000122e+1
-0.279, 1.9806771e-7, -1.2984742e-7, 9.3333458e+1
-0.280, 2.0023792e-7, -1.3176258e-7, 9.3666794e+1
-0.281, 2.0236273e-7, -1.3362185e-7, 9.4000130e+1
-0.282, 2.0434032e-7, -1.3540891e-7, 9.4333466e+1
-0.283, 2.0631749e-7, -1.3715092e-7, 9.4666801e+1
-0.284, 2.0824304e-7, -1.3879379e-7, 9.5000137e+1
-0.285, 2.1001790e-7, -1.4036812e-7, 9.5333473e+1
-0.286, 2.1178225e-7, -1.4189116e-7, 9.5666809e+1
-0.287, 2.1346433e-7, -1.4333925e-7, 9.6000145e+1
-0.288, 2.1509081e-7, -1.4472141e-7, 9.6333481e+1
-0.289, 2.1665450e-7, -1.4601446e-7, 9.6666817e+1
-0.290, 2.1813757e-7, -1.4725562e-7, 9.7000153e+1
-0.291, 2.1957651e-7, -1.4842422e-7, 9.7333488e+1
-0.292, 2.2095251e-7, -1.4953314e-7, 9.7666824e+1
-0.293, 2.2221847e-7, -1.5057397e-7, 9.8000160e+1
-0.294, 2.2343168e-7, -1.5154805e-7, 9.8333496e+1
-0.295, 2.2456457e-7, -1.5248430e-7, 9.8666832e+1
-0.296, 2.2561359e-7, -1.5335685e-7, 9.9000168e+1
-0.297, 2.2658580e-7, -1.5418047e-7, 9.9333504e+1
-0.298, 2.2742181e-7, -1.5494051e-7, 9.9666840e+1
-0.299, 2.2821588e-7, -1.5566320e-7, 1.0000018e+2
-0.300, 2.2892780e-7, -1.5635091e-7, 1.0033351e+2
-0.301, 2.2953840e-7, -1.5700518e-7, 1.0066685e+2
-0.302, 2.3012943e-7, -1.5763592e-7, 1.0100018e+2
-0.303, 2.3065169e-7, -1.5822636e-7, 1.0133352e+2
-0.304, 2.3114090e-7, -1.5879566e-7, 1.0166685e+2
-0.305, 2.3164289e-7, -1.5933516e-7, 1.0200019e+2
-0.306, 2.3209937e-7, -1.5985505e-7, 1.0233353e+2
-0.307, 2.3259919e-7, -1.6034279e-7, 1.0266686e+2
-0.308, 2.3301808e-7, -1.6077759e-7, 1.0300020e+2
-0.309, 2.3339679e-7, -1.6120353e-7, 1.0333353e+2
-0.310, 2.3378885e-7, -1.6160358e-7, 1.0366687e+2
-0.311, 2.3414603e-7, -1.6197644e-7, 1.0400021e+2
-0.312, 2.3448899e-7, -1.6231941e-7, 1.0433354e+2
-0.313, 2.3483878e-7, -1.6264052e-7, 1.0466688e+2
-0.314, 2.3513222e-7, -1.6294118e-7, 1.0500021e+2
-0.315, 2.3543744e-7, -1.6322223e-7, 1.0533355e+2
-0.316, 2.3571806e-7, -1.6349641e-7, 1.0566689e+2
-0.317, 2.3595271e-7, -1.6376055e-7, 1.0600022e+2
-0.318, 2.3620103e-7, -1.6400365e-7, 1.0633356e+2
-0.319, 2.3639963e-7, -1.6424535e-7, 1.0666689e+2
-0.320, 2.3657253e-7, -1.6448408e-7, 1.0700023e+2
-0.321, 2.3676121e-7, -1.6472339e-7, 1.0733356e+2
-0.322, 2.3688668e-7, -1.6495278e-7, 1.0766690e+2
-0.323, 2.3705115e-7, -1.6520427e-7, 1.0800024e+2
-0.324, 2.3719147e-7, -1.6542020e-7, 1.0833357e+2
-0.325, 2.3723746e-7, -1.6563801e-7, 1.0866691e+2
-0.326, 2.3729811e-7, -1.6585713e-7, 1.0900024e+2
-0.327, 2.3731936e-7, -1.6608675e-7, 1.0933358e+2
-0.328, 2.3728468e-7, -1.6630847e-7, 1.0966692e+2
-0.329, 2.3724932e-7, -1.6654849e-7, 1.1000025e+2
-0.330, 2.3712489e-7, -1.6677966e-7, 1.1033359e+2
-0.331, 2.3700527e-7, -1.6701780e-7, 1.1066692e+2
-0.332, 2.3685989e-7, -1.6724519e-7, 1.1100026e+2
-0.333, 2.3666991e-7, -1.6748427e-7, 1.1133360e+2
-0.334, 2.3656960e-7, -1.6772773e-7, 1.1166693e+2
-0.335, 2.3644297e-7, -1.6794377e-7, 1.1200027e+2
-0.336, 2.3632529e-7, -1.6815237e-7, 1.1233360e+2
-0.337, 2.3627207e-7, -1.6836144e-7, 1.1266694e+2
-0.338, 2.3624432e-7, -1.6856399e-7, 1.1300027e+2
-0.339, 2.3628132e-7, -1.6876905e-7, 1.1333361e+2
-0.340, 2.3638795e-7, -1.6897621e-7, 1.1366695e+2
-0.341, 2.3651300e-7, -1.6917879e-7, 1.1400028e+2
-0.342, 2.3674396e-7, -1.6939624e-7, 1.1433362e+2
-0.343, 2.3701914e-7, -1.6958499e-7, 1.1466695e+2
-0.344, 2.3731366e-7, -1.6976533e-7, 1.1500029e+2
-0.345, 2.3765958e-7, -1.6994994e-7, 1.1533363e+2
-0.346, 2.3799362e-7, -1.7012852e-7, 1.1566696e+2
-0.347, 2.3838041e-7, -1.7030095e-7, 1.1600030e+2
-0.348, 2.3878457e-7, -1.7047184e-7, 1.1633363e+2
-0.349, 2.3918525e-7, -1.7063387e-7, 1.1666697e+2
-0.350, 2.3960175e-7, -1.7076918e-7, 1.1700031e+2
-0.351, 2.3998246e-7, -1.7090001e-7, 1.1733364e+2
-0.352, 2.4033957e-7, -1.7101856e-7, 1.1766698e+2
-0.353, 2.4069345e-7, -1.7112232e-7, 1.1800031e+2
-0.354, 2.4098171e-7, -1.7122053e-7, 1.1833365e+2
-0.355, 2.4126194e-7, -1.7131484e-7, 1.1866698e+2
-0.356, 2.4158939e-7, -1.7142074e-7, 1.1900032e+2
-0.357, 2.4178786e-7, -1.7147143e-7, 1.1933366e+2
-0.358, 2.4199585e-7, -1.7153631e-7, 1.1966699e+2
-0.359, 2.4217519e-7, -1.7160191e-7, 1.2000033e+2
-0.360, 2.4230133e-7, -1.7165496e-7, 1.2033366e+2
-0.361, 2.4244522e-7, -1.7171466e-7, 1.2066700e+2
-0.362, 2.4251202e-7, -1.7176181e-7, 1.2100034e+2
-0.363, 2.4257793e-7, -1.7179939e-7, 1.2133367e+2
-0.364, 2.4261655e-7, -1.7183721e-7, 1.2166701e+2
-0.365, 2.4258949e-7, -1.7187327e-7, 1.2200034e+2
-0.366, 2.4255664e-7, -1.7190906e-7, 1.2233368e+2
-0.367, 2.4251770e-7, -1.7194948e-7, 1.2266702e+2
-0.368, 2.4243070e-7, -1.7197017e-7, 1.2300035e+2
-0.369, 2.4234194e-7, -1.7198104e-7, 1.2333369e+2
-0.370, 2.4219432e-7, -1.7200279e-7, 1.2366702e+2
-0.371, 2.4207444e-7, -1.7203884e-7, 1.2400036e+2
-0.372, 2.4194082e-7, -1.7206035e-7, 1.2433369e+2
-0.373, 2.4176916e-7, -1.7208268e-7, 1.2466703e+2
-0.374, 2.4160741e-7, -1.7211825e-7, 1.2500037e+2
-0.375, 2.4142011e-7, -1.7213905e-7, 1.2533370e+2
-0.376, 2.4120615e-7, -1.7216895e-7, 1.2566704e+2
-0.377, 2.4099427e-7, -1.7219649e-7, 1.2600037e+2
-0.378, 2.4072639e-7, -1.7222840e-7, 1.2633371e+2
-0.379, 2.4045761e-7, -1.7224836e-7, 1.2666705e+2
-0.380, 2.4017072e-7, -1.7226421e-7, 1.2700038e+2
-0.381, 2.3983574e-7, -1.7228891e-7, 1.2733372e+2
-0.382, 2.3957944e-7, -1.7232105e-7, 1.2766705e+2
-0.383, 2.3924636e-7, -1.7232756e-7, 1.2800038e+2
-0.384, 2.3890465e-7, -1.7234328e-7, 1.2833371e+2
-0.385, 2.3857615e-7, -1.7236242e-7, 1.2866704e+2
-0.386, 2.3820317e-7, -1.7237389e-7, 1.2900037e+2
-0.387, 2.3783853e-7, -1.7238499e-7, 1.2933369e+2
-0.388, 2.3747643e-7, -1.7239634e-7, 1.2966702e+2
-0.389, 2.3707614e-7, -1.7241773e-7, 1.3000035e+2
-0.390, 2.3670320e-7, -1.7242246e-7, 1.3033368e+2
-0.391, 2.3632163e-7, -1.7243251e-7, 1.3066701e+2
-0.392, 2.3599004e-7, -1.7246997e-7, 1.3100034e+2
-0.393, 2.3568658e-7, -1.7245921e-7, 1.3133366e+2
-0.394, 2.3534963e-7, -1.7242020e-7, 1.3166699e+2
-0.395, 2.3506442e-7, -1.7240508e-7, 1.3200032e+2
-0.396, 2.3476755e-7, -1.7237660e-7, 1.3233365e+2
-0.397, 2.3442908e-7, -1.7235723e-7, 1.3266698e+2
-0.398, 2.3414538e-7, -1.7234917e-7, 1.3300031e+2
-0.399, 2.3385935e-7, -1.7232874e-7, 1.3333363e+2
