Jan. 28, 2006   02:27:32
Square Wave Voltammetry
File: z:\users\scottsaunders\git\labwork\ida\01_17_19_psoralen_nonequil_2\data\psoralen\2\75um_psoralen_transfer_2_swv_final.txt
Data Source:  Experiment
Instrument Model:  CHI760E
Header: 
Note: 

Init E (V) = 0.1
Final E (V) = -0.5
Incr E (V) = 0.001
Amplitude (V) = 0.025
Frequency (Hz) = 300
Quiet Time (sec) = 2
Sensitivity (A/V) = 1e-5
Sens 2 (A/V) = 1e-5

Potential/V, i1/A, i2/A

0.099, 1.5639374e-5, 1.4577292e-5
0.098, 1.7640321e-5, 1.5790454e-5
0.097, 1.7767168e-5, 1.5876873e-5
0.096, 1.7558465e-5, 1.5710653e-5
0.095, 1.7406754e-5, 1.5548614e-5
0.094, 1.7452589e-5, 1.5593567e-5
0.093, 1.7474038e-5, 1.5636379e-5
0.092, 1.7540196e-5, 1.5707084e-5
0.091, 1.7350514e-5, 1.5556108e-5
0.090, 1.7206461e-5, 1.5405272e-5
0.089, 1.7242193e-5, 1.5443415e-5
0.088, 1.7268416e-5, 1.5488200e-5
0.087, 1.7337821e-5, 1.5568648e-5
0.086, 1.7145419e-5, 1.5413756e-5
0.085, 1.7011640e-5, 1.5268415e-5
0.084, 1.7067792e-5, 1.5334037e-5
0.083, 1.7074326e-5, 1.5351852e-5
0.082, 1.7136910e-5, 1.5427040e-5
0.081, 1.6947824e-5, 1.5278170e-5
0.080, 1.6817132e-5, 1.5131749e-5
0.079, 1.6826862e-5, 1.5156969e-5
0.078, 1.6878679e-5, 1.5216365e-5
0.077, 1.6939914e-5, 1.5286869e-5
0.076, 1.6752732e-5, 1.5147612e-5
0.075, 1.6629076e-5, 1.5001548e-5
0.074, 1.6669848e-5, 1.5051963e-5
0.073, 1.6687532e-5, 1.5089523e-5
0.072, 1.6737324e-5, 1.5144587e-5
0.071, 1.6569709e-5, 1.5021262e-5
0.070, 1.6440252e-5, 1.4876492e-5
0.069, 1.6480637e-5, 1.4919877e-5
0.068, 1.6508842e-5, 1.4971745e-5
0.067, 1.6573591e-5, 1.5036325e-5
0.066, 1.6381327e-5, 1.4889663e-5
0.065, 1.6259728e-5, 1.4756838e-5
0.064, 1.6297381e-5, 1.4797192e-5
0.063, 1.6326761e-5, 1.4844239e-5
0.062, 1.6386941e-5, 1.4916748e-5
0.061, 1.6204347e-5, 1.4771409e-5
0.060, 1.6079863e-5, 1.4633364e-5
0.059, 1.6126491e-5, 1.4686920e-5
0.058, 1.6147762e-5, 1.4722205e-5
0.057, 1.6202050e-5, 1.4789807e-5
0.056, 1.6029902e-5, 1.4653218e-5
0.055, 1.5921603e-5, 1.4525063e-5
0.054, 1.5954523e-5, 1.4574508e-5
0.053, 1.5973390e-5, 1.4604653e-5
0.052, 1.6031321e-5, 1.4674237e-5
0.051, 1.5859692e-5, 1.4542596e-5
0.050, 1.5714850e-5, 1.4380093e-5
0.049, 1.5792455e-5, 1.4467709e-5
0.048, 1.5814767e-5, 1.4505686e-5
0.047, 1.5876867e-5, 1.4572024e-5
0.046, 1.5706724e-5, 1.4443902e-5
0.045, 1.5609314e-5, 1.4325335e-5
0.044, 1.5629466e-5, 1.4354670e-5
0.043, 1.5653546e-5, 1.4402467e-5
0.042, 1.5712787e-5, 1.4461998e-5
0.041, 1.5538953e-5, 1.4327853e-5
0.040, 1.5420705e-5, 1.4199140e-5
0.039, 1.5474088e-5, 1.4258285e-5
0.038, 1.5507720e-5, 1.4306747e-5
0.037, 1.5557453e-5, 1.4365836e-5
0.036, 1.5390349e-5, 1.4230842e-5
0.035, 1.5272461e-5, 1.4102465e-5
0.034, 1.5324167e-5, 1.4161105e-5
0.033, 1.5341606e-5, 1.4192510e-5
0.032, 1.5410082e-5, 1.4274574e-5
0.031, 1.5241638e-5, 1.4133351e-5
0.030, 1.5124666e-5, 1.4002887e-5
0.029, 1.5180978e-5, 1.4073637e-5
0.028, 1.5193385e-5, 1.4097204e-5
0.027, 1.5264704e-5, 1.4176616e-5
0.026, 1.5094362e-5, 1.4043695e-5
0.025, 1.4984605e-5, 1.3912767e-5
0.024, 1.5032572e-5, 1.3975543e-5
0.023, 1.5053154e-5, 1.4013068e-5
0.022, 1.5124466e-5, 1.4085770e-5
0.021, 1.4960408e-5, 1.3958350e-5
0.020, 1.4845315e-5, 1.3823041e-5
0.019, 1.4890404e-5, 1.3881487e-5
0.018, 1.4914349e-5, 1.3928046e-5
0.017, 1.4977464e-5, 1.3990438e-5
0.016, 1.4818535e-5, 1.3865460e-5
0.015, 1.4728793e-5, 1.3761777e-5
0.014, 1.4772020e-5, 1.3808482e-5
0.013, 1.4780477e-5, 1.3841123e-5
0.012, 1.4850667e-5, 1.3916013e-5
0.011, 1.4691939e-5, 1.3784229e-5
0.010, 1.4578965e-5, 1.3665410e-5
0.009, 1.4632314e-5, 1.3717779e-5
0.008, 1.4657997e-5, 1.3763445e-5
0.007, 1.4720513e-5, 1.3837114e-5
0.006, 1.4568283e-5, 1.3707531e-5
0.005, 1.4458587e-5, 1.3583143e-5
0.004, 1.4508571e-5, 1.3645669e-5
0.003, 1.4539717e-5, 1.3690149e-5
0.002, 1.4595844e-5, 1.3757564e-5
0.001, 1.4442661e-5, 1.3632842e-5
-0.000, 1.4335987e-5, 1.3503988e-5
-0.001, 1.4384294e-5, 1.3568450e-5
-0.002, 1.4406687e-5, 1.3601672e-5
-0.003, 1.4476122e-5, 1.3679575e-5
-0.004, 1.4311569e-5, 1.3551575e-5
-0.005, 1.4218520e-5, 1.3431525e-5
-0.006, 1.4266428e-5, 1.3491166e-5
-0.007, 1.4295238e-5, 1.3542895e-5
-0.008, 1.4368997e-5, 1.3614503e-5
-0.009, 1.4206536e-5, 1.3488034e-5
-0.010, 1.4106849e-5, 1.3368879e-5
-0.011, 1.4164492e-5, 1.3431463e-5
-0.012, 1.4180668e-5, 1.3472513e-5
-0.013, 1.4279432e-5, 1.3571533e-5
-0.014, 1.4099892e-5, 1.3419898e-5
-0.015, 1.4001935e-5, 1.3309467e-5
-0.016, 1.4053641e-5, 1.3362904e-5
-0.017, 1.4085092e-5, 1.3413413e-5
-0.018, 1.4154683e-5, 1.3490318e-5
-0.019, 1.4003760e-5, 1.3367209e-5
-0.020, 1.3902580e-5, 1.3249070e-5
-0.021, 1.3957813e-5, 1.3312972e-5
-0.022, 1.3988605e-5, 1.3354147e-5
-0.023, 1.4055106e-5, 1.3431303e-5
-0.024, 1.3897627e-5, 1.3298771e-5
-0.025, 1.3806412e-5, 1.3189496e-5
-0.026, 1.3864403e-5, 1.3261633e-5
-0.027, 1.3898729e-5, 1.3303227e-5
-0.028, 1.3960045e-5, 1.3372826e-5
-0.029, 1.3813473e-5, 1.3259892e-5
-0.030, 1.3721008e-5, 1.3143474e-5
-0.031, 1.3766896e-5, 1.3201617e-5
-0.032, 1.3805606e-5, 1.3254189e-5
-0.033, 1.3872786e-5, 1.3322269e-5
-0.034, 1.3723979e-5, 1.3207451e-5
-0.035, 1.3634066e-5, 1.3093428e-5
-0.036, 1.3687591e-5, 1.3155824e-5
-0.037, 1.3720912e-5, 1.3210398e-5
-0.038, 1.3788543e-5, 1.3274721e-5
-0.039, 1.3634458e-5, 1.3149707e-5
-0.040, 1.3557061e-5, 1.3054684e-5
-0.041, 1.3600473e-5, 1.3108440e-5
-0.042, 1.3635020e-5, 1.3159288e-5
-0.043, 1.3706842e-5, 1.3234239e-5
-0.044, 1.3555560e-5, 1.3104873e-5
-0.045, 1.3472729e-5, 1.3005390e-5
-0.046, 1.3521758e-5, 1.3059043e-5
-0.047, 1.3585834e-5, 1.3141088e-5
-0.048, 1.3630230e-5, 1.3195093e-5
-0.049, 1.3478584e-5, 1.3062147e-5
-0.050, 1.3401238e-5, 1.2966697e-5
-0.051, 1.3446062e-5, 1.3026591e-5
-0.052, 1.3472907e-5, 1.3064167e-5
-0.053, 1.3557615e-5, 1.3155408e-5
-0.054, 1.3406288e-5, 1.3029061e-5
-0.055, 1.3331914e-5, 1.2929586e-5
-0.056, 1.3376464e-5, 1.2990005e-5
-0.057, 1.3426043e-5, 1.3050479e-5
-0.058, 1.3491079e-5, 1.3120236e-5
-0.059, 1.3351232e-5, 1.3010665e-5
-0.060, 1.3266361e-5, 1.2897286e-5
-0.061, 1.3317772e-5, 1.2959574e-5
-0.062, 1.3360961e-5, 1.3022830e-5
-0.063, 1.3417000e-5, 1.3076447e-5
-0.064, 1.3272149e-5, 1.2963519e-5
-0.065, 1.3200030e-5, 1.2868148e-5
-0.066, 1.3255167e-5, 1.2928653e-5
-0.067, 1.3290550e-5, 1.2983637e-5
-0.068, 1.3360592e-5, 1.3053732e-5
-0.069, 1.3228761e-5, 1.2944650e-5
-0.070, 1.3148028e-5, 1.2850789e-5
-0.071, 1.3193007e-5, 1.2898181e-5
-0.072, 1.3230276e-5, 1.2952227e-5
-0.073, 1.3304922e-5, 1.3037927e-5
-0.074, 1.3158696e-5, 1.2913393e-5
-0.075, 1.3081040e-5, 1.2814935e-5
-0.076, 1.3127609e-5, 1.2870591e-5
-0.077, 1.3174318e-5, 1.2925766e-5
-0.078, 1.3241446e-5, 1.3005832e-5
-0.079, 1.3098318e-5, 1.2885303e-5
-0.080, 1.3029415e-5, 1.2789635e-5
-0.081, 1.3070608e-5, 1.2850391e-5
-0.082, 1.3119668e-5, 1.2904115e-5
-0.083, 1.3187329e-5, 1.2981136e-5
-0.084, 1.3041118e-5, 1.2864422e-5
-0.085, 1.2957311e-5, 1.2753893e-5
-0.086, 1.3017217e-5, 1.2825652e-5
-0.087, 1.3057826e-5, 1.2880622e-5
-0.088, 1.3131054e-5, 1.2954823e-5
-0.089, 1.2979142e-5, 1.2832683e-5
-0.090, 1.2922193e-5, 1.2748513e-5
-0.091, 1.2966271e-5, 1.2801741e-5
-0.092, 1.3012233e-5, 1.2868239e-5
-0.093, 1.3080737e-5, 1.2935790e-5
-0.094, 1.2928094e-5, 1.2810529e-5
-0.095, 1.2865867e-5, 1.2730554e-5
-0.096, 1.2908198e-5, 1.2779386e-5
-0.097, 1.2949474e-5, 1.2836854e-5
-0.098, 1.3027278e-5, 1.2918937e-5
-0.099, 1.2869696e-5, 1.2782442e-5
-0.100, 1.2809340e-5, 1.2705685e-5
-0.101, 1.2851828e-5, 1.2756287e-5
-0.102, 1.2896902e-5, 1.2810729e-5
-0.103, 1.2973080e-5, 1.2900540e-5
-0.104, 1.2815580e-5, 1.2759296e-5
-0.105, 1.2760798e-5, 1.2684221e-5
-0.106, 1.2798923e-5, 1.2739615e-5
-0.107, 1.2835570e-5, 1.2783614e-5
-0.108, 1.2917167e-5, 1.2873717e-5
-0.109, 1.2761870e-5, 1.2742896e-5
-0.110, 1.2708935e-5, 1.2660414e-5
-0.111, 1.2740637e-5, 1.2710580e-5
-0.112, 1.2812445e-5, 1.2790026e-5
-0.113, 1.2866178e-5, 1.2849636e-5
-0.114, 1.2717215e-5, 1.2730312e-5
-0.115, 1.2658700e-5, 1.2641979e-5
-0.116, 1.2685678e-5, 1.2682207e-5
-0.117, 1.2738944e-5, 1.2754562e-5
-0.118, 1.2817169e-5, 1.2835965e-5
-0.119, 1.2659388e-5, 1.2702882e-5
-0.120, 1.2607252e-5, 1.2624044e-5
-0.121, 1.2641445e-5, 1.2666736e-5
-0.122, 1.2688857e-5, 1.2733852e-5
-0.123, 1.2767192e-5, 1.2817229e-5
-0.124, 1.2609145e-5, 1.2678267e-5
-0.125, 1.2562969e-5, 1.2615077e-5
-0.126, 1.2594728e-5, 1.2649445e-5
-0.127, 1.2647197e-5, 1.2717374e-5
-0.128, 1.2722841e-5, 1.2805103e-5
-0.129, 1.2556654e-5, 1.2658188e-5
-0.130, 1.2516946e-5, 1.2596676e-5
-0.131, 1.2545832e-5, 1.2635888e-5
-0.132, 1.2598654e-5, 1.2698090e-5
-0.133, 1.2679252e-5, 1.2789993e-5
-0.134, 1.2540419e-5, 1.2673016e-5
-0.135, 1.2474356e-5, 1.2578140e-5
-0.136, 1.2501968e-5, 1.2624811e-5
-0.137, 1.2557601e-5, 1.2685225e-5
-0.138, 1.2639583e-5, 1.2778238e-5
-0.139, 1.2476610e-5, 1.2644725e-5
-0.140, 1.2436074e-5, 1.2573869e-5
-0.141, 1.2465802e-5, 1.2616062e-5
-0.142, 1.2516547e-5, 1.2680999e-5
-0.143, 1.2596547e-5, 1.2765438e-5
-0.144, 1.2431507e-5, 1.2629296e-5
-0.145, 1.2395523e-5, 1.2565365e-5
-0.146, 1.2425147e-5, 1.2602620e-5
-0.147, 1.2475879e-5, 1.2676615e-5
-0.148, 1.2557557e-5, 1.2756440e-5
-0.149, 1.2393180e-5, 1.2619259e-5
-0.150, 1.2354492e-5, 1.2559203e-5
-0.151, 1.2366550e-5, 1.2581017e-5
-0.152, 1.2433886e-5, 1.2665076e-5
-0.153, 1.2512259e-5, 1.2750861e-5
-0.154, 1.2359202e-5, 1.2616698e-5
-0.155, 1.2314734e-5, 1.2551989e-5
-0.156, 1.2369072e-5, 1.2614858e-5
-0.157, 1.2400204e-5, 1.2660930e-5
-0.158, 1.2485261e-5, 1.2762800e-5
-0.159, 1.2313809e-5, 1.2607707e-5
-0.160, 1.2274028e-5, 1.2543428e-5
-0.161, 1.2306313e-5, 1.2595116e-5
-0.162, 1.2358625e-5, 1.2661701e-5
-0.163, 1.2445249e-5, 1.2756658e-5
-0.164, 1.2280356e-5, 1.2615114e-5
-0.165, 1.2245793e-5, 1.2549992e-5
-0.166, 1.2263345e-5, 1.2589764e-5
-0.167, 1.2320506e-5, 1.2661098e-5
-0.168, 1.2406509e-5, 1.2752022e-5
-0.169, 1.2235902e-5, 1.2614223e-5
-0.170, 1.2215460e-5, 1.2557897e-5
-0.171, 1.2225899e-5, 1.2588428e-5
-0.172, 1.2282174e-5, 1.2667422e-5
-0.173, 1.2366396e-5, 1.2757599e-5
-0.174, 1.2200193e-5, 1.2617244e-5
-0.175, 1.2169727e-5, 1.2559867e-5
-0.176, 1.2183640e-5, 1.2586913e-5
-0.177, 1.2242769e-5, 1.2670377e-5
-0.178, 1.2358854e-5, 1.2793687e-5
-0.179, 1.2165809e-5, 1.2620832e-5
-0.180, 1.2130123e-5, 1.2567009e-5
-0.181, 1.2149670e-5, 1.2596833e-5
-0.182, 1.2208622e-5, 1.2676450e-5
-0.183, 1.2291341e-5, 1.2778268e-5
-0.184, 1.2122669e-5, 1.2628504e-5
-0.185, 1.2093320e-5, 1.2574032e-5
-0.186, 1.2107463e-5, 1.2606555e-5
-0.187, 1.2166252e-5, 1.2680528e-5
-0.188, 1.2246710e-5, 1.2781060e-5
-0.189, 1.2087583e-5, 1.2641813e-5
-0.190, 1.2052873e-5, 1.2580638e-5
-0.191, 1.2066092e-5, 1.2618204e-5
-0.192, 1.2126655e-5, 1.2689890e-5
-0.193, 1.2208414e-5, 1.2788400e-5
-0.194, 1.2042279e-5, 1.2651827e-5
-0.195, 1.2004655e-5, 1.2582486e-5
-0.196, 1.2023604e-5, 1.2622483e-5
-0.197, 1.2082911e-5, 1.2703531e-5
-0.198, 1.2171324e-5, 1.2802104e-5
-0.199, 1.2000788e-5, 1.2659499e-5
-0.200, 1.1985870e-5, 1.2616139e-5
-0.201, 1.1979660e-5, 1.2626693e-5
-0.202, 1.2035898e-5, 1.2712194e-5
-0.203, 1.2126692e-5, 1.2810802e-5
-0.204, 1.1952698e-5, 1.2662645e-5
-0.205, 1.1926400e-5, 1.2614647e-5
-0.206, 1.1936854e-5, 1.2641862e-5
-0.207, 1.1994787e-5, 1.2723999e-5
-0.208, 1.2074282e-5, 1.2819863e-5
-0.209, 1.1909538e-5, 1.2672126e-5
-0.210, 1.1887454e-5, 1.2628949e-5
-0.211, 1.1889169e-5, 1.2651517e-5
-0.212, 1.1955655e-5, 1.2735381e-5
-0.213, 1.2029852e-5, 1.2836766e-5
-0.214, 1.1863265e-5, 1.2684715e-5
-0.215, 1.1838483e-5, 1.2633564e-5
-0.216, 1.1839962e-5, 1.2662587e-5
-0.217, 1.1898070e-5, 1.2738887e-5
-0.218, 1.1982668e-5, 1.2844661e-5
-0.219, 1.1818034e-5, 1.2701744e-5
-0.220, 1.1791391e-5, 1.2642509e-5
-0.221, 1.1798880e-5, 1.2678414e-5
-0.222, 1.1881348e-5, 1.2782626e-5
-0.223, 1.1941696e-5, 1.2857487e-5
-0.224, 1.1760982e-5, 1.2705514e-5
-0.225, 1.1745524e-5, 1.2654498e-5
-0.226, 1.1745982e-5, 1.2680027e-5
-0.227, 1.1800010e-5, 1.2766124e-5
-0.228, 1.1894426e-5, 1.2874285e-5
-0.229, 1.1715803e-5, 1.2720970e-5
-0.230, 1.1692435e-5, 1.2664289e-5
-0.231, 1.1696840e-5, 1.2688581e-5
-0.232, 1.1752658e-5, 1.2774362e-5
-0.233, 1.1835962e-5, 1.2876722e-5
-0.234, 1.1664200e-5, 1.2724160e-5
-0.235, 1.1646686e-5, 1.2681950e-5
-0.236, 1.1650257e-5, 1.2700984e-5
-0.237, 1.1703856e-5, 1.2781353e-5
-0.238, 1.1791064e-5, 1.2895604e-5
-0.239, 1.1602004e-5, 1.2720298e-5
-0.240, 1.1595897e-5, 1.2688737e-5
-0.241, 1.1594233e-5, 1.2707260e-5
-0.242, 1.1658701e-5, 1.2793762e-5
-0.243, 1.1744215e-5, 1.2904625e-5
-0.244, 1.1587505e-5, 1.2764405e-5
-0.245, 1.1557616e-5, 1.2700308e-5
-0.246, 1.1553069e-5, 1.2727829e-5
-0.247, 1.1604820e-5, 1.2796515e-5
-0.248, 1.1687785e-5, 1.2903145e-5
-0.249, 1.1510529e-5, 1.2749862e-5
-0.250, 1.1511158e-5, 1.2715842e-5
-0.251, 1.1515180e-5, 1.2746767e-5
-0.252, 1.1555042e-5, 1.2808382e-5
-0.253, 1.1650502e-5, 1.2921226e-5
-0.254, 1.1464050e-5, 1.2758683e-5
-0.255, 1.1458224e-5, 1.2719233e-5
-0.256, 1.1457507e-5, 1.2742852e-5
-0.257, 1.1508851e-5, 1.2822538e-5
-0.258, 1.1595911e-5, 1.2921404e-5
-0.259, 1.1416631e-5, 1.2764023e-5
-0.260, 1.1412772e-5, 1.2731822e-5
-0.261, 1.1408150e-5, 1.2745018e-5
-0.262, 1.1479487e-5, 1.2846651e-5
-0.263, 1.1551191e-5, 1.2935502e-5
-0.264, 1.1367491e-5, 1.2765712e-5
-0.265, 1.1371689e-5, 1.2740642e-5
-0.266, 1.1373575e-5, 1.2763940e-5
-0.267, 1.1416283e-5, 1.2828025e-5
-0.268, 1.1503580e-5, 1.2943272e-5
-0.269, 1.1325772e-5, 1.2775734e-5
-0.270, 1.1317203e-5, 1.2734470e-5
-0.271, 1.1313625e-5, 1.2761106e-5
-0.272, 1.1372029e-5, 1.2837846e-5
-0.273, 1.1481874e-5, 1.2968483e-5
-0.274, 1.1278737e-5, 1.2781931e-5
-0.275, 1.1278670e-5, 1.2743354e-5
-0.276, 1.1272697e-5, 1.2766309e-5
-0.277, 1.1327405e-5, 1.2842765e-5
-0.278, 1.1438493e-5, 1.2967902e-5
-0.279, 1.1239583e-5, 1.2794269e-5
-0.280, 1.1239879e-5, 1.2749493e-5
-0.281, 1.1231909e-5, 1.2767154e-5
-0.282, 1.1289781e-5, 1.2853991e-5
-0.283, 1.1382304e-5, 1.2959887e-5
-0.284, 1.1214433e-5, 1.2808735e-5
-0.285, 1.1199512e-5, 1.2759216e-5
-0.286, 1.1193406e-5, 1.2772296e-5
-0.287, 1.1249238e-5, 1.2855144e-5
-0.288, 1.1336682e-5, 1.2960094e-5
-0.289, 1.1161041e-5, 1.2796170e-5
-0.290, 1.1147355e-5, 1.2750462e-5
-0.291, 1.1160389e-5, 1.2779716e-5
-0.292, 1.1213206e-5, 1.2857328e-5
-0.293, 1.1306497e-5, 1.2976241e-5
-0.294, 1.1126485e-5, 1.2807530e-5
-0.295, 1.1138587e-5, 1.2775878e-5
-0.296, 1.1120504e-5, 1.2784947e-5
-0.297, 1.1182302e-5, 1.2863993e-5
-0.298, 1.1277953e-5, 1.2983650e-5
-0.299, 1.1098894e-5, 1.2819222e-5
-0.300, 1.1102953e-5, 1.2777371e-5
-0.301, 1.1098029e-5, 1.2803577e-5
-0.302, 1.1152915e-5, 1.2869908e-5
-0.303, 1.1241727e-5, 1.2981149e-5
-0.304, 1.1057191e-5, 1.2817783e-5
-0.305, 1.1069476e-5, 1.2781256e-5
-0.306, 1.1068310e-5, 1.2806215e-5
-0.307, 1.1117392e-5, 1.2873847e-5
-0.308, 1.1212887e-5, 1.2984527e-5
-0.309, 1.1037142e-5, 1.2828081e-5
-0.310, 1.1036631e-5, 1.2784504e-5
-0.311, 1.1037288e-5, 1.2801254e-5
-0.312, 1.1075370e-5, 1.2864793e-5
-0.313, 1.1185688e-5, 1.2988661e-5
-0.314, 1.1008153e-5, 1.2827029e-5
-0.315, 1.1006252e-5, 1.2790571e-5
-0.316, 1.0988391e-5, 1.2784931e-5
-0.317, 1.1064643e-5, 1.2881152e-5
-0.318, 1.1159502e-5, 1.2997094e-5
-0.319, 1.0978219e-5, 1.2825858e-5
-0.320, 1.0985996e-5, 1.2796792e-5
-0.321, 1.0994136e-5, 1.2822697e-5
-0.322, 1.1047447e-5, 1.2889215e-5
-0.323, 1.1146395e-5, 1.3013379e-5
-0.324, 1.0965185e-5, 1.2837949e-5
-0.325, 1.0967173e-5, 1.2801040e-5
-0.326, 1.0968801e-5, 1.2826497e-5
-0.327, 1.1030265e-5, 1.2897999e-5
-0.328, 1.1126789e-5, 1.3014025e-5
-0.329, 1.0944950e-5, 1.2846798e-5
-0.330, 1.0953800e-5, 1.2809463e-5
-0.331, 1.0953896e-5, 1.2833898e-5
-0.332, 1.1012877e-5, 1.2908424e-5
-0.333, 1.1107241e-5, 1.3014784e-5
-0.334, 1.0910011e-5, 1.2833561e-5
-0.335, 1.0936072e-5, 1.2814106e-5
-0.336, 1.0939708e-5, 1.2837943e-5
-0.337, 1.0991858e-5, 1.2914377e-5
-0.338, 1.1086489e-5, 1.3019802e-5
-0.339, 1.0914291e-5, 1.2857963e-5
-0.340, 1.0920110e-5, 1.2821994e-5
-0.341, 1.0926630e-5, 1.2844926e-5
-0.342, 1.0986418e-5, 1.2923352e-5
-0.343, 1.1083081e-5, 1.3036382e-5
-0.344, 1.0906084e-5, 1.2864815e-5
-0.345, 1.0887876e-5, 1.2814991e-5
-0.346, 1.0925787e-5, 1.2859555e-5
-0.347, 1.0978330e-5, 1.2929564e-5
-0.348, 1.1072199e-5, 1.3046083e-5
-0.349, 1.0902521e-5, 1.2880049e-5
-0.350, 1.0902063e-5, 1.2837580e-5
-0.351, 1.0911526e-5, 1.2867133e-5
-0.352, 1.0966914e-5, 1.2933611e-5
-0.353, 1.1062107e-5, 1.3048671e-5
-0.354, 1.0889901e-5, 1.2887536e-5
-0.355, 1.0895794e-5, 1.2843573e-5
-0.356, 1.0893820e-5, 1.2865157e-5
-0.357, 1.0963491e-5, 1.2942783e-5
-0.358, 1.1061108e-5, 1.3057634e-5
-0.359, 1.0886404e-5, 1.2899569e-5
-0.360, 1.0887898e-5, 1.2850085e-5
-0.361, 1.0913611e-5, 1.2893612e-5
-0.362, 1.0965976e-5, 1.2964034e-5
-0.363, 1.1068931e-5, 1.3078505e-5
-0.364, 1.0891351e-5, 1.2915127e-5
-0.365, 1.0899166e-5, 1.2878726e-5
-0.366, 1.0914106e-5, 1.2903050e-5
-0.367, 1.0949171e-5, 1.2963703e-5
-0.368, 1.1071097e-5, 1.3090221e-5
-0.369, 1.0895728e-5, 1.2928063e-5
-0.370, 1.0899565e-5, 1.2894028e-5
-0.371, 1.0916782e-5, 1.2915851e-5
-0.372, 1.0972200e-5, 1.2988094e-5
-0.373, 1.1069729e-5, 1.3102512e-5
-0.374, 1.0903099e-5, 1.2942050e-5
-0.375, 1.0904747e-5, 1.2904261e-5
-0.376, 1.0925862e-5, 1.2939300e-5
-0.377, 1.0983401e-5, 1.3005853e-5
-0.378, 1.1068058e-5, 1.3110594e-5
-0.379, 1.0905627e-5, 1.2952766e-5
-0.380, 1.0907845e-5, 1.2914031e-5
-0.381, 1.0935229e-5, 1.2961252e-5
-0.382, 1.0989737e-5, 1.3021577e-5
-0.383, 1.1086237e-5, 1.3132231e-5
-0.384, 1.0935834e-5, 1.2997216e-5
-0.385, 1.0924456e-5, 1.2935870e-5
-0.386, 1.0940817e-5, 1.2972670e-5
-0.387, 1.0989723e-5, 1.3033134e-5
-0.388, 1.1091353e-5, 1.3142411e-5
-0.389, 1.0921662e-5, 1.2995833e-5
-0.390, 1.0922282e-5, 1.2941388e-5
-0.391, 1.0946481e-5, 1.2982122e-5
-0.392, 1.1004649e-5, 1.3058665e-5
-0.393, 1.1095855e-5, 1.3154636e-5
-0.394, 1.0936552e-5, 1.3009792e-5
-0.395, 1.0933277e-5, 1.2962853e-5
-0.396, 1.0963159e-5, 1.3001865e-5
-0.397, 1.1009602e-5, 1.3068115e-5
-0.398, 1.1112150e-5, 1.3181353e-5
-0.399, 1.0940093e-5, 1.3015816e-5
-0.400, 1.0934540e-5, 1.2972287e-5
-0.401, 1.0969590e-5, 1.3014318e-5
-0.402, 1.1023345e-5, 1.3085148e-5
-0.403, 1.1115277e-5, 1.3196102e-5
-0.404, 1.0954620e-5, 1.3037701e-5
-0.405, 1.0960070e-5, 1.3000415e-5
-0.406, 1.1003798e-5, 1.3060295e-5
-0.407, 1.1029895e-5, 1.3095461e-5
-0.408, 1.1127728e-5, 1.3210187e-5
-0.409, 1.0956623e-5, 1.3049841e-5
-0.410, 1.0963056e-5, 1.3005114e-5
-0.411, 1.0961629e-5, 1.3026167e-5
-0.412, 1.1032631e-5, 1.3101385e-5
-0.413, 1.1137634e-5, 1.3222143e-5
-0.414, 1.0974426e-5, 1.3074357e-5
-0.415, 1.0974685e-5, 1.3022222e-5
-0.416, 1.0997056e-5, 1.3061497e-5
-0.417, 1.1051734e-5, 1.3129436e-5
-0.418, 1.1150121e-5, 1.3238514e-5
-0.419, 1.0978197e-5, 1.3083040e-5
-0.420, 1.0983402e-5, 1.3041461e-5
-0.421, 1.1011804e-5, 1.3077639e-5
-0.422, 1.1059097e-5, 1.3144074e-5
-0.423, 1.1158216e-5, 1.3249343e-5
-0.424, 1.0987770e-5, 1.3092100e-5
-0.425, 1.0994409e-5, 1.3060824e-5
-0.426, 1.1024498e-5, 1.3096718e-5
-0.427, 1.1072324e-5, 1.3157007e-5
-0.428, 1.1168973e-5, 1.3271709e-5
-0.429, 1.1004389e-5, 1.3110824e-5
-0.430, 1.1003311e-5, 1.3069846e-5
-0.431, 1.1034286e-5, 1.3114060e-5
-0.432, 1.1083141e-5, 1.3168832e-5
-0.433, 1.1152611e-5, 1.3261395e-5
-0.434, 1.1013076e-5, 1.3123428e-5
-0.435, 1.1016152e-5, 1.3083396e-5
-0.436, 1.1041857e-5, 1.3129906e-5
-0.437, 1.1096818e-5, 1.3186807e-5
-0.438, 1.1196327e-5, 1.3300103e-5
-0.439, 1.1025349e-5, 1.3141191e-5
-0.440, 1.1006090e-5, 1.3077062e-5
-0.441, 1.1055394e-5, 1.3142824e-5
-0.442, 1.1115182e-5, 1.3212024e-5
-0.443, 1.1205155e-5, 1.3310211e-5
-0.444, 1.1012877e-5, 1.3128592e-5
-0.445, 1.1041820e-5, 1.3113103e-5
-0.446, 1.1065094e-5, 1.3152233e-5
-0.447, 1.1117562e-5, 1.3222289e-5
-0.448, 1.1210692e-5, 1.3317964e-5
-0.449, 1.1049835e-5, 1.3169278e-5
-0.450, 1.1054440e-5, 1.3137368e-5
-0.451, 1.1079887e-5, 1.3167813e-5
-0.452, 1.1130582e-5, 1.3234687e-5
-0.453, 1.1223045e-5, 1.3337583e-5
-0.454, 1.1058824e-5, 1.3178431e-5
-0.455, 1.1050736e-5, 1.3136216e-5
-0.456, 1.1089114e-5, 1.3177774e-5
-0.457, 1.1140746e-5, 1.3242890e-5
-0.458, 1.1229071e-5, 1.3350306e-5
-0.459, 1.1075474e-5, 1.3196233e-5
-0.460, 1.1071985e-5, 1.3152670e-5
-0.461, 1.1096328e-5, 1.3192306e-5
-0.462, 1.1148073e-5, 1.3252533e-5
-0.463, 1.1241713e-5, 1.3360494e-5
-0.464, 1.1081166e-5, 1.3209421e-5
-0.465, 1.1087435e-5, 1.3168315e-5
-0.466, 1.1115359e-5, 1.3213559e-5
-0.467, 1.1166940e-5, 1.3270363e-5
-0.468, 1.1247139e-5, 1.3366645e-5
-0.469, 1.1091064e-5, 1.3224320e-5
-0.470, 1.1098525e-5, 1.3180295e-5
-0.471, 1.1131115e-5, 1.3226383e-5
-0.472, 1.1183700e-5, 1.3296187e-5
-0.473, 1.1266273e-5, 1.3384020e-5
-0.474, 1.1110221e-5, 1.3242110e-5
-0.475, 1.1113422e-5, 1.3201594e-5
-0.476, 1.1136924e-5, 1.3230885e-5
-0.477, 1.1202499e-5, 1.3314140e-5
-0.478, 1.1303674e-5, 1.3422581e-5
-0.479, 1.1120734e-5, 1.3249879e-5
-0.480, 1.1124312e-5, 1.3216149e-5
-0.481, 1.1160242e-5, 1.3254277e-5
-0.482, 1.1219837e-5, 1.3326653e-5
-0.483, 1.1298225e-5, 1.3420175e-5
-0.484, 1.1133376e-5, 1.3263807e-5
-0.485, 1.1155511e-5, 1.3243145e-5
-0.486, 1.1181407e-5, 1.3278375e-5
-0.487, 1.1241395e-5, 1.3346176e-5
-0.488, 1.1320973e-5, 1.3442219e-5
-0.489, 1.1158630e-5, 1.3282716e-5
-0.490, 1.1174918e-5, 1.3261037e-5
-0.491, 1.1200061e-5, 1.3299948e-5
-0.492, 1.1264601e-5, 1.3366498e-5
-0.493, 1.1342265e-5, 1.3457469e-5
-0.494, 1.1180773e-5, 1.3312308e-5
-0.495, 1.1199862e-5, 1.3283054e-5
-0.496, 1.1224096e-5, 1.3318346e-5
-0.497, 1.1289620e-5, 1.3393261e-5
-0.498, 1.1373633e-5, 1.3484619e-5
-0.499, 1.1205731e-5, 1.3331401e-5
-0.500, 1.1230082e-5, 1.3309917e-5
