Jan. 28, 2006   01:49:08
Square Wave Voltammetry
File: z:\users\scottsaunders\git\labwork\ida\01_17_19_psoralen_nonequil_2\data\psoralen\2\75um_psoralen_transfer_2_swv_13.txt
Data Source:  Experiment
Instrument Model:  CHI760E
Header: 
Note: 

Init E (V) = 0.1
Final E (V) = -0.5
Incr E (V) = 0.001
Amplitude (V) = 0.025
Frequency (Hz) = 300
Quiet Time (sec) = 2
Sensitivity (A/V) = 1e-5
Sens 2 (A/V) = 1e-5

Potential/V, i1/A, i2/A

0.099, 1.6005912e-5, 1.4537931e-5
0.098, 1.7776167e-5, 1.5584386e-5
0.097, 1.7892413e-5, 1.5647045e-5
0.096, 1.7985123e-5, 1.5760848e-5
0.095, 1.7881717e-5, 1.5672926e-5
0.094, 1.7674167e-5, 1.5481159e-5
0.093, 1.7625061e-5, 1.5444321e-5
0.092, 1.7676495e-5, 1.5477564e-5
0.091, 1.7785209e-5, 1.5609325e-5
0.090, 1.7687198e-5, 1.5540425e-5
0.089, 1.7458948e-5, 1.5325642e-5
0.088, 1.7441300e-5, 1.5312989e-5
0.087, 1.7489889e-5, 1.5350175e-5
0.086, 1.7597908e-5, 1.5473885e-5
0.085, 1.7470531e-5, 1.5380600e-5
0.084, 1.7285842e-5, 1.5201240e-5
0.083, 1.7252143e-5, 1.5176153e-5
0.082, 1.7315449e-5, 1.5232257e-5
0.081, 1.7412807e-5, 1.5344804e-5
0.080, 1.7333081e-5, 1.5297233e-5
0.079, 1.7101622e-5, 1.5075875e-5
0.078, 1.7083050e-5, 1.5056428e-5
0.077, 1.7133596e-5, 1.5106249e-5
0.076, 1.7243057e-5, 1.5231330e-5
0.075, 1.7145787e-5, 1.5154474e-5
0.074, 1.6935235e-5, 1.4964629e-5
0.073, 1.6907881e-5, 1.4933631e-5
0.072, 1.6954258e-5, 1.4975227e-5
0.071, 1.7060731e-5, 1.5108724e-5
0.070, 1.6970189e-5, 1.5037345e-5
0.069, 1.6761071e-5, 1.4841651e-5
0.068, 1.6735765e-5, 1.4820491e-5
0.067, 1.6793798e-5, 1.4867735e-5
0.066, 1.6893346e-5, 1.4995116e-5
0.065, 1.6812526e-5, 1.4930005e-5
0.064, 1.6597869e-5, 1.4729301e-5
0.063, 1.6571150e-5, 1.4712861e-5
0.062, 1.6633452e-5, 1.4759634e-5
0.061, 1.6722781e-5, 1.4874201e-5
0.060, 1.6626334e-5, 1.4800757e-5
0.059, 1.6433265e-5, 1.4614916e-5
0.058, 1.6405045e-5, 1.4597959e-5
0.057, 1.6459946e-5, 1.4643830e-5
0.056, 1.6551752e-5, 1.4755231e-5
0.055, 1.6471167e-5, 1.4697483e-5
0.054, 1.6269132e-5, 1.4502604e-5
0.053, 1.6246318e-5, 1.4487588e-5
0.052, 1.6298785e-5, 1.4539613e-5
0.051, 1.6386850e-5, 1.4643296e-5
0.050, 1.6313512e-5, 1.4592835e-5
0.049, 1.6124910e-5, 1.4415263e-5
0.048, 1.6099624e-5, 1.4391931e-5
0.047, 1.6156286e-5, 1.4448436e-5
0.046, 1.6257112e-5, 1.4569725e-5
0.045, 1.6168084e-5, 1.4495829e-5
0.044, 1.5975334e-5, 1.4319616e-5
0.043, 1.5949710e-5, 1.4293698e-5
0.042, 1.6008706e-5, 1.4348896e-5
0.041, 1.6111448e-5, 1.4477768e-5
0.040, 1.6019130e-5, 1.4402813e-5
0.039, 1.5822268e-5, 1.4216359e-5
0.038, 1.5809583e-5, 1.4208857e-5
0.037, 1.5865688e-5, 1.4254532e-5
0.036, 1.5959544e-5, 1.4378227e-5
0.035, 1.5876816e-5, 1.4307196e-5
0.034, 1.5688987e-5, 1.4131479e-5
0.033, 1.5667149e-5, 1.4120205e-5
0.032, 1.5726182e-5, 1.4167033e-5
0.031, 1.5823785e-5, 1.4289879e-5
0.030, 1.5740430e-5, 1.4228784e-5
0.029, 1.5538415e-5, 1.4026688e-5
0.028, 1.5536123e-5, 1.4037436e-5
0.027, 1.5594138e-5, 1.4090509e-5
0.026, 1.5695199e-5, 1.4209643e-5
0.025, 1.5579943e-5, 1.4124998e-5
0.024, 1.5423771e-5, 1.3963796e-5
0.023, 1.5401074e-5, 1.3950670e-5
0.022, 1.5463287e-5, 1.4013125e-5
0.021, 1.5561222e-5, 1.4127759e-5
0.020, 1.5474969e-5, 1.4061989e-5
0.019, 1.5293663e-5, 1.3887748e-5
0.018, 1.5279964e-5, 1.3876892e-5
0.017, 1.5333741e-5, 1.3932267e-5
0.016, 1.5434085e-5, 1.4052814e-5
0.015, 1.5351372e-5, 1.3985280e-5
0.014, 1.5182191e-5, 1.3828021e-5
0.013, 1.5145167e-5, 1.3792293e-5
0.012, 1.5213647e-5, 1.3857985e-5
0.011, 1.5311340e-5, 1.3985025e-5
0.010, 1.5228426e-5, 1.3916375e-5
0.009, 1.5060494e-5, 1.3754052e-5
0.008, 1.5032652e-5, 1.3733588e-5
0.007, 1.5092965e-5, 1.3785717e-5
0.006, 1.5197569e-5, 1.3919435e-5
0.005, 1.5115433e-5, 1.3852077e-5
0.004, 1.4938672e-5, 1.3679652e-5
0.003, 1.4926238e-5, 1.3679037e-5
0.002, 1.4987843e-5, 1.3728163e-5
0.001, 1.5078371e-5, 1.3847536e-5
-0.000, 1.4997217e-5, 1.3784111e-5
-0.001, 1.4819187e-5, 1.3610288e-5
-0.002, 1.4809694e-5, 1.3609557e-5
-0.003, 1.4868291e-5, 1.3662536e-5
-0.004, 1.4966884e-5, 1.3781458e-5
-0.005, 1.4881429e-5, 1.3720597e-5
-0.006, 1.4726123e-5, 1.3560122e-5
-0.007, 1.4697469e-5, 1.3543855e-5
-0.008, 1.4757958e-5, 1.3604988e-5
-0.009, 1.4862007e-5, 1.3727289e-5
-0.010, 1.4792269e-5, 1.3674987e-5
-0.011, 1.4644076e-5, 1.3535221e-5
-0.012, 1.4599719e-5, 1.3491457e-5
-0.013, 1.4666670e-5, 1.3558400e-5
-0.014, 1.4762179e-5, 1.3679286e-5
-0.015, 1.4687621e-5, 1.3616400e-5
-0.016, 1.4536360e-5, 1.3474346e-5
-0.017, 1.4506071e-5, 1.3444627e-5
-0.018, 1.4575795e-5, 1.3512256e-5
-0.019, 1.4662248e-5, 1.3630843e-5
-0.020, 1.4596244e-5, 1.3575203e-5
-0.021, 1.4433598e-5, 1.3419284e-5
-0.022, 1.4416742e-5, 1.3407680e-5
-0.023, 1.4486177e-5, 1.3468683e-5
-0.024, 1.4577636e-5, 1.3591212e-5
-0.025, 1.4533122e-5, 1.3557393e-5
-0.026, 1.4348623e-5, 1.3374447e-5
-0.027, 1.4330110e-5, 1.3370764e-5
-0.028, 1.4402687e-5, 1.3431341e-5
-0.029, 1.4492630e-5, 1.3550446e-5
-0.030, 1.4434012e-5, 1.3512744e-5
-0.031, 1.4258177e-5, 1.3335890e-5
-0.032, 1.4243332e-5, 1.3330382e-5
-0.033, 1.4315790e-5, 1.3396265e-5
-0.034, 1.4402665e-5, 1.3504934e-5
-0.035, 1.4346300e-5, 1.3472240e-5
-0.036, 1.4190759e-5, 1.3313282e-5
-0.037, 1.4171901e-5, 1.3301315e-5
-0.038, 1.4248484e-5, 1.3377810e-5
-0.039, 1.4332535e-5, 1.3480829e-5
-0.040, 1.4278796e-5, 1.3446167e-5
-0.041, 1.4112424e-5, 1.3283328e-5
-0.042, 1.4096824e-5, 1.3272717e-5
-0.043, 1.4170982e-5, 1.3344499e-5
-0.044, 1.4263721e-5, 1.3462583e-5
-0.045, 1.4204644e-5, 1.3415127e-5
-0.046, 1.4023123e-5, 1.3237146e-5
-0.047, 1.4024447e-5, 1.3243567e-5
-0.048, 1.4096669e-5, 1.3313142e-5
-0.049, 1.4190449e-5, 1.3439359e-5
-0.050, 1.4138815e-5, 1.3396442e-5
-0.051, 1.3981486e-5, 1.3241029e-5
-0.052, 1.3972016e-5, 1.3241417e-5
-0.053, 1.4038256e-5, 1.3298107e-5
-0.054, 1.4122834e-5, 1.3414976e-5
-0.055, 1.4070341e-5, 1.3378694e-5
-0.056, 1.3920744e-5, 1.3222530e-5
-0.057, 1.3870243e-5, 1.3191091e-5
-0.058, 1.3980074e-5, 1.3285057e-5
-0.059, 1.4063873e-5, 1.3398918e-5
-0.060, 1.4009964e-5, 1.3366996e-5
-0.061, 1.3866081e-5, 1.3215022e-5
-0.062, 1.3842639e-5, 1.3198649e-5
-0.063, 1.3914801e-5, 1.3269468e-5
-0.064, 1.4009040e-5, 1.3387267e-5
-0.065, 1.3951374e-5, 1.3352442e-5
-0.066, 1.3810723e-5, 1.3207226e-5
-0.067, 1.3781260e-5, 1.3181400e-5
-0.068, 1.3837596e-5, 1.3238141e-5
-0.069, 1.3949053e-5, 1.3372588e-5
-0.070, 1.3889708e-5, 1.3333580e-5
-0.071, 1.3755363e-5, 1.3201017e-5
-0.072, 1.3724202e-5, 1.3175224e-5
-0.073, 1.3829723e-5, 1.3275241e-5
-0.074, 1.3894078e-5, 1.3367716e-5
-0.075, 1.3843170e-5, 1.3330353e-5
-0.076, 1.3701698e-5, 1.3192409e-5
-0.077, 1.3672252e-5, 1.3167086e-5
-0.078, 1.3753050e-5, 1.3244110e-5
-0.079, 1.3840856e-5, 1.3363479e-5
-0.080, 1.3791301e-5, 1.3322953e-5
-0.081, 1.3654220e-5, 1.3186290e-5
-0.082, 1.3623812e-5, 1.3167979e-5
-0.083, 1.3694349e-5, 1.3227032e-5
-0.084, 1.3780153e-5, 1.3347104e-5
-0.085, 1.3742086e-5, 1.3323705e-5
-0.086, 1.3610549e-5, 1.3186393e-5
-0.087, 1.3568395e-5, 1.3156234e-5
-0.088, 1.3658567e-5, 1.3235226e-5
-0.089, 1.3749936e-5, 1.3359671e-5
-0.090, 1.3698659e-5, 1.3329928e-5
-0.091, 1.3557334e-5, 1.3178767e-5
-0.092, 1.3522099e-5, 1.3151439e-5
-0.093, 1.3609426e-5, 1.3239951e-5
-0.094, 1.3679954e-5, 1.3335670e-5
-0.095, 1.3648475e-5, 1.3323174e-5
-0.096, 1.3508481e-5, 1.3179299e-5
-0.097, 1.3468840e-5, 1.3142237e-5
-0.098, 1.3562805e-5, 1.3236322e-5
-0.099, 1.3655323e-5, 1.3352772e-5
-0.100, 1.3597892e-5, 1.3314813e-5
-0.101, 1.3467694e-5, 1.3186928e-5
-0.102, 1.3430426e-5, 1.3146106e-5
-0.103, 1.3515948e-5, 1.3229552e-5
-0.104, 1.3585088e-5, 1.3329791e-5
-0.105, 1.3534120e-5, 1.3297340e-5
-0.106, 1.3424327e-5, 1.3185514e-5
-0.107, 1.3385861e-5, 1.3148174e-5
-0.108, 1.3473424e-5, 1.3226689e-5
-0.109, 1.3544153e-5, 1.3331924e-5
-0.110, 1.3511321e-5, 1.3312555e-5
-0.111, 1.3375599e-5, 1.3176894e-5
-0.112, 1.3333896e-5, 1.3144005e-5
-0.113, 1.3428349e-5, 1.3227012e-5
-0.114, 1.3509014e-5, 1.3335248e-5
-0.115, 1.3490014e-5, 1.3337467e-5
-0.116, 1.3343248e-5, 1.3184499e-5
-0.117, 1.3299740e-5, 1.3148455e-5
-0.118, 1.3390999e-5, 1.3233404e-5
-0.119, 1.3462432e-5, 1.3326266e-5
-0.120, 1.3407789e-5, 1.3303639e-5
-0.121, 1.3295090e-5, 1.3176092e-5
-0.122, 1.3264844e-5, 1.3150342e-5
-0.123, 1.3351380e-5, 1.3237407e-5
-0.124, 1.3415382e-5, 1.3322102e-5
-0.125, 1.3395820e-5, 1.3322804e-5
-0.126, 1.3249586e-5, 1.3174847e-5
-0.127, 1.3218905e-5, 1.3144074e-5
-0.128, 1.3309306e-5, 1.3231324e-5
-0.129, 1.3374743e-5, 1.3324279e-5
-0.130, 1.3369633e-5, 1.3331748e-5
-0.131, 1.3205649e-5, 1.3171469e-5
-0.132, 1.3189843e-5, 1.3150153e-5
-0.133, 1.3272585e-5, 1.3230696e-5
-0.134, 1.3343181e-5, 1.3334360e-5
-0.135, 1.3327449e-5, 1.3333237e-5
-0.136, 1.3178296e-5, 1.3178467e-5
-0.137, 1.3145662e-5, 1.3149727e-5
-0.138, 1.3244861e-5, 1.3239774e-5
-0.139, 1.3303643e-5, 1.3331124e-5
-0.140, 1.3292494e-5, 1.3337802e-5
-0.141, 1.3149181e-5, 1.3186065e-5
-0.142, 1.3122507e-5, 1.3167870e-5
-0.143, 1.3202802e-5, 1.3235468e-5
-0.144, 1.3278144e-5, 1.3338706e-5
-0.145, 1.3256935e-5, 1.3344925e-5
-0.146, 1.3107677e-5, 1.3185752e-5
-0.147, 1.3095028e-5, 1.3177688e-5
-0.148, 1.3175804e-5, 1.3250256e-5
-0.149, 1.3249644e-5, 1.3347407e-5
-0.150, 1.3235554e-5, 1.3357729e-5
-0.151, 1.3086867e-5, 1.3205077e-5
-0.152, 1.3064125e-5, 1.3177309e-5
-0.153, 1.3143363e-5, 1.3259129e-5
-0.154, 1.3216850e-5, 1.3353801e-5
-0.155, 1.3197658e-5, 1.3355915e-5
-0.156, 1.3045081e-5, 1.3207678e-5
-0.157, 1.3033399e-5, 1.3192133e-5
-0.158, 1.3114331e-5, 1.3268311e-5
-0.159, 1.3186391e-5, 1.3367214e-5
-0.160, 1.3175988e-5, 1.3372611e-5
-0.161, 1.3008972e-5, 1.3210034e-5
-0.162, 1.3004634e-5, 1.3201276e-5
-0.163, 1.3109245e-5, 1.3297642e-5
-0.164, 1.3151932e-5, 1.3376703e-5
-0.165, 1.3151650e-5, 1.3389295e-5
-0.166, 1.3145987e-5, 1.3363035e-5
-0.167, 1.2997277e-5, 1.3236790e-5
-0.168, 1.3057863e-5, 1.3292658e-5
-0.169, 1.3116542e-5, 1.3382547e-5
-0.170, 1.3114198e-5, 1.3400748e-5
-0.171, 1.2949223e-5, 1.3226978e-5
-0.172, 1.2932027e-5, 1.3216486e-5
-0.173, 1.3023906e-5, 1.3298226e-5
-0.174, 1.3092847e-5, 1.3399529e-5
-0.175, 1.3078215e-5, 1.3412669e-5
-0.176, 1.2886627e-5, 1.3209517e-5
-0.177, 1.2906048e-5, 1.3230420e-5
-0.178, 1.2994720e-5, 1.3321733e-5
-0.179, 1.3056384e-5, 1.3409923e-5
-0.180, 1.3051719e-5, 1.3430088e-5
-0.181, 1.2886316e-5, 1.3259065e-5
-0.182, 1.2911711e-5, 1.3275569e-5
-0.183, 1.2938865e-5, 1.3315552e-5
-0.184, 1.3089313e-5, 1.3482280e-5
-0.185, 1.3011118e-5, 1.3436621e-5
-0.186, 1.2782156e-5, 1.3211275e-5
-0.187, 1.2838351e-5, 1.3258635e-5
-0.188, 1.2918232e-5, 1.3338123e-5
-0.189, 1.3018695e-5, 1.3465702e-5
-0.190, 1.2989818e-5, 1.3461677e-5
-0.191, 1.2806138e-5, 1.3280396e-5
-0.192, 1.2806907e-5, 1.3280969e-5
-0.193, 1.2865423e-5, 1.3333078e-5
-0.194, 1.2981265e-5, 1.3484274e-5
-0.195, 1.2945792e-5, 1.3468080e-5
-0.196, 1.2752236e-5, 1.3279257e-5
-0.197, 1.2761353e-5, 1.3291678e-5
-0.198, 1.2842151e-5, 1.3360263e-5
-0.199, 1.2957023e-5, 1.3504996e-5
-0.200, 1.2929549e-5, 1.3514882e-5
-0.201, 1.2814684e-5, 1.3386692e-5
-0.202, 1.2731174e-5, 1.3311672e-5
-0.203, 1.2797615e-5, 1.3377638e-5
-0.204, 1.2889465e-5, 1.3493417e-5
-0.205, 1.2849365e-5, 1.3494970e-5
-0.206, 1.2694845e-5, 1.3327370e-5
-0.207, 1.2696582e-5, 1.3329995e-5
-0.208, 1.2799936e-5, 1.3434753e-5
-0.209, 1.2863360e-5, 1.3523459e-5
-0.210, 1.2849853e-5, 1.3547009e-5
-0.211, 1.2477084e-5, 1.3184357e-5
-0.212, 1.2639234e-5, 1.3327763e-5
-0.213, 1.2770171e-5, 1.3460198e-5
-0.214, 1.2790044e-5, 1.3513750e-5
-0.215, 1.2767607e-5, 1.3519003e-5
-0.216, 1.2323177e-5, 1.3078838e-5
-0.217, 1.2591225e-5, 1.3338071e-5
-0.218, 1.2713408e-5, 1.3458963e-5
-0.219, 1.2724003e-5, 1.3508341e-5
-0.220, 1.2685300e-5, 1.3499122e-5
-0.221, 1.2318800e-5, 1.3135210e-5
-0.222, 1.2527955e-5, 1.3340484e-5
-0.223, 1.2645783e-5, 1.3450486e-5
-0.224, 1.2721356e-5, 1.3567525e-5
-0.225, 1.2665073e-5, 1.3544635e-5
-0.226, 1.2243723e-5, 1.3121519e-5
-0.227, 1.2484913e-5, 1.3361434e-5
-0.228, 1.2576911e-5, 1.3444213e-5
-0.229, 1.2612079e-5, 1.3516208e-5
-0.230, 1.2611947e-5, 1.3556699e-5
-0.231, 1.2358285e-5, 1.3293808e-5
-0.232, 1.2441893e-5, 1.3374407e-5
-0.233, 1.2508533e-5, 1.3443794e-5
-0.234, 1.2551102e-5, 1.3519744e-5
-0.235, 1.2552936e-5, 1.3558778e-5
-0.236, 1.2169741e-5, 1.3171140e-5
-0.237, 1.2370048e-5, 1.3362679e-5
-0.238, 1.2444864e-5, 1.3443590e-5
-0.239, 1.2446580e-5, 1.3478146e-5
-0.240, 1.2484034e-5, 1.3550793e-5
-0.241, 1.2247294e-5, 1.3314791e-5
-0.242, 1.2309189e-5, 1.3370598e-5
-0.243, 1.2355129e-5, 1.3423042e-5
-0.244, 1.2486606e-5, 1.3585763e-5
-0.245, 1.2422375e-5, 1.3553239e-5
-0.246, 1.2123543e-5, 1.3247158e-5
-0.247, 1.2238910e-5, 1.3364368e-5
-0.248, 1.2327272e-5, 1.3452414e-5
-0.249, 1.2406813e-5, 1.3577552e-5
-0.250, 1.2357117e-5, 1.3551829e-5
-0.251, 1.2027293e-5, 1.3214177e-5
-0.252, 1.2166865e-5, 1.3359248e-5
-0.253, 1.2239738e-5, 1.3427728e-5
-0.254, 1.2354264e-5, 1.3581161e-5
-0.255, 1.2283223e-5, 1.3546740e-5
-0.256, 1.1970707e-5, 1.3215024e-5
-0.257, 1.2110694e-5, 1.3361962e-5
-0.258, 1.2201937e-5, 1.3451930e-5
-0.259, 1.2261695e-5, 1.3549266e-5
-0.260, 1.2222098e-5, 1.3550568e-5
-0.261, 1.1884756e-5, 1.3195500e-5
-0.262, 1.2037000e-5, 1.3347432e-5
-0.263, 1.2160722e-5, 1.3475075e-5
-0.264, 1.2134047e-5, 1.3491917e-5
-0.265, 1.2154356e-5, 1.3542032e-5
-0.266, 1.1717349e-5, 1.3096089e-5
-0.267, 1.1985833e-5, 1.3353402e-5
-0.268, 1.2064235e-5, 1.3436702e-5
-0.269, 1.2082444e-5, 1.3500587e-5
-0.270, 1.2085624e-5, 1.3531002e-5
-0.271, 1.1751128e-5, 1.3188157e-5
-0.272, 1.1914557e-5, 1.3340532e-5
-0.273, 1.2031530e-5, 1.3459068e-5
-0.274, 1.1968874e-5, 1.3448327e-5
-0.275, 1.2001345e-5, 1.3503515e-5
-0.276, 1.1710311e-5, 1.3201092e-5
-0.277, 1.1851310e-5, 1.3339975e-5
-0.278, 1.1929432e-5, 1.3412720e-5
-0.279, 1.2006785e-5, 1.3534173e-5
-0.280, 1.1961747e-5, 1.3518086e-5
-0.281, 1.1728371e-5, 1.3255712e-5
-0.282, 1.1812970e-5, 1.3357185e-5
-0.283, 1.1841366e-5, 1.3381286e-5
-0.284, 1.1944018e-5, 1.3524312e-5
-0.285, 1.1905464e-5, 1.3525552e-5
-0.286, 1.1593029e-5, 1.3191295e-5
-0.287, 1.1747343e-5, 1.3343651e-5
-0.288, 1.1804304e-5, 1.3399289e-5
-0.289, 1.1773137e-5, 1.3406840e-5
-0.290, 1.1844804e-5, 1.3514429e-5
-0.291, 1.1606232e-5, 1.3249747e-5
-0.292, 1.1722235e-5, 1.3360545e-5
-0.293, 1.1738227e-5, 1.3385360e-5
-0.294, 1.1758224e-5, 1.3435592e-5
-0.295, 1.1781129e-5, 1.3494420e-5
-0.296, 1.1556491e-5, 1.3253413e-5
-0.297, 1.1643937e-5, 1.3336425e-5
-0.298, 1.1690490e-5, 1.3378452e-5
-0.299, 1.1684606e-5, 1.3415564e-5
-0.300, 1.1733999e-5, 1.3490084e-5
-0.301, 1.1507254e-5, 1.3248327e-5
-0.302, 1.1590300e-5, 1.3321294e-5
-0.303, 1.1655602e-5, 1.3382032e-5
-0.304, 1.1616065e-5, 1.3394455e-5
-0.305, 1.1684132e-5, 1.3483014e-5
-0.306, 1.1270627e-5, 1.3053412e-5
-0.307, 1.1530787e-5, 1.3310468e-5
-0.308, 1.1606757e-5, 1.3378512e-5
-0.309, 1.1678447e-5, 1.3488479e-5
-0.310, 1.1640077e-5, 1.3480209e-5
-0.311, 1.1408802e-5, 1.3223860e-5
-0.312, 1.1498065e-5, 1.3313136e-5
-0.313, 1.1542357e-5, 1.3350814e-5
-0.314, 1.1612782e-5, 1.3453333e-5
-0.315, 1.1597286e-5, 1.3477850e-5
-0.316, 1.1364585e-5, 1.3213922e-5
-0.317, 1.1431564e-5, 1.3279003e-5
-0.318, 1.1504955e-5, 1.3350565e-5
-0.319, 1.1519771e-5, 1.3396495e-5
-0.320, 1.1551102e-5, 1.3463923e-5
-0.321, 1.1316071e-5, 1.3206183e-5
-0.322, 1.1427137e-5, 1.3304001e-5
-0.323, 1.1469077e-5, 1.3343293e-5
-0.324, 1.1478799e-5, 1.3382505e-5
-0.325, 1.1524945e-5, 1.3460736e-5
-0.326, 1.1295837e-5, 1.3215356e-5
-0.327, 1.1390644e-5, 1.3295281e-5
-0.328, 1.1447186e-5, 1.3345747e-5
-0.329, 1.1538934e-5, 1.3474146e-5
-0.330, 1.1478844e-5, 1.3445191e-5
-0.331, 1.1255752e-5, 1.3200206e-5
-0.332, 1.1327767e-5, 1.3263088e-5
-0.333, 1.1399176e-5, 1.3320092e-5
-0.334, 1.1448687e-5, 1.3408648e-5
-0.335, 1.1456191e-5, 1.3445850e-5
-0.336, 1.1274167e-5, 1.3231405e-5
-0.337, 1.1309350e-5, 1.3268133e-5
-0.338, 1.1378661e-5, 1.3320507e-5
-0.339, 1.1467806e-5, 1.3441297e-5
-0.340, 1.1442477e-5, 1.3454213e-5
-0.341, 1.1200504e-5, 1.3187720e-5
-0.342, 1.1288806e-5, 1.3265386e-5
-0.343, 1.1348793e-5, 1.3313176e-5
-0.344, 1.1360710e-5, 1.3353079e-5
-0.345, 1.1406806e-5, 1.3436702e-5
-0.346, 1.1285945e-5, 1.3282162e-5
-0.347, 1.1260085e-5, 1.3250778e-5
-0.348, 1.1330059e-5, 1.3313125e-5
-0.349, 1.1411115e-5, 1.3414003e-5
-0.350, 1.1395561e-5, 1.3435112e-5
-0.351, 1.1158578e-5, 1.3181389e-5
-0.352, 1.1249054e-5, 1.3256737e-5
-0.353, 1.1316382e-5, 1.3308229e-5
-0.354, 1.1352873e-5, 1.3380728e-5
-0.355, 1.1377189e-5, 1.3426288e-5
-0.356, 1.1173675e-5, 1.3204095e-5
-0.357, 1.1228642e-5, 1.3245673e-5
-0.358, 1.1301684e-5, 1.3298447e-5
-0.359, 1.1416077e-5, 1.3446725e-5
-0.360, 1.1367874e-5, 1.3424980e-5
-0.361, 1.1135055e-5, 1.3170179e-5
-0.362, 1.1213309e-5, 1.3245613e-5
-0.363, 1.1303038e-5, 1.3312349e-5
-0.364, 1.1387858e-5, 1.3425439e-5
-0.365, 1.1354196e-5, 1.3424463e-5
-0.366, 1.1128483e-5, 1.3170789e-5
-0.367, 1.1215357e-5, 1.3251554e-5
-0.368, 1.1310209e-5, 1.3324599e-5
-0.369, 1.1379614e-5, 1.3419205e-5
-0.370, 1.1359321e-5, 1.3437391e-5
-0.371, 1.1165875e-5, 1.3209388e-5
-0.372, 1.1204296e-5, 1.3239253e-5
-0.373, 1.1280046e-5, 1.3307505e-5
-0.374, 1.1376147e-5, 1.3425721e-5
-0.375, 1.1372265e-5, 1.3452844e-5
-0.376, 1.1156708e-5, 1.3209255e-5
-0.377, 1.1206640e-5, 1.3242315e-5
-0.378, 1.1342820e-5, 1.3369989e-5
-0.379, 1.1260388e-5, 1.3315796e-5
-0.380, 1.1366299e-5, 1.3444909e-5
-0.381, 1.1165720e-5, 1.3220031e-5
-0.382, 1.1196658e-5, 1.3238265e-5
-0.383, 1.1274196e-5, 1.3301578e-5
-0.384, 1.1348217e-5, 1.3408036e-5
-0.385, 1.1343307e-5, 1.3424348e-5
-0.386, 1.1156605e-5, 1.3215626e-5
-0.387, 1.1200031e-5, 1.3246596e-5
-0.388, 1.1274833e-5, 1.3302255e-5
-0.389, 1.1378661e-5, 1.3436142e-5
-0.390, 1.1345887e-5, 1.3430788e-5
-0.391, 1.1150158e-5, 1.3204424e-5
-0.392, 1.1172448e-5, 1.3223003e-5
-0.393, 1.1282307e-5, 1.3309672e-5
-0.394, 1.1421814e-5, 1.3471697e-5
-0.395, 1.1343736e-5, 1.3433855e-5
-0.396, 1.1088049e-5, 1.3144876e-5
-0.397, 1.1207261e-5, 1.3257873e-5
-0.398, 1.1281679e-5, 1.3316008e-5
-0.399, 1.1369013e-5, 1.3422379e-5
-0.400, 1.1350139e-5, 1.3438368e-5
-0.401, 1.1159702e-5, 1.3221148e-5
-0.402, 1.1212909e-5, 1.3258208e-5
-0.403, 1.1288569e-5, 1.3325818e-5
-0.404, 1.1386845e-5, 1.3438419e-5
-0.405, 1.1354145e-5, 1.3439161e-5
-0.406, 1.1165490e-5, 1.3229412e-5
-0.407, 1.1208755e-5, 1.3255474e-5
-0.408, 1.1300783e-5, 1.3339048e-5
-0.409, 1.1358543e-5, 1.3414576e-5
-0.410, 1.1354841e-5, 1.3437963e-5
-0.411, 1.1180136e-5, 1.3239849e-5
-0.412, 1.1240560e-5, 1.3289799e-5
-0.413, 1.1298292e-5, 1.3324269e-5
-0.414, 1.1408085e-5, 1.3458272e-5
-0.415, 1.1350427e-5, 1.3429893e-5
-0.416, 1.1191099e-5, 1.3246343e-5
-0.417, 1.1203764e-5, 1.3257300e-5
-0.418, 1.1289500e-5, 1.3317807e-5
-0.419, 1.1380531e-5, 1.3430334e-5
-0.420, 1.1371334e-5, 1.3457251e-5
-0.421, 1.1174333e-5, 1.3226916e-5
-0.422, 1.1217633e-5, 1.3265842e-5
-0.423, 1.1291579e-5, 1.3322422e-5
-0.424, 1.1397379e-5, 1.3441462e-5
-0.425, 1.1347203e-5, 1.3431662e-5
-0.426, 1.1169490e-5, 1.3222123e-5
-0.427, 1.1210373e-5, 1.3254994e-5
-0.428, 1.1299489e-5, 1.3330639e-5
-0.429, 1.1602011e-5, 1.3636699e-5
-0.430, 1.1357324e-5, 1.3434021e-5
-0.431, 1.0936507e-5, 1.2992593e-5
-0.432, 1.1190775e-5, 1.3230925e-5
-0.433, 1.1297101e-5, 1.3322830e-5
-0.434, 1.1403959e-5, 1.3449657e-5
-0.435, 1.1364755e-5, 1.3435133e-5
-0.436, 1.1165070e-5, 1.3216035e-5
-0.437, 1.1228434e-5, 1.3262452e-5
-0.438, 1.1302424e-5, 1.3320506e-5
-0.439, 1.1396197e-5, 1.3441882e-5
-0.440, 1.1366936e-5, 1.3433221e-5
-0.441, 1.1134818e-5, 1.3181005e-5
-0.442, 1.1233351e-5, 1.3272069e-5
-0.443, 1.1301211e-5, 1.3318774e-5
-0.444, 1.1332846e-5, 1.3371151e-5
-0.445, 1.1361212e-5, 1.3429461e-5
-0.446, 1.1059512e-5, 1.3086954e-5
-0.447, 1.1230201e-5, 1.3264371e-5
-0.448, 1.1310416e-5, 1.3322779e-5
-0.449, 1.1422117e-5, 1.3453913e-5
-0.450, 1.1369086e-5, 1.3437606e-5
-0.451, 1.1140281e-5, 1.3177929e-5
-0.452, 1.1232996e-5, 1.3258334e-5
-0.453, 1.1317484e-5, 1.3329893e-5
-0.454, 1.1410546e-5, 1.3438893e-5
-0.455, 1.1373012e-5, 1.3431998e-5
-0.456, 1.1146305e-5, 1.3185116e-5
-0.457, 1.1234039e-5, 1.3254345e-5
-0.458, 1.1316042e-5, 1.3324237e-5
-0.459, 1.1409297e-5, 1.3429892e-5
-0.460, 1.1385631e-5, 1.3436592e-5
-0.461, 1.1154135e-5, 1.3193050e-5
-0.462, 1.1237144e-5, 1.3255831e-5
-0.463, 1.1386246e-5, 1.3386843e-5
-0.464, 1.1308945e-5, 1.3340868e-5
-0.465, 1.1374897e-5, 1.3430315e-5
-0.466, 1.1230231e-5, 1.3255230e-5
-0.467, 1.1242000e-5, 1.3262976e-5
-0.468, 1.1325645e-5, 1.3322568e-5
-0.469, 1.1391140e-5, 1.3413728e-5
-0.470, 1.1390186e-5, 1.3441235e-5
-0.471, 1.1199461e-5, 1.3221375e-5
-0.472, 1.1257600e-5, 1.3278041e-5
-0.473, 1.1332846e-5, 1.3325669e-5
-0.474, 1.1414997e-5, 1.3429890e-5
-0.475, 1.1401897e-5, 1.3453135e-5
-0.476, 1.1181548e-5, 1.3204422e-5
-0.477, 1.1280030e-5, 1.3290133e-5
-0.478, 1.1346249e-5, 1.3340642e-5
-0.479, 1.1486436e-5, 1.3489167e-5
-0.480, 1.1411612e-5, 1.3455714e-5
-0.481, 1.1056192e-5, 1.3067725e-5
-0.482, 1.1314829e-5, 1.3316907e-5
-0.483, 1.1355609e-5, 1.3345628e-5
-0.484, 1.1481468e-5, 1.3483783e-5
-0.485, 1.1421022e-5, 1.3458528e-5
-0.486, 1.1193570e-5, 1.3218996e-5
-0.487, 1.1285494e-5, 1.3289479e-5
-0.488, 1.1378675e-5, 1.3359945e-5
-0.489, 1.1470653e-5, 1.3475898e-5
-0.490, 1.1452080e-5, 1.3481900e-5
-0.491, 1.1258428e-5, 1.3269966e-5
-0.492, 1.1319620e-5, 1.3317485e-5
-0.493, 1.1393010e-5, 1.3369516e-5
-0.494, 1.1495020e-5, 1.3496540e-5
-0.495, 1.1462631e-5, 1.3486397e-5
-0.496, 1.1307096e-5, 1.3308329e-5
-0.497, 1.1353442e-5, 1.3352270e-5
-0.498, 1.1465034e-5, 1.3438053e-5
-0.499, 1.1478303e-5, 1.3473960e-5
-0.500, 1.1477098e-5, 1.3498023e-5
