Jan. 28, 2006   01:42:59
Cyclic Voltammetry
File: z:\users\scottsaunders\git\labwork\ida\01_17_19_psoralen_nonequil_2\data\psoralen\2\75um_psoralen_transfer_2_gc_10.txt
Data Source:  Experiment
Instrument Model:  CHI760E
Header: 
Note: 

Init E (V) = 0
High E (V) = 0
Low E (V) = -0.4
Init P/N = N
Scan Rate (V/s) = 0.003
Segment = 1
Sample Interval (V) = 0.001
Quiet Time (sec) = 2
Sensitivity (A/V) = 1e-7
2nd E (V) = 0
Sens 2 (A/V) = 1e-7

Potential/V, i1/A, i2/A, Time/s

0.000, -3.7357669e-8, -3.9578932e-8, 3.3333334e-1
-0.001, -3.0712812e-8, -3.4858800e-8, 6.6666669e-1
-0.002, -2.6840786e-8, -3.1208110e-8, 1.0000000e+0
-0.003, -2.3872609e-8, -2.8290275e-8, 1.3333334e+0
-0.004, -2.1441801e-8, -2.5903205e-8, 1.6666667e+0
-0.005, -1.9474669e-8, -2.3912522e-8, 2.0000000e+0
-0.006, -1.7772443e-8, -2.2208077e-8, 2.3333333e+0
-0.007, -1.6311740e-8, -2.0735866e-8, 2.6666665e+0
-0.008, -1.5050864e-8, -1.9473193e-8, 2.9999998e+0
-0.009, -1.3896168e-8, -1.8359195e-8, 3.3333330e+0
-0.010, -1.2924647e-8, -1.7369288e-8, 3.6666663e+0
-0.011, -1.2020801e-8, -1.6495795e-8, 3.9999995e+0
-0.012, -1.1181557e-8, -1.5697228e-8, 4.3333330e+0
-0.013, -1.0468921e-8, -1.4974889e-8, 4.6666665e+0
-0.014, -9.7843929e-9, -1.4312115e-8, 5.0000000e+0
-0.015, -9.1480521e-9, -1.3712334e-8, 5.3333335e+0
-0.016, -8.5929646e-9, -1.3170109e-8, 5.6666670e+0
-0.017, -8.0304376e-9, -1.2666173e-8, 6.0000005e+0
-0.018, -7.5465669e-9, -1.2201949e-8, 6.3333340e+0
-0.019, -7.0700201e-9, -1.1761479e-8, 6.6666675e+0
-0.020, -6.6176833e-9, -1.1368164e-8, 7.0000010e+0
-0.021, -6.2317209e-9, -1.0996831e-8, 7.3333344e+0
-0.022, -5.8439871e-9, -1.0641098e-8, 7.6666679e+0
-0.023, -5.4586153e-9, -1.0316212e-8, 8.0000010e+0
-0.024, -5.1413895e-9, -1.0023825e-8, 8.3333340e+0
-0.025, -4.7362945e-9, -9.7054391e-9, 8.6666670e+0
-0.026, -4.5333923e-9, -9.4728536e-9, 9.0000000e+0
-0.027, -4.1770738e-9, -9.1882679e-9, 9.3333330e+0
-0.028, -3.8905545e-9, -8.9567465e-9, 9.6666660e+0
-0.029, -3.6700554e-9, -8.7325525e-9, 9.9999990e+0
-0.030, -3.4160148e-9, -8.5353040e-9, 1.0333332e+1
-0.031, -3.1487466e-9, -8.3179650e-9, 1.0666665e+1
-0.032, -2.9046265e-9, -8.1363165e-9, 1.0999998e+1
-0.033, -2.6501135e-9, -7.9185032e-9, 1.1333331e+1
-0.034, -2.4800442e-9, -7.7751467e-9, 1.1666664e+1
-0.035, -2.2659228e-9, -7.6067348e-9, 1.1999997e+1
-0.036, -2.0228657e-9, -7.4257964e-9, 1.2333330e+1
-0.037, -1.8764175e-9, -7.2865762e-9, 1.2666663e+1
-0.038, -1.6697360e-9, -7.1396746e-9, 1.2999996e+1
-0.039, -1.4730936e-9, -6.9855624e-9, 1.3333329e+1
-0.040, -1.3098747e-9, -6.8518973e-9, 1.3666662e+1
-0.041, -1.1041383e-9, -6.7252039e-9, 1.3999995e+1
-0.042, -9.4068298e-10, -6.5929568e-9, 1.4333328e+1
-0.043, -7.7545620e-10, -6.4682730e-9, 1.4666661e+1
-0.044, -6.0869398e-10, -6.3539902e-9, 1.4999994e+1
-0.045, -4.9873966e-10, -6.2480972e-9, 1.5333327e+1
-0.046, -3.5571626e-10, -6.1424412e-9, 1.5666660e+1
-0.047, -2.1458252e-10, -6.0451764e-9, 1.5999993e+1
-0.048, -9.7778147e-11, -5.9479111e-9, 1.6333326e+1
-0.049, 5.2213327e-11, -5.8439094e-9, 1.6666660e+1
-0.050, 1.5921511e-10, -5.7566902e-9, 1.6999994e+1
-0.051, 2.8405056e-10, -5.6687615e-9, 1.7333328e+1
-0.052, 4.3817569e-10, -5.5822511e-9, 1.7666662e+1
-0.053, 5.1565158e-10, -5.5034231e-9, 1.7999996e+1
-0.054, 6.2407063e-10, -5.4212852e-9, 1.8333330e+1
-0.055, 7.3969397e-10, -5.3532117e-9, 1.8666664e+1
-0.056, 8.4598717e-10, -5.2753286e-9, 1.8999998e+1
-0.057, 9.6716135e-10, -5.2061910e-9, 1.9333332e+1
-0.058, 1.0540855e-9, -5.1283080e-9, 1.9666666e+1
-0.059, 1.1486865e-9, -5.0679159e-9, 2.0000000e+1
-0.060, 1.2697425e-9, -5.0078790e-9, 2.0333334e+1
-0.061, 1.3339909e-9, -4.9400417e-9, 2.0666668e+1
-0.062, 1.4317806e-9, -4.8788227e-9, 2.1000002e+1
-0.063, 1.5196496e-9, -4.8223310e-9, 2.1333336e+1
-0.064, 1.6035032e-9, -4.7661937e-9, 2.1666670e+1
-0.065, 1.7115677e-9, -4.7108837e-9, 2.2000004e+1
-0.066, 1.7839653e-9, -4.6506101e-9, 2.2333338e+1
-0.067, 1.8544732e-9, -4.5948276e-9, 2.2666672e+1
-0.068, 1.9563964e-9, -4.5440083e-9, 2.3000006e+1
-0.069, 2.0108422e-9, -4.4869259e-9, 2.3333340e+1
-0.070, 2.0799329e-9, -4.4383524e-9, 2.3666674e+1
-0.071, 2.1511493e-9, -4.3967519e-9, 2.4000008e+1
-0.072, 2.2129172e-9, -4.3477053e-9, 2.4333342e+1
-0.073, 2.2931095e-9, -4.3038595e-9, 2.4666676e+1
-0.074, 2.3356268e-9, -4.2538675e-9, 2.5000010e+1
-0.075, 2.4073157e-9, -4.2277493e-9, 2.5333344e+1
-0.076, 2.5124278e-9, -4.1509298e-9, 2.5666677e+1
-0.077, 2.5049876e-9, -4.1252841e-9, 2.6000011e+1
-0.078, 2.5760856e-9, -4.1038932e-9, 2.6333345e+1
-0.079, 2.6506088e-9, -4.0514196e-9, 2.6666679e+1
-0.080, 2.6920635e-9, -4.0262464e-9, 2.7000013e+1
-0.081, 2.7737908e-9, -3.9779091e-9, 2.7333347e+1
-0.082, 2.8088678e-9, -3.9511998e-9, 2.7666681e+1
-0.083, 2.8955556e-9, -3.8960080e-9, 2.8000015e+1
-0.084, 2.9282705e-9, -3.8772172e-9, 2.8333349e+1
-0.085, 2.9590954e-9, -3.8445984e-9, 2.8666683e+1
-0.086, 3.0259419e-9, -3.8072523e-9, 2.9000017e+1
-0.087, 3.0782619e-9, -3.7799519e-9, 2.9333351e+1
-0.088, 3.1252672e-9, -3.7526515e-9, 2.9666685e+1
-0.089, 3.1911691e-9, -3.7153054e-9, 3.0000019e+1
-0.090, 3.2099474e-9, -3.6885959e-9, 3.0333353e+1
-0.091, 3.2607317e-9, -3.6591683e-9, 3.0666687e+1
-0.092, 3.3235628e-9, -3.6279679e-9, 3.1000021e+1
-0.093, 3.3369083e-9, -3.6064585e-9, 3.1333355e+1
-0.094, 3.3954881e-9, -3.5827035e-9, 3.1666689e+1
-0.095, 3.4487526e-9, -3.5572938e-9, 3.2000023e+1
-0.096, 3.4880814e-9, -3.5221934e-9, 3.2333355e+1
-0.097, 3.5352044e-9, -3.5093115e-9, 3.2666687e+1
-0.098, 3.5734700e-9, -3.4745653e-9, 3.3000019e+1
-0.099, 3.6003973e-9, -3.4616836e-9, 3.3333351e+1
-0.100, 3.6735035e-9, -3.4062553e-9, 3.3666683e+1
-0.101, 3.6701966e-9, -3.4069643e-9, 3.4000015e+1
-0.102, 3.7346815e-9, -3.3957370e-9, 3.4333347e+1
-0.103, 3.7660968e-9, -3.3774186e-9, 3.4666679e+1
-0.104, 3.7900718e-9, -3.3458636e-9, 3.5000011e+1
-0.105, 3.8526671e-9, -3.3236451e-9, 3.5333344e+1
-0.106, 3.8635322e-9, -3.3076906e-9, 3.5666676e+1
-0.107, 3.9093564e-9, -3.2855898e-9, 3.6000008e+1
-0.108, 3.9594323e-9, -3.2643170e-9, 3.6333340e+1
-0.109, 3.9777386e-9, -3.2445804e-9, 3.6666672e+1
-0.110, 4.0228540e-9, -3.2236622e-9, 3.7000004e+1
-0.111, 4.0586392e-9, -3.2078251e-9, 3.7333336e+1
-0.112, 4.0767087e-9, -3.1893888e-9, 3.7666668e+1
-0.113, 4.1337533e-9, -3.1747338e-9, 3.8000000e+1
-0.114, 4.1441459e-9, -3.1616152e-9, 3.8333332e+1
-0.115, 4.1727271e-9, -3.1443608e-9, 3.8666664e+1
-0.116, 4.2316608e-9, -3.1285241e-9, 3.8999996e+1
-0.117, 4.2440620e-9, -3.1077239e-9, 3.9333328e+1
-0.118, 4.2794928e-9, -3.0920053e-9, 3.9666660e+1
-0.119, 4.3181130e-9, -3.0719141e-9, 3.9999992e+1
-0.120, 4.3471662e-9, -3.0524139e-9, 4.0333324e+1
-0.121, 4.4000763e-9, -3.0365772e-9, 4.0666656e+1
-0.122, 4.4101154e-9, -3.0319680e-9, 4.0999989e+1
-0.123, 4.4489714e-9, -3.0180223e-9, 4.1333321e+1
-0.124, 4.4923154e-9, -3.0056131e-9, 4.1666653e+1
-0.125, 4.4958584e-9, -2.9819764e-9, 4.1999985e+1
-0.126, 4.5459347e-9, -2.9714582e-9, 4.2333317e+1
-0.127, 4.5803028e-9, -2.9581033e-9, 4.2666649e+1
-0.128, 4.5966009e-9, -2.9433305e-9, 4.2999981e+1
-0.129, 4.6530544e-9, -2.9341121e-9, 4.3333313e+1
-0.130, 4.6707700e-9, -2.9149663e-9, 4.3666645e+1
-0.131, 4.6930912e-9, -2.8971205e-9, 4.3999977e+1
-0.132, 4.7434034e-9, -2.8777385e-9, 4.4333309e+1
-0.133, 4.7571036e-9, -2.8721838e-9, 4.4666641e+1
-0.134, 4.8026911e-9, -2.8623748e-9, 4.4999973e+1
-0.135, 4.8395394e-9, -2.8473652e-9, 4.5333305e+1
-0.136, 4.8648139e-9, -2.8375560e-9, 4.5666637e+1
-0.137, 4.9217395e-9, -2.8268015e-9, 4.5999969e+1
-0.138, 4.9354396e-9, -2.8132103e-9, 4.6333302e+1
-0.139, 4.9681543e-9, -2.7966645e-9, 4.6666634e+1
-0.140, 5.0182307e-9, -2.7828371e-9, 4.6999966e+1
-0.141, 5.0205924e-9, -2.7796463e-9, 4.7333298e+1
-0.142, 5.0647628e-9, -2.7672369e-9, 4.7666630e+1
-0.143, 5.1095244e-9, -2.7562459e-9, 4.7999962e+1
-0.144, 5.1327911e-9, -2.7462002e-9, 4.8333294e+1
-0.145, 5.1912519e-9, -2.7319000e-9, 4.8666626e+1
-0.146, 5.1988107e-9, -2.7222089e-9, 4.8999958e+1
-0.147, 5.2302265e-9, -2.7174816e-9, 4.9333290e+1
-0.148, 5.2820739e-9, -2.7050724e-9, 4.9666622e+1
-0.149, 5.2943561e-9, -2.6977449e-9, 4.9999954e+1
-0.150, 5.3286064e-9, -2.6919540e-9, 5.0333286e+1
-0.151, 5.3693521e-9, -2.6759992e-9, 5.0666618e+1
-0.152, 5.3997047e-9, -2.6677265e-9, 5.0999950e+1
-0.153, 5.4556857e-9, -2.6560263e-9, 5.1333282e+1
-0.154, 5.4678506e-9, -2.6516536e-9, 5.1666615e+1
-0.155, 5.5057616e-9, -2.6414895e-9, 5.1999947e+1
-0.156, 5.5533573e-9, -2.6347531e-9, 5.2333279e+1
-0.157, 5.5567826e-9, -2.6267168e-9, 5.2666611e+1
-0.158, 5.6107559e-9, -2.6225804e-9, 5.2999943e+1
-0.159, 5.6494938e-9, -2.6113527e-9, 5.3333275e+1
-0.160, 5.6837437e-9, -2.6009526e-9, 5.3666607e+1
-0.161, 5.7352367e-9, -2.5923252e-9, 5.3999939e+1
-0.162, 5.7543694e-9, -2.5864160e-9, 5.4333271e+1
-0.163, 5.7811791e-9, -2.5794431e-9, 5.4666603e+1
-0.164, 5.8395226e-9, -2.5685705e-9, 5.4999935e+1
-0.165, 5.8568834e-9, -2.5643156e-9, 5.5333267e+1
-0.166, 5.9016445e-9, -2.5592339e-9, 5.5666599e+1
-0.167, 5.9447522e-9, -2.5584066e-9, 5.5999931e+1
-0.168, 5.9759317e-9, -2.5454063e-9, 5.6333263e+1
-0.169, 6.0351018e-9, -2.5371336e-9, 5.6666595e+1
-0.170, 6.0420695e-9, -2.5381972e-9, 5.6999928e+1
-0.171, 6.0909646e-9, -2.5300424e-9, 5.7333260e+1
-0.172, 6.1458825e-9, -2.5210607e-9, 5.7666592e+1
-0.173, 6.1715113e-9, -2.5230698e-9, 5.7999924e+1
-0.174, 6.2180443e-9, -2.5149149e-9, 5.8333256e+1
-0.175, 6.2599703e-9, -2.5081786e-9, 5.8666588e+1
-0.176, 6.2879617e-9, -2.5014422e-9, 5.8999920e+1
-0.177, 6.3515007e-9, -2.4949418e-9, 5.9333252e+1
-0.178, 6.3747674e-9, -2.4893874e-9, 5.9666584e+1
-0.179, 6.4156311e-9, -2.4898601e-9, 5.9999916e+1
-0.180, 6.4712586e-9, -2.4843054e-9, 6.0333248e+1
-0.181, 6.4957053e-9, -2.4798144e-9, 6.0666580e+1
-0.182, 6.5519230e-9, -2.4692961e-9, 6.0999912e+1
-0.183, 6.5970385e-9, -2.4723690e-9, 6.1333244e+1
-0.184, 6.6610499e-9, -2.4774509e-9, 6.1666576e+1
-0.185, 6.7414789e-9, -2.4494411e-9, 6.1999908e+1
-0.186, 6.7367547e-9, -2.4415230e-9, 6.2333241e+1
-0.187, 6.7701782e-9, -2.4529869e-9, 6.2666573e+1
-0.188, 6.8434023e-9, -2.4549958e-9, 6.2999905e+1
-0.189, 6.8585195e-9, -2.4500322e-9, 6.3333237e+1
-0.190, 6.9284365e-9, -2.4549958e-9, 6.3666569e+1
-0.191, 6.9874884e-9, -2.4486140e-9, 6.3999901e+1
-0.192, 7.0233921e-9, -2.4486140e-9, 6.4333237e+1
-0.193, 7.0988597e-9, -2.4496778e-9, 6.4666573e+1
-0.194, 7.1371260e-9, -2.4412867e-9, 6.4999908e+1
-0.195, 7.1823592e-9, -2.4432960e-9, 6.5333244e+1
-0.196, 7.2529853e-9, -2.4423503e-9, 6.5666580e+1
-0.197, 7.2943220e-9, -2.4389231e-9, 6.5999916e+1
-0.198, 7.3580972e-9, -2.4393958e-9, 6.6333252e+1
-0.199, 7.4177393e-9, -2.4432960e-9, 6.6666588e+1
-0.200, 7.4633268e-9, -2.4402229e-9, 6.6999924e+1
-0.201, 7.5543856e-9, -2.4364413e-9, 6.7333260e+1
-0.202, 7.5743456e-9, -2.4345503e-9, 6.7666595e+1
-0.203, 7.6574898e-9, -2.4392777e-9, 6.7999931e+1
-0.204, 7.7087474e-9, -2.4438866e-9, 6.8333267e+1
-0.205, 7.7941351e-9, -2.4449502e-9, 6.8666603e+1
-0.206, 7.8348812e-9, -2.4492051e-9, 6.8999939e+1
-0.207, 7.9092866e-9, -2.4512141e-9, 6.9333275e+1
-0.208, 7.9695193e-9, -2.4538140e-9, 6.9666611e+1
-0.209, 8.0454594e-9, -2.4633870e-9, 6.9999947e+1
-0.210, 8.1061655e-9, -2.4585416e-9, 7.0333282e+1
-0.211, 8.1731297e-9, -2.4734326e-9, 7.0666618e+1
-0.212, 8.2631253e-9, -2.4714233e-9, 7.0999954e+1
-0.213, 8.3056424e-9, -2.4993145e-9, 7.1333290e+1
-0.214, 8.3979987e-9, -2.4958875e-9, 7.1666626e+1
-0.215, 8.4772465e-9, -2.5152695e-9, 7.1999962e+1
-0.216, 8.5458645e-9, -2.5238969e-9, 7.2333298e+1
-0.217, 8.6417646e-9, -2.5251969e-9, 7.2666634e+1
-0.218, 8.6985725e-9, -2.5432789e-9, 7.2999969e+1
-0.219, 8.7954168e-9, -2.5662066e-9, 7.3333305e+1
-0.220, 8.8932071e-9, -2.5749523e-9, 7.3666641e+1
-0.221, 8.9476524e-9, -2.5933888e-9, 7.3999977e+1
-0.222, 9.0600878e-9, -2.6197440e-9, 7.4333313e+1
-0.223, 9.1646095e-9, -2.6348712e-9, 7.4666649e+1
-0.224, 9.2499972e-9, -2.6469260e-9, 7.4999985e+1
-0.225, 9.3706989e-9, -2.6797811e-9, 7.5333321e+1
-0.226, 9.4606945e-9, -2.7041267e-9, 7.5666656e+1
-0.227, 9.5700585e-9, -2.7251634e-9, 7.5999992e+1
-0.228, 9.6984376e-9, -2.7529368e-9, 7.6333328e+1
-0.229, 9.7911474e-9, -2.7827189e-9, 7.6666664e+1
-0.230, 9.9097237e-9, -2.8141556e-9, 7.7000000e+1
-0.231, 1.0033733e-8, -2.8520928e-9, 7.7333336e+1
-0.232, 1.0153253e-8, -2.8914477e-9, 7.7666672e+1
-0.233, 1.0285766e-8, -2.9378939e-9, 7.8000008e+1
-0.234, 1.0395484e-8, -2.9715763e-9, 7.8333344e+1
-0.235, 1.0539924e-8, -3.0138860e-9, 7.8666679e+1
-0.236, 1.0673737e-8, -3.0671867e-9, 7.9000015e+1
-0.237, 1.0802233e-8, -3.1182421e-9, 7.9333351e+1
-0.238, 1.0950452e-8, -3.1727247e-9, 7.9666687e+1
-0.239, 1.1093004e-8, -3.2243710e-9, 8.0000023e+1
-0.240, 1.1220555e-8, -3.2802716e-9, 8.0333359e+1
-0.241, 1.1392277e-8, -3.3323906e-9, 8.0666695e+1
-0.242, 1.1526207e-8, -3.3940826e-9, 8.1000031e+1
-0.243, 1.1680805e-8, -3.4588468e-9, 8.1333366e+1
-0.244, 1.1854890e-8, -3.5259753e-9, 8.1666702e+1
-0.245, 1.1986456e-8, -3.5977126e-9, 8.2000038e+1
-0.246, 1.2137747e-8, -3.6777232e-9, 8.2333374e+1
-0.247, 1.2298958e-8, -3.7455603e-9, 8.2666710e+1
-0.248, 1.2455682e-8, -3.8258068e-9, 8.3000046e+1
-0.249, 1.2640276e-8, -3.9062904e-9, 8.3333382e+1
-0.250, 1.2789679e-8, -3.9928003e-9, 8.3666718e+1
-0.251, 1.2962229e-8, -4.0769468e-9, 8.4000053e+1
-0.252, 1.3148005e-8, -4.1665307e-9, 8.4333389e+1
-0.253, 1.3289492e-8, -4.2548134e-9, 8.4666725e+1
-0.254, 1.3483656e-8, -4.3495967e-9, 8.5000061e+1
-0.255, 1.3657623e-8, -4.4461528e-9, 8.5333397e+1
-0.256, 1.3824502e-8, -4.5410542e-9, 8.5666733e+1
-0.257, 1.4006853e-8, -4.6262643e-9, 8.6000069e+1
-0.258, 1.4143735e-8, -4.7290838e-9, 8.6333405e+1
-0.259, 1.4298570e-8, -4.8202038e-9, 8.6666740e+1
-0.260, 1.4477614e-8, -4.9214868e-9, 8.7000076e+1
-0.261, 1.4611781e-8, -5.0077609e-9, 8.7333412e+1
-0.262, 1.4782202e-8, -5.1008895e-9, 8.7666748e+1
-0.263, 1.4938573e-8, -5.2038276e-9, 8.8000084e+1
-0.264, 1.5075337e-8, -5.3001470e-9, 8.8333420e+1
-0.265, 1.5231587e-8, -5.3972937e-9, 8.8666756e+1
-0.266, 1.5346030e-8, -5.4965681e-9, 8.9000092e+1
-0.267, 1.5496257e-8, -5.5878058e-9, 8.9333427e+1
-0.268, 1.5648022e-8, -5.6779799e-9, 8.9666763e+1
-0.269, 1.5748643e-8, -5.7718177e-9, 9.0000099e+1
-0.270, 1.5890368e-8, -5.8601004e-9, 9.0333435e+1
-0.271, 1.6025952e-8, -5.9583112e-9, 9.0666771e+1
-0.272, 1.6129411e-8, -6.0481309e-9, 9.1000107e+1
-0.273, 1.6279756e-8, -6.1331051e-9, 9.1333443e+1
-0.274, 1.6383332e-8, -6.2159513e-9, 9.1666779e+1
-0.275, 1.6494113e-8, -6.3054166e-9, 9.2000114e+1
-0.276, 1.6615642e-8, -6.3918084e-9, 9.2333450e+1
-0.277, 1.6707292e-8, -6.4719372e-9, 9.2666786e+1
-0.278, 1.6813937e-8, -6.5485204e-9, 9.3000122e+1
-0.279, 1.6924366e-8, -6.6269936e-9, 9.3333458e+1
-0.280, 1.7012352e-8, -6.6990853e-9, 9.3666794e+1
-0.281, 1.7120771e-8, -6.7773231e-9, 9.4000130e+1
-0.282, 1.7181240e-8, -6.8505974e-9, 9.4333466e+1
-0.283, 1.7280446e-8, -6.9141799e-9, 9.4666801e+1
-0.284, 1.7384023e-8, -6.9957267e-9, 9.5000137e+1
-0.285, 1.7433390e-8, -7.0617916e-9, 9.5333473e+1
-0.286, 1.7521733e-8, -7.1304562e-9, 9.5666809e+1
-0.287, 1.7601216e-8, -7.1901392e-9, 9.6000145e+1
-0.288, 1.7668299e-8, -7.2526576e-9, 9.6333481e+1
-0.289, 1.7751089e-8, -7.3131674e-9, 9.6666817e+1
-0.290, 1.7800694e-8, -7.3727326e-9, 9.7000153e+1
-0.291, 1.7876042e-8, -7.4257964e-9, 9.7333488e+1
-0.292, 1.7944366e-8, -7.4840614e-9, 9.7666824e+1
-0.293, 1.7984993e-8, -7.5397253e-9, 9.8000160e+1
-0.294, 1.8052726e-8, -7.5925533e-9, 9.8333496e+1
-0.295, 1.8114729e-8, -7.6384090e-9, 9.8666832e+1
-0.296, 1.8169766e-8, -7.6850908e-9, 9.9000168e+1
-0.297, 1.8245943e-8, -7.7298825e-9, 9.9333504e+1
-0.298, 1.8274761e-8, -7.7739646e-9, 9.9666840e+1
-0.299, 1.8340071e-8, -7.8204119e-9, 1.0000018e+2
-0.300, 1.8411523e-8, -7.8558662e-9, 1.0033351e+2
-0.301, 1.8447073e-8, -7.9000673e-9, 1.0066685e+2
-0.302, 1.8504707e-8, -7.9316225e-9, 1.0100018e+2
-0.303, 1.8557028e-8, -7.9683771e-9, 1.0133352e+2
-0.304, 1.8588562e-8, -8.0063147e-9, 1.0166685e+2
-0.305, 1.8662259e-8, -8.0360962e-9, 1.0200019e+2
-0.306, 1.8686881e-8, -8.0734424e-9, 1.0233353e+2
-0.307, 1.8751074e-8, -8.1051157e-9, 1.0266686e+2
-0.308, 1.8797250e-8, -8.1309981e-9, 1.0300020e+2
-0.309, 1.8801680e-8, -8.1611340e-9, 1.0333353e+2
-0.310, 1.8848095e-8, -8.1877252e-9, 1.0366687e+2
-0.311, 1.8888958e-8, -8.2201081e-9, 1.0400021e+2
-0.312, 1.8920964e-8, -8.2476452e-9, 1.0433354e+2
-0.313, 1.8983794e-8, -8.2689171e-9, 1.0466688e+2
-0.314, 1.9002337e-8, -8.2968086e-9, 1.0500021e+2
-0.315, 1.9039481e-8, -8.3230463e-9, 1.0533355e+2
-0.316, 1.9095108e-8, -8.3478646e-9, 1.0566689e+2
-0.317, 1.9103553e-8, -8.3700833e-9, 1.0600022e+2
-0.318, 1.9163608e-8, -8.3944292e-9, 1.0633356e+2
-0.319, 1.9260039e-8, -8.3638190e-9, 1.0666689e+2
-0.320, 1.9339227e-8, -8.3364000e-9, 1.0700023e+2
-0.321, 1.9348617e-8, -8.4159382e-9, 1.0733356e+2
-0.322, 1.9289329e-8, -8.4517477e-9, 1.0766690e+2
-0.323, 1.9211203e-8, -8.5458218e-9, 1.0800024e+2
-0.324, 1.9308107e-8, -8.5529130e-9, 1.0833357e+2
-0.325, 1.9346668e-8, -8.5423943e-9, 1.0866691e+2
-0.326, 1.9380623e-8, -8.5425134e-9, 1.0900024e+2
-0.327, 1.9418238e-8, -8.5673308e-9, 1.0933358e+2
-0.328, 1.9436545e-8, -8.5785592e-9, 1.0966692e+2
-0.329, 1.9520339e-8, -8.5678051e-9, 1.1000025e+2
-0.330, 1.9465421e-8, -8.6105860e-9, 1.1033359e+2
-0.331, 1.9568230e-8, -8.5753680e-9, 1.1066692e+2
-0.332, 1.9551459e-8, -8.6494696e-9, 1.1100026e+2
-0.333, 1.9548978e-8, -8.6786605e-9, 1.1133360e+2
-0.334, 1.9594568e-8, -8.6829157e-9, 1.1166693e+2
-0.335, 1.9616712e-8, -8.7021785e-9, 1.1200027e+2
-0.336, 1.9677062e-8, -8.6865795e-9, 1.1233360e+2
-0.337, 1.9694660e-8, -8.7207335e-9, 1.1266694e+2
-0.338, 1.9723654e-8, -8.7508711e-9, 1.1300027e+2
-0.339, 1.9765109e-8, -8.7560705e-9, 1.1333361e+2
-0.340, 1.9815245e-8, -8.7677714e-9, 1.1366695e+2
-0.341, 1.9852566e-8, -8.7800611e-9, 1.1400028e+2
-0.342, 1.9869395e-8, -8.7762801e-9, 1.1433362e+2
-0.343, 1.9883153e-8, -8.8400993e-9, 1.1466695e+2
-0.344, 1.9932639e-8, -8.8408081e-9, 1.1500029e+2
-0.345, 1.9985785e-8, -8.8539265e-9, 1.1533363e+2
-0.346, 1.9998600e-8, -8.8721270e-9, 1.1566696e+2
-0.347, 2.0033204e-8, -8.8919814e-9, 1.1600030e+2
-0.348, 2.0083929e-8, -8.9080547e-9, 1.1633363e+2
-0.349, 2.0091724e-8, -8.9263734e-9, 1.1666697e+2
-0.350, 2.0164713e-8, -8.9390193e-9, 1.1700031e+2
-0.351, 2.0259078e-8, -8.9640739e-9, 1.1733364e+2
-0.352, 2.0317302e-8, -8.9641912e-9, 1.1766698e+2
-0.353, 2.0349603e-8, -8.9761292e-9, 1.1800031e+2
-0.354, 2.0368914e-8, -8.9731733e-9, 1.1833365e+2
-0.355, 2.0303130e-8, -9.0538927e-9, 1.1866698e+2
-0.356, 2.0370390e-8, -9.0709111e-9, 1.1900032e+2
-0.357, 2.0401922e-8, -9.0803658e-9, 1.1933366e+2
-0.358, 2.0451054e-8, -9.0977395e-9, 1.1966699e+2
-0.359, 2.0501188e-8, -9.1118029e-9, 1.2000033e+2
-0.360, 2.0527230e-8, -9.1369765e-9, 1.2033366e+2
-0.361, 2.0590358e-8, -9.1539940e-9, 1.2066700e+2
-0.362, 2.0600869e-8, -9.1781045e-9, 1.2100034e+2
-0.363, 2.0657087e-8, -9.2011501e-9, 1.2133367e+2
-0.364, 2.0717023e-8, -9.2230135e-9, 1.2166701e+2
-0.365, 2.0748084e-8, -9.2436956e-9, 1.2200034e+2
-0.366, 2.0797748e-8, -9.2575236e-9, 1.2233368e+2
-0.367, 2.0841386e-8, -9.2839967e-9, 1.2266702e+2
-0.368, 2.0877822e-8, -9.3055057e-9, 1.2300035e+2
-0.369, 2.0951164e-8, -9.3260697e-9, 1.2333369e+2
-0.370, 2.0977028e-8, -9.3559702e-9, 1.2366702e+2
-0.371, 2.1021613e-8, -9.3836254e-9, 1.2400036e+2
-0.372, 2.1089051e-8, -9.4057260e-9, 1.2433369e+2
-0.373, 2.1117630e-8, -9.4274712e-9, 1.2466703e+2
-0.374, 2.1170955e-8, -9.4502806e-9, 1.2500037e+2
-0.375, 2.1222743e-8, -9.4732089e-9, 1.2533370e+2
-0.376, 2.1266205e-8, -9.5047632e-9, 1.2566704e+2
-0.377, 2.1325670e-8, -9.5242632e-9, 1.2600037e+2
-0.378, 2.1357499e-8, -9.5494368e-9, 1.2633371e+2
-0.379, 2.1405331e-8, -9.5737827e-9, 1.2666705e+2
-0.380, 2.1463615e-8, -9.5995469e-9, 1.2700038e+2
-0.381, 2.1482453e-8, -9.6227106e-9, 1.2733372e+2
-0.382, 2.1548946e-8, -9.6457562e-9, 1.2766705e+2
-0.383, 2.1605929e-8, -9.6637205e-9, 1.2800038e+2
-0.384, 2.1640652e-8, -9.6914929e-9, 1.2833371e+2
-0.385, 2.1713994e-8, -9.7152482e-9, 1.2866704e+2
-0.386, 2.1749603e-8, -9.7387662e-9, 1.2900037e+2
-0.387, 2.1802219e-8, -9.7692583e-9, 1.2933369e+2
-0.388, 2.1876211e-8, -9.7995132e-9, 1.2966702e+2
-0.389, 2.1912468e-8, -9.8367412e-9, 1.3000035e+2
-0.390, 2.1987642e-8, -9.8680601e-9, 1.3033368e+2
-0.391, 2.2054547e-8, -9.8981960e-9, 1.3066701e+2
-0.392, 2.2107633e-8, -9.9286881e-9, 1.3100034e+2
-0.393, 2.2176076e-8, -9.9542161e-9, 1.3133366e+2
-0.394, 2.2220718e-8, -9.9808064e-9, 1.3166699e+2
-0.395, 2.2295419e-8, -1.0004089e-8, 1.3200032e+2
-0.396, 2.2371950e-8, -1.0032217e-8, 1.3233365e+2
-0.397, 2.2412282e-8, -1.0052071e-8, 1.3266698e+2
-0.398, 2.2510662e-8, -1.0076181e-8, 1.3300031e+2
-0.399, 2.2566052e-8, -1.0101118e-8, 1.3333363e+2
