Jan. 28, 2006   02:26:40
Cyclic Voltammetry
File: z:\users\scottsaunders\git\labwork\ida\01_17_19_psoralen_nonequil_2\data\psoralen\2\75um_psoralen_transfer_2_gc_final.txt
Data Source:  Experiment
Instrument Model:  CHI760E
Header: 
Note: 

Init E (V) = 0
High E (V) = 0
Low E (V) = -0.4
Init P/N = N
Scan Rate (V/s) = 0.003
Segment = 1
Sample Interval (V) = 0.001
Quiet Time (sec) = 2
Sensitivity (A/V) = 1e-7
2nd E (V) = 0
Sens 2 (A/V) = 1e-7

Potential/V, i1/A, i2/A, Time/s

0.000, -1.3826841e-8, -1.3616133e-8, 3.3333334e-1
-0.001, -1.0455457e-8, -1.2479207e-8, 6.6666669e-1
-0.002, -8.9737302e-9, -1.1562102e-8, 1.0000000e+0
-0.003, -7.8619031e-9, -1.0794855e-8, 1.3333334e+0
-0.004, -6.9298314e-9, -1.0149455e-8, 1.6666667e+0
-0.005, -6.1876686e-9, -9.5957642e-9, 2.0000000e+0
-0.006, -5.5188480e-9, -9.1158210e-9, 2.3333333e+0
-0.007, -4.9416764e-9, -8.6902423e-9, 2.6666665e+0
-0.008, -4.4339488e-9, -8.3170182e-9, 2.9999998e+0
-0.009, -3.9660231e-9, -7.9807867e-9, 3.3333330e+0
-0.010, -3.5915166e-9, -7.6748092e-9, 3.6666663e+0
-0.011, -3.2113412e-9, -7.4007414e-9, 3.9999995e+0
-0.012, -2.8485274e-9, -7.1475923e-9, 4.3333330e+0
-0.013, -2.5545677e-9, -6.9060251e-9, 4.6666665e+0
-0.014, -2.2446640e-9, -6.6919945e-9, 5.0000000e+0
-0.015, -1.9607431e-9, -6.4977015e-9, 5.3333335e+0
-0.016, -1.7307956e-9, -6.3158163e-9, 5.6666670e+0
-0.017, -1.4632910e-9, -6.1475229e-9, 6.0000005e+0
-0.018, -1.2538937e-9, -5.9949481e-9, 6.3333340e+0
-0.019, -1.0285520e-9, -5.8459184e-9, 6.6666675e+0
-0.020, -8.1537516e-10, -5.7100076e-9, 7.0000010e+0
-0.021, -6.4199923e-10, -5.5813056e-9, 7.3333344e+0
-0.022, -4.5161636e-10, -5.4587490e-9, 7.6666679e+0
-0.023, -2.6666619e-10, -5.3384381e-9, 8.0000010e+0
-0.024, -1.0439195e-10, -5.2332552e-9, 8.3333340e+0
-0.025, 6.7330579e-11, -5.1349263e-9, 8.6666670e+0
-0.026, 2.0244104e-10, -5.0329341e-9, 9.0000000e+0
-0.027, 3.5514888e-10, -4.9533964e-9, 9.3333330e+0
-0.028, 5.1541532e-10, -4.8633404e-9, 9.6666660e+0
-0.029, 6.1911026e-10, -4.7804938e-9, 9.9999990e+0
-0.030, 7.7099138e-10, -4.6994200e-9, 1.0333332e+1
-0.031, 9.0433022e-10, -4.6233097e-9, 1.0666665e+1
-0.032, 1.0198354e-9, -4.5536996e-9, 1.0999998e+1
-0.033, 1.1547097e-9, -4.4811350e-9, 1.1333331e+1
-0.034, 1.2468304e-9, -4.4151882e-9, 1.1666664e+1
-0.035, 1.3558400e-9, -4.3526693e-9, 1.1999997e+1
-0.036, 1.4798488e-9, -4.2909774e-9, 1.2333330e+1
-0.037, 1.5724418e-9, -4.2323585e-9, 1.2666663e+1
-0.038, 1.6731841e-9, -4.1738577e-9, 1.2999996e+1
-0.039, 1.7754618e-9, -4.1205568e-9, 1.3333329e+1
-0.040, 1.8604964e-9, -4.0723380e-9, 1.3666662e+1
-0.041, 1.9665534e-9, -4.0221098e-9, 1.3999995e+1
-0.042, 2.0335180e-9, -3.9705816e-9, 1.4333328e+1
-0.043, 2.1248121e-9, -3.9269721e-9, 1.4666661e+1
-0.044, 2.2254363e-9, -3.8802894e-9, 1.4999994e+1
-0.045, 2.2863778e-9, -3.8375072e-9, 1.5333327e+1
-0.046, 2.3640900e-9, -3.7883430e-9, 1.5666660e+1
-0.047, 2.4538485e-9, -3.7486334e-9, 1.5999993e+1
-0.048, 2.5048692e-9, -3.7103416e-9, 1.6333326e+1
-0.049, 2.6047848e-9, -3.6700414e-9, 1.6666660e+1
-0.050, 2.6614744e-9, -3.6256038e-9, 1.6999994e+1
-0.051, 2.7257228e-9, -3.5980672e-9, 1.7333328e+1
-0.052, 2.8026081e-9, -3.5662759e-9, 1.7666662e+1
-0.053, 2.8459524e-9, -3.5321206e-9, 1.7999996e+1
-0.054, 2.9182314e-9, -3.4969021e-9, 1.8333330e+1
-0.055, 2.9867315e-9, -3.4568381e-9, 1.8666664e+1
-0.056, 3.0394056e-9, -3.4238647e-9, 1.8999998e+1
-0.057, 3.1173542e-9, -3.3920735e-9, 1.9333332e+1
-0.058, 3.1563283e-9, -3.3600458e-9, 1.9666666e+1
-0.059, 3.2131362e-9, -3.3289633e-9, 2.0000000e+1
-0.060, 3.2771483e-9, -3.3026084e-9, 2.0333334e+1
-0.061, 3.3015957e-9, -3.2711716e-9, 2.0666668e+1
-0.062, 3.3696230e-9, -3.2435168e-9, 2.1000002e+1
-0.063, 3.4239509e-9, -3.2196437e-9, 2.1333336e+1
-0.064, 3.4540673e-9, -3.1981342e-9, 2.1666670e+1
-0.065, 3.5216223e-9, -3.1718974e-9, 2.2000004e+1
-0.066, 3.5438259e-9, -3.1502698e-9, 2.2333338e+1
-0.067, 3.5904770e-9, -3.1265150e-9, 2.2666672e+1
-0.068, 3.6462213e-9, -3.0999237e-9, 2.3000006e+1
-0.069, 3.6697243e-9, -3.0799505e-9, 2.3333340e+1
-0.070, 3.7231069e-9, -3.0571412e-9, 2.3666674e+1
-0.071, 3.7727101e-9, -3.0355136e-9, 2.4000008e+1
-0.072, 3.7926702e-9, -3.0062042e-9, 2.4333342e+1
-0.073, 3.8458170e-9, -2.9855221e-9, 2.4666676e+1
-0.074, 3.8645953e-9, -2.9644853e-9, 2.5000010e+1
-0.075, 3.9029788e-9, -2.9526670e-9, 2.5333344e+1
-0.076, 3.9541175e-9, -2.9285574e-9, 2.5666677e+1
-0.077, 3.9374650e-9, -2.9208755e-9, 2.6000011e+1
-0.078, 3.9741952e-9, -2.9221756e-9, 2.6333345e+1
-0.079, 4.0085633e-9, -2.9049210e-9, 2.6666679e+1
-0.080, 4.0533243e-9, -2.8524474e-9, 2.7000013e+1
-0.081, 4.0958419e-9, -2.8316469e-9, 2.7333347e+1
-0.082, 4.1113135e-9, -2.8140377e-9, 2.7666681e+1
-0.083, 4.1509960e-9, -2.7958373e-9, 2.8000015e+1
-0.084, 4.1948125e-9, -2.7844917e-9, 2.8333349e+1
-0.085, 4.2007180e-9, -2.7644005e-9, 2.8666683e+1
-0.086, 4.2261101e-9, -2.7459639e-9, 2.9000017e+1
-0.087, 4.2432351e-9, -2.7401730e-9, 2.9333351e+1
-0.088, 4.2609507e-9, -2.7129905e-9, 2.9666685e+1
-0.089, 4.3794079e-9, -2.6941995e-9, 3.0000019e+1
-0.090, 4.3096091e-9, -2.6892357e-9, 3.0333353e+1
-0.091, 4.3442134e-9, -2.6769447e-9, 3.0666687e+1
-0.092, 4.3533075e-9, -2.6260076e-9, 3.1000021e+1
-0.093, 4.1825299e-9, -2.7439548e-9, 3.1333355e+1
-0.094, 4.5927036e-9, -2.6008344e-9, 3.1666689e+1
-0.095, 4.5027084e-9, -2.5819251e-9, 3.2000023e+1
-0.096, 4.4335002e-9, -2.6307347e-9, 3.2333355e+1
-0.097, 4.6537627e-9, -2.5456426e-9, 3.2666687e+1
-0.098, 4.4996376e-9, -2.5638429e-9, 3.3000019e+1
-0.099, 4.5024722e-9, -2.5640794e-9, 3.3333351e+1
-0.100, 4.4773163e-9, -2.5579336e-9, 3.3666683e+1
-0.101, 4.6189226e-9, -2.5848796e-9, 3.4000015e+1
-0.102, 4.6862412e-9, -2.4248592e-9, 3.4333347e+1
-0.103, 4.1919779e-9, -2.6674900e-9, 3.4666679e+1
-0.104, 4.7031303e-9, -2.5129059e-9, 3.5000011e+1
-0.105, 4.7327742e-9, -2.4760327e-9, 3.5333344e+1
-0.106, 4.7096256e-9, -2.4768598e-9, 3.5666676e+1
-0.107, 4.7425766e-9, -2.4567686e-9, 3.6000008e+1
-0.108, 4.7527338e-9, -2.4475504e-9, 3.6333340e+1
-0.109, 4.7598196e-9, -2.4391593e-9, 3.6666672e+1
-0.110, 4.7735198e-9, -2.4298228e-9, 3.7000004e+1
-0.111, 4.7908810e-9, -2.4180045e-9, 3.7333336e+1
-0.112, 4.7905266e-9, -2.4132771e-9, 3.7666668e+1
-0.113, 4.8278475e-9, -2.4018134e-9, 3.8000000e+1
-0.114, 4.8309183e-9, -2.3923588e-9, 3.8333332e+1
-0.115, 4.8479252e-9, -2.3773494e-9, 3.8666664e+1
-0.116, 4.8791042e-9, -2.3702582e-9, 3.8999996e+1
-0.117, 4.8756794e-9, -2.3580853e-9, 3.9333328e+1
-0.118, 4.8919775e-9, -2.3496942e-9, 3.9666660e+1
-0.119, 4.9124096e-9, -2.3429580e-9, 3.9999992e+1
-0.120, 4.9275268e-9, -2.3283031e-9, 4.0333324e+1
-0.121, 4.9592970e-9, -2.3201487e-9, 4.0666656e+1
-0.122, 4.9623674e-9, -2.3115210e-9, 4.0999989e+1
-0.123, 4.9800830e-9, -2.3049029e-9, 4.1333321e+1
-0.124, 5.0107896e-9, -2.2986393e-9, 4.1666653e+1
-0.125, 4.9986255e-9, -2.2887117e-9, 4.1999985e+1
-0.126, 5.0313398e-9, -2.2825661e-9, 4.2333317e+1
-0.127, 5.0595670e-9, -2.2703932e-9, 4.2666649e+1
-0.128, 5.0566142e-9, -2.2631839e-9, 4.2999981e+1
-0.129, 5.0923994e-9, -2.2584565e-9, 4.3333313e+1
-0.130, 5.0918088e-9, -2.2501840e-9, 4.3666645e+1
-0.131, 5.1085798e-9, -2.2382471e-9, 4.3999977e+1
-0.132, 5.1421210e-9, -2.2305653e-9, 4.4333309e+1
-0.133, 5.1489710e-9, -2.2200470e-9, 4.4666641e+1
-0.134, 5.1780247e-9, -2.2147286e-9, 4.4999973e+1
-0.135, 5.1981019e-9, -2.2076379e-9, 4.5333305e+1
-0.136, 5.1994014e-9, -2.1975921e-9, 4.5666637e+1
-0.137, 5.2344782e-9, -2.1907376e-9, 4.5999969e+1
-0.138, 5.2225495e-9, -2.1896738e-9, 4.6333302e+1
-0.139, 5.2533742e-9, -2.1759645e-9, 4.6666634e+1
-0.140, 5.2766409e-9, -2.1760826e-9, 4.6999966e+1
-0.141, 5.2760503e-9, -2.1682824e-9, 4.7333298e+1
-0.142, 5.3087654e-9, -2.1607189e-9, 4.7666630e+1
-0.143, 5.3276614e-9, -2.1619007e-9, 4.7999962e+1
-0.144, 5.3412434e-9, -2.1564641e-9, 4.8333294e+1
-0.145, 5.3857683e-9, -2.1487823e-9, 4.8666626e+1
-0.146, 5.4062004e-9, -2.1413367e-9, 4.8999958e+1
-0.147, 5.4260418e-9, -2.1289275e-9, 4.9333290e+1
-0.148, 5.4532059e-9, -2.1240820e-9, 4.9666622e+1
-0.149, 5.4561582e-9, -2.1173454e-9, 4.9999954e+1
-0.150, 5.4749365e-9, -2.1106090e-9, 5.0333286e+1
-0.151, 5.5139111e-9, -2.1005635e-9, 5.0666618e+1
-0.152, 5.5142650e-9, -2.1037543e-9, 5.0999950e+1
-0.153, 5.5538298e-9, -2.0952453e-9, 5.1333282e+1
-0.154, 5.5700102e-9, -2.0867359e-9, 5.1666615e+1
-0.155, 5.5845368e-9, -2.0853177e-9, 5.1999947e+1
-0.156, 5.6218576e-9, -2.0786994e-9, 5.2333279e+1
-0.157, 5.6236291e-9, -2.0745632e-9, 5.2666611e+1
-0.158, 5.6582334e-9, -2.0698359e-9, 5.2999943e+1
-0.159, 5.6939005e-9, -2.0636901e-9, 5.3333275e+1
-0.160, 5.7063012e-9, -2.0603810e-9, 5.3666607e+1
-0.161, 5.7465748e-9, -2.0536448e-9, 5.3999939e+1
-0.162, 5.7598020e-9, -2.0463173e-9, 5.4333271e+1
-0.163, 5.7843677e-9, -2.0401716e-9, 5.4666603e+1
-0.164, 5.8274758e-9, -2.0291806e-9, 5.4999935e+1
-0.165, 5.8310183e-9, -2.0373352e-9, 5.5333267e+1
-0.166, 5.8685758e-9, -2.0285895e-9, 5.5666599e+1
-0.167, 5.8962120e-9, -2.0248079e-9, 5.5999931e+1
-0.168, 5.9144001e-9, -2.0198441e-9, 5.6333263e+1
-0.169, 5.9755778e-9, -2.0101532e-9, 5.6666595e+1
-0.170, 5.9644760e-9, -2.0180713e-9, 5.6999928e+1
-0.171, 6.0120717e-9, -2.0102711e-9, 5.7333260e+1
-0.172, 6.0600214e-9, -2.0067259e-9, 5.7666592e+1
-0.173, 6.0763194e-9, -1.9972710e-9, 5.7999924e+1
-0.174, 6.1152940e-9, -1.9996345e-9, 5.8333256e+1
-0.175, 6.1527325e-9, -1.9878161e-9, 5.8666588e+1
-0.176, 6.1691492e-9, -1.9914801e-9, 5.8999920e+1
-0.177, 6.2290280e-9, -1.9802524e-9, 5.9333252e+1
-0.178, 6.2468613e-9, -1.9815525e-9, 5.9666584e+1
-0.179, 6.2707186e-9, -1.9756434e-9, 5.9999916e+1
-0.180, 6.3215033e-9, -1.9712707e-9, 6.0333248e+1
-0.181, 6.3360295e-9, -1.9666615e-9, 6.0666580e+1
-0.182, 6.3698069e-9, -1.9722162e-9, 6.0999912e+1
-0.183, 6.4184658e-9, -1.9603976e-9, 6.1333244e+1
-0.184, 6.4496453e-9, -1.9561432e-9, 6.1666576e+1
-0.185, 6.5060983e-9, -1.9567341e-9, 6.1999908e+1
-0.186, 6.5246404e-9, -1.9563795e-9, 6.2333241e+1
-0.187, 6.5663310e-9, -1.9511792e-9, 6.2666573e+1
-0.188, 6.6231394e-9, -1.9503521e-9, 6.2999905e+1
-0.189, 6.6305801e-9, -1.9445612e-9, 6.3333237e+1
-0.190, 6.6858523e-9, -1.9412520e-9, 6.3666569e+1
-0.191, 6.7373449e-9, -1.9395976e-9, 6.3999901e+1
-0.192, 6.7632095e-9, -1.9355793e-9, 6.4333237e+1
-0.193, 6.8200179e-9, -1.9391246e-9, 6.4666573e+1
-0.194, 6.8432846e-9, -1.9307336e-9, 6.4999908e+1
-0.195, 6.8798967e-9, -1.9338064e-9, 6.5333244e+1
-0.196, 6.9437900e-9, -1.9325064e-9, 6.5666580e+1
-0.197, 6.9656396e-9, -1.9289610e-9, 6.5999916e+1
-0.198, 7.0211486e-9, -1.9271882e-9, 6.6333252e+1
-0.199, 7.0728774e-9, -1.9306154e-9, 6.6666588e+1
-0.200, 7.1164581e-9, -1.9218698e-9, 6.6999924e+1
-0.201, 7.1595654e-9, -1.9232880e-9, 6.7333260e+1
-0.202, 7.1769266e-9, -1.9203334e-9, 6.7666595e+1
-0.203, 7.2358604e-9, -1.9203334e-9, 6.7999931e+1
-0.204, 7.2914870e-9, -1.9280155e-9, 6.8333267e+1
-0.205, 7.3492403e-9, -1.9248243e-9, 6.8666603e+1
-0.206, 7.3867970e-9, -1.9152517e-9, 6.8999939e+1
-0.207, 7.4346280e-9, -1.9225790e-9, 6.9333275e+1
-0.208, 7.4593132e-9, -1.9217516e-9, 6.9666611e+1
-0.209, 7.5357249e-9, -1.9183244e-9, 6.9999947e+1
-0.210, 7.5645419e-9, -1.9192699e-9, 7.0333282e+1
-0.211, 7.6274906e-9, -1.9150150e-9, 7.0666618e+1
-0.212, 7.6806383e-9, -1.9263608e-9, 7.0999954e+1
-0.213, 7.7191400e-9, -1.9177335e-9, 7.1333290e+1
-0.214, 7.7713418e-9, -1.9241153e-9, 7.1666626e+1
-0.215, 7.8348812e-9, -1.9252973e-9, 7.1999962e+1
-0.216, 7.8796427e-9, -1.9269517e-9, 7.2333298e+1
-0.217, 7.9513311e-9, -1.9336881e-9, 7.2666634e+1
-0.218, 7.9945570e-9, -1.9353430e-9, 7.2999969e+1
-0.219, 8.0559710e-9, -1.9365245e-9, 7.3333305e+1
-0.220, 8.1206917e-9, -1.9400701e-9, 7.3666641e+1
-0.221, 8.1588389e-9, -1.9456248e-9, 7.3999977e+1
-0.222, 8.2347800e-9, -1.9521249e-9, 7.4333313e+1
-0.223, 8.3094207e-9, -1.9577977e-9, 7.4666649e+1
-0.224, 8.3600877e-9, -1.9632342e-9, 7.4999985e+1
-0.225, 8.4411074e-9, -1.9676070e-9, 7.5333321e+1
-0.226, 8.4804350e-9, -1.9828525e-9, 7.5666656e+1
-0.227, 8.5461007e-9, -1.9867528e-9, 7.5999992e+1
-0.228, 8.6379854e-9, -1.9940800e-9, 7.6333328e+1
-0.229, 8.6859346e-9, -2.0066075e-9, 7.6666664e+1
-0.230, 8.7632932e-9, -2.0183075e-9, 7.7000000e+1
-0.231, 8.8475014e-9, -2.0272897e-9, 7.7333336e+1
-0.232, 8.9086782e-9, -2.0357989e-9, 7.7666672e+1
-0.233, 9.0006811e-9, -2.0492719e-9, 7.8000008e+1
-0.234, 9.0533554e-9, -2.0643993e-9, 7.8333344e+1
-0.235, 9.1379180e-9, -2.0846085e-9, 7.8666679e+1
-0.236, 9.2320462e-9, -2.0989088e-9, 7.9000015e+1
-0.237, 9.3006642e-9, -2.1156910e-9, 7.9333351e+1
-0.238, 9.3806198e-9, -2.1340094e-9, 7.9666687e+1
-0.239, 9.4888035e-9, -2.1433457e-9, 8.0000023e+1
-0.240, 9.5425401e-9, -2.1784463e-9, 8.0333359e+1
-0.241, 9.6604076e-9, -2.1921556e-9, 8.0666695e+1
-0.242, 9.7278443e-9, -2.2232380e-9, 8.1000031e+1
-0.243, 9.8285868e-9, -2.2264288e-9, 8.1333366e+1
-0.244, 9.9178727e-9, -2.2648388e-9, 8.1666702e+1
-0.245, 9.9970032e-9, -2.2877662e-9, 8.2000038e+1
-0.246, 1.0100461e-8, -2.3169575e-9, 8.2333374e+1
-0.247, 1.0181481e-8, -2.3468578e-9, 8.2666710e+1
-0.248, 1.0275963e-8, -2.3686038e-9, 8.3000046e+1
-0.249, 1.0378713e-8, -2.4100864e-9, 8.3333382e+1
-0.250, 1.0458078e-8, -2.4441231e-9, 8.3666718e+1
-0.251, 1.0560474e-8, -2.4705962e-9, 8.4000053e+1
-0.252, 1.0662398e-8, -2.5020330e-9, 8.4333389e+1
-0.253, 1.0739047e-8, -2.5358335e-9, 8.4666725e+1
-0.254, 1.0853607e-8, -2.5723523e-9, 8.5000061e+1
-0.255, 1.0960727e-8, -2.6086346e-9, 8.5333397e+1
-0.256, 1.1056154e-8, -2.6373532e-9, 8.5666733e+1
-0.257, 1.1160912e-8, -2.6781266e-9, 8.6000069e+1
-0.258, 1.1235200e-8, -2.7147635e-9, 8.6333405e+1
-0.259, 1.1324959e-8, -2.7453730e-9, 8.6666740e+1
-0.260, 1.1430543e-8, -2.7843734e-9, 8.7000076e+1
-0.261, 1.1511444e-8, -2.8191196e-9, 8.7333412e+1
-0.262, 1.1618446e-8, -2.8481928e-9, 8.7666748e+1
-0.263, 1.1700882e-8, -2.8876661e-9, 8.8000084e+1
-0.264, 1.1784381e-8, -2.9258393e-9, 8.8333420e+1
-0.265, 1.1881817e-8, -2.9611762e-9, 8.8666756e+1
-0.266, 1.1935554e-8, -2.9958040e-9, 8.9000092e+1
-0.267, 1.2030037e-8, -3.0325591e-9, 8.9333427e+1
-0.268, 1.2117197e-8, -3.0654139e-9, 8.9666763e+1
-0.269, 1.2162313e-8, -3.0996872e-9, 9.0000099e+1
-0.270, 1.2256913e-8, -3.1419971e-9, 9.0333435e+1
-0.271, 1.2344782e-8, -3.1663430e-9, 9.0666771e+1
-0.272, 1.2390371e-8, -3.1981342e-9, 9.1000107e+1
-0.273, 1.2476704e-8, -3.2318164e-9, 9.1333443e+1
-0.274, 1.2525716e-8, -3.2624261e-9, 9.1666779e+1
-0.275, 1.2594572e-8, -3.2982357e-9, 9.2000114e+1
-0.276, 1.2672520e-8, -3.3297904e-9, 9.2333450e+1
-0.277, 1.2713148e-8, -3.3544914e-9, 9.2666786e+1
-0.278, 1.2777513e-8, -3.3860461e-9, 9.3000122e+1
-0.279, 1.2850029e-8, -3.4151193e-9, 9.3333458e+1
-0.280, 1.2903766e-8, -3.4482106e-9, 9.3666794e+1
-0.281, 1.2976164e-8, -3.4759835e-9, 9.4000130e+1
-0.282, 1.3012068e-8, -3.5074204e-9, 9.4333466e+1
-0.283, 1.3075017e-8, -3.5310570e-9, 9.4666801e+1
-0.284, 1.3149775e-8, -3.5562304e-9, 9.5000137e+1
-0.285, 1.3172334e-8, -3.5854217e-9, 9.5333473e+1
-0.286, 1.3245322e-8, -3.6066949e-9, 9.5666809e+1
-0.287, 1.3299531e-8, -3.6293857e-9, 9.6000145e+1
-0.288, 1.3349843e-8, -3.6557410e-9, 9.6333481e+1
-0.289, 1.3410903e-8, -3.6742960e-9, 9.6666817e+1
-0.290, 1.3446925e-8, -3.6993508e-9, 9.7000153e+1
-0.291, 1.3485308e-8, -3.7219239e-9, 9.7333488e+1
-0.292, 1.3548495e-8, -3.7453241e-9, 9.7666824e+1
-0.293, 1.3581917e-8, -3.7632879e-9, 9.8000160e+1
-0.294, 1.3634001e-8, -3.7856247e-9, 9.8333496e+1
-0.295, 1.3682541e-8, -3.8113890e-9, 9.8666832e+1
-0.296, 1.3721514e-8, -3.8292347e-9, 9.9000168e+1
-0.297, 1.3784464e-8, -3.8482617e-9, 9.9333504e+1
-0.298, 1.3806315e-8, -3.8695349e-9, 9.9666840e+1
-0.299, 1.3862059e-8, -3.8873806e-9, 1.0000018e+2
-0.300, 1.3913788e-8, -3.9099537e-9, 1.0033351e+2
-0.301, 1.3941306e-8, -3.9256722e-9, 1.0066685e+2
-0.302, 1.3993272e-8, -3.9457633e-9, 1.0100018e+2
-0.303, 1.4036851e-8, -3.9617181e-9, 1.0133352e+2
-0.304, 1.4064961e-8, -3.9751908e-9, 1.0166685e+2
-0.305, 1.4127910e-8, -3.9863002e-9, 1.0200019e+2
-0.306, 1.4151530e-8, -4.0068642e-9, 1.0233353e+2
-0.307, 1.4208810e-8, -4.0284918e-9, 1.0266686e+2
-0.308, 1.4253099e-8, -4.0456283e-9, 1.0300020e+2
-0.309, 1.4261012e-8, -4.0556740e-9, 1.0333353e+2
-0.310, 1.4307545e-8, -4.0686743e-9, 1.0366687e+2
-0.311, 1.4347819e-8, -4.0849835e-9, 1.0400021e+2
-0.312, 1.4376871e-8, -4.1012931e-9, 1.0433354e+2
-0.313, 1.4438285e-8, -4.1107477e-9, 1.0466688e+2
-0.314, 1.4455057e-8, -4.1255208e-9, 1.0500021e+2
-0.315, 1.4502534e-8, -4.1432480e-9, 1.0533355e+2
-0.316, 1.4567135e-8, -4.1225663e-9, 1.0566689e+2
-0.317, 1.4535130e-8, -4.1703121e-9, 1.0600022e+2
-0.318, 1.4581899e-8, -4.1925308e-9, 1.0633356e+2
-0.319, 1.4631267e-8, -4.1951305e-9, 1.0666689e+2
-0.320, 1.4652526e-8, -4.2110853e-9, 1.0700023e+2
-0.321, 1.4717247e-8, -4.2074215e-9, 1.0733356e+2
-0.322, 1.4722088e-8, -4.2327133e-9, 1.0766690e+2
-0.323, 1.4761299e-8, -4.2392130e-9, 1.0800024e+2
-0.324, 1.4807005e-8, -4.2464223e-9, 1.0833357e+2
-0.325, 1.4833106e-8, -4.2609587e-9, 1.0866691e+2
-0.326, 1.4875977e-8, -4.2743138e-9, 1.0900024e+2
-0.327, 1.4910228e-8, -4.2793955e-9, 1.0933358e+2
-0.328, 1.4978138e-8, -4.2718318e-9, 1.0966692e+2
-0.329, 1.4970460e-8, -4.3042143e-9, 1.1000025e+2
-0.330, 1.4974241e-8, -4.3383692e-9, 1.1033359e+2
-0.331, 1.5005300e-8, -4.3698063e-9, 1.1066692e+2
-0.332, 1.5091397e-8, -4.3388417e-9, 1.1100026e+2
-0.333, 1.5046284e-8, -4.3771333e-9, 1.1133360e+2
-0.334, 1.5105689e-8, -4.3796153e-9, 1.1166693e+2
-0.335, 1.5141001e-8, -4.3867061e-9, 1.1200027e+2
-0.336, 1.5136159e-8, -4.4056154e-9, 1.1233360e+2
-0.337, 1.5198045e-8, -4.4174340e-9, 1.1266694e+2
-0.338, 1.5215997e-8, -4.4235797e-9, 1.1300027e+2
-0.339, 1.5252965e-8, -4.4356341e-9, 1.1333361e+2
-0.340, 1.5295717e-8, -4.4431978e-9, 1.1366695e+2
-0.341, 1.5306110e-8, -4.4559618e-9, 1.1400028e+2
-0.342, 1.5345675e-8, -4.4677804e-9, 1.1433362e+2
-0.343, 1.5384767e-8, -4.4777075e-9, 1.1466695e+2
-0.344, 1.5392443e-8, -4.4959076e-9, 1.1500029e+2
-0.345, 1.5438385e-8, -4.5044168e-9, 1.1533363e+2
-0.346, 1.5448425e-8, -4.5129265e-9, 1.1566696e+2
-0.347, 1.5478777e-8, -4.5250994e-9, 1.1600030e+2
-0.348, 1.5519406e-8, -4.5412900e-9, 1.1633363e+2
-0.349, 1.5515980e-8, -4.5475539e-9, 1.1666697e+2
-0.350, 1.5563694e-8, -4.5547637e-9, 1.1700031e+2
-0.351, 1.5596408e-8, -4.5651634e-9, 1.1733364e+2
-0.352, 1.5617784e-8, -4.5799360e-9, 1.1766698e+2
-0.353, 1.5660893e-8, -4.5846638e-9, 1.1800031e+2
-0.354, 1.5666680e-8, -4.6014459e-9, 1.1833365e+2
-0.355, 1.5694081e-8, -4.6116098e-9, 1.1866698e+2
-0.356, 1.5728803e-8, -4.6234279e-9, 1.1900032e+2
-0.357, 1.5744510e-8, -4.6322914e-9, 1.1933366e+2
-0.358, 1.5780888e-8, -4.6467101e-9, 1.1966699e+2
-0.359, 1.5817262e-8, -4.6467101e-9, 1.2000033e+2
-0.360, 1.5828482e-8, -4.6688107e-9, 1.2033366e+2
-0.361, 1.5876550e-8, -4.6793289e-9, 1.2066700e+2
-0.362, 1.5880094e-8, -4.6941016e-9, 1.2100034e+2
-0.363, 1.5923437e-8, -4.6985926e-9, 1.2133367e+2
-0.364, 1.5962648e-8, -4.7170290e-9, 1.2166701e+2
-0.365, 1.5976939e-8, -4.7228204e-9, 1.2200034e+2
-0.366, 1.6011779e-8, -4.7387752e-9, 1.2233368e+2
-0.367, 1.6044138e-8, -4.7474025e-9, 1.2266702e+2
-0.368, 1.6063744e-8, -4.7598117e-9, 1.2300035e+2
-0.369, 1.6119253e-8, -4.7725757e-9, 1.2333369e+2
-0.370, 1.6139449e-8, -4.7823847e-9, 1.2366702e+2
-0.371, 1.6176415e-8, -4.7918394e-9, 1.2400036e+2
-0.372, 1.6215154e-8, -4.8093307e-9, 1.2433369e+2
-0.373, 1.6244325e-8, -4.8226858e-9, 1.2466703e+2
-0.374, 1.6278575e-8, -4.8335584e-9, 1.2500037e+2
-0.375, 1.6318140e-8, -4.8465583e-9, 1.2533370e+2
-0.376, 1.6349674e-8, -4.8587312e-9, 1.2566704e+2
-0.377, 1.6409315e-8, -4.8706679e-9, 1.2600037e+2
-0.378, 1.6424314e-8, -4.8881592e-9, 1.2633371e+2
-0.379, 1.6464941e-8, -4.8987956e-9, 1.2666705e+2
-0.380, 1.6516672e-8, -4.9074234e-9, 1.2700038e+2
-0.381, 1.6523048e-8, -4.9298778e-9, 1.2733372e+2
-0.382, 1.6589185e-8, -4.9427600e-9, 1.2766705e+2
-0.383, 1.6639971e-8, -4.9568238e-9, 1.2800038e+2
-0.384, 1.6660048e-8, -4.9726605e-9, 1.2833371e+2
-0.385, 1.6722053e-8, -4.9848334e-9, 1.2866704e+2
-0.386, 1.6742129e-8, -4.9990150e-9, 1.2900037e+2
-0.387, 1.6779097e-8, -5.0134341e-9, 1.2933369e+2
-0.388, 1.6835786e-8, -5.0321067e-9, 1.2966702e+2
-0.389, 1.6856337e-8, -5.0516071e-9, 1.3000035e+2
-0.390, 1.6919405e-8, -5.0614162e-9, 1.3033368e+2
-0.391, 1.6959559e-8, -5.0811528e-9, 1.3066701e+2
-0.392, 1.6997353e-8, -5.0945075e-9, 1.3100034e+2
-0.393, 1.7054042e-8, -5.1114077e-9, 1.3133366e+2
-0.394, 1.7084750e-8, -5.1228719e-9, 1.3166699e+2
-0.395, 1.7138250e-8, -5.1404809e-9, 1.3200032e+2
-0.396, 1.7200726e-8, -5.1564357e-9, 1.3233365e+2
-0.397, 1.7223758e-8, -5.1759361e-9, 1.3266698e+2
-0.398, 1.7280328e-8, -5.1952003e-9, 1.3300031e+2
-0.399, 1.7337845e-8, -5.2097366e-9, 1.3333363e+2
