Jan. 27, 2006   23:24:38
Cyclic Voltammetry
File: z:\users\scottsaunders\git\labwork\ida\01_17_19_psoralen_nonequil_2\data\control\0um_control_transfer_gc_1.txt
Data Source:  Experiment
Instrument Model:  CHI760E
Header: 
Note: 

Init E (V) = 0
High E (V) = 0
Low E (V) = -0.4
Init P/N = N
Scan Rate (V/s) = 0.003
Segment = 1
Sample Interval (V) = 0.001
Quiet Time (sec) = 2
Sensitivity (A/V) = 1e-7
2nd E (V) = 0.1
Sens 2 (A/V) = 1e-7

Potential/V, i1/A, i2/A, Time/s

0.000, -1.5296866e-8, -3.1609638e-8, 3.3333334e-1
-0.001, -1.3380996e-8, -2.9696402e-8, 6.6666669e-1
-0.002, -1.1971092e-8, -2.7867758e-8, 1.0000000e+0
-0.003, -1.0781820e-8, -2.6378054e-8, 1.3333334e+0
-0.004, -9.7121298e-9, -2.5046992e-8, 1.6666667e+0
-0.005, -8.7720071e-9, -2.3954058e-8, 2.0000000e+0
-0.006, -8.0044282e-9, -2.2887484e-8, 2.3333333e+0
-0.007, -7.2394855e-9, -2.2002640e-8, 2.6666665e+0
-0.008, -6.6153736e-9, -2.1128338e-8, 2.9999998e+0
-0.009, -6.0251311e-9, -2.0330406e-8, 3.3333330e+0
-0.010, -5.4267408e-9, -1.9620661e-8, 3.6666663e+0
-0.011, -4.9558411e-9, -1.8948061e-8, 3.9999995e+0
-0.012, -4.5595501e-9, -1.8321392e-8, 4.3333330e+0
-0.013, -4.1570285e-9, -1.7789624e-8, 4.6666665e+0
-0.014, -3.7302228e-9, -1.7254658e-8, 5.0000000e+0
-0.015, -3.3416807e-9, -1.6768261e-8, 5.3333335e+0
-0.016, -3.0442828e-9, -1.6306547e-8, 5.6666670e+0
-0.017, -2.7536751e-9, -1.5839003e-8, 6.0000005e+0
-0.018, -2.4268809e-9, -1.5390231e-8, 6.3333340e+0
-0.019, -2.2035329e-9, -1.4977404e-8, 6.6666675e+0
-0.020, -1.8796145e-9, -1.4625288e-8, 7.0000010e+0
-0.021, -1.6665712e-9, -1.4329088e-8, 7.3333344e+0
-0.022, -1.3766822e-9, -1.3910350e-8, 7.6666679e+0
-0.023, -1.2330557e-9, -1.3567659e-8, 8.0000010e+0
-0.024, -9.8646225e-10, -1.3342714e-8, 8.3333340e+0
-0.025, -7.9650470e-10, -1.2962240e-8, 8.6666670e+0
-0.026, -6.6238409e-10, -1.2743126e-8, 9.0000000e+0
-0.027, -4.8209214e-10, -1.2448044e-8, 9.3333330e+0
-0.028, -3.0291852e-10, -1.2276619e-8, 9.6666660e+0
-0.029, -2.2575325e-10, -1.1949107e-8, 9.9999990e+0
-0.030, -1.1887215e-10, -1.1658897e-8, 1.0333332e+1
-0.031, 1.1765619e-10, -1.1436508e-8, 1.0666665e+1
-0.032, 2.1646929e-10, -1.1286412e-8, 1.0999998e+1
-0.033, 3.1200725e-10, -1.0998121e-8, 1.1333331e+1
-0.034, 4.6977272e-10, -1.0889961e-8, 1.1666664e+1
-0.035, 6.3384875e-10, -1.0668530e-8, 1.1999997e+1
-0.036, 7.0566203e-10, -1.0487839e-8, 1.2333330e+1
-0.037, 7.7651663e-10, -1.0372490e-8, 1.2666663e+1
-0.038, 8.2835955e-10, -1.0171749e-8, 1.2999996e+1
-0.039, 9.6839137e-10, -9.9806723e-9, 1.3333329e+1
-0.040, 1.1307900e-9, -9.8265822e-9, 1.3666662e+1
-0.041, 1.1909405e-9, -9.5776720e-9, 1.3999995e+1
-0.042, 1.2465379e-9, -9.4851700e-9, 1.4333328e+1
-0.043, 1.3291350e-9, -9.3927470e-9, 1.4666661e+1
-0.044, 1.4483179e-9, -9.2466435e-9, 1.4999994e+1
-0.045, 1.5752493e-9, -9.0498169e-9, 1.5333327e+1
-0.046, 1.6382754e-9, -8.9821572e-9, 1.5666660e+1
-0.047, 1.6808521e-9, -8.8831840e-9, 1.5999993e+1
-0.048, 1.7162396e-9, -8.7066461e-9, 1.6333326e+1
-0.049, 1.7467542e-9, -8.5538341e-9, 1.6666660e+1
-0.050, 1.8243987e-9, -8.5059852e-9, 1.6999994e+1
-0.051, 1.9077948e-9, -8.4328136e-9, 1.7333328e+1
-0.052, 2.0338473e-9, -8.3667517e-9, 1.7666662e+1
-0.053, 2.1259503e-9, -8.1958857e-9, 1.7999996e+1
-0.054, 2.1585420e-9, -8.0637630e-9, 1.8333330e+1
-0.055, 2.1866602e-9, -8.0039317e-9, 1.8666664e+1
-0.056, 2.2369055e-9, -7.9145446e-9, 1.8999998e+1
-0.057, 2.2970561e-9, -7.7778672e-9, 1.9333332e+1
-0.058, 2.3826887e-9, -7.6210602e-9, 1.9666666e+1
-0.059, 2.4774280e-9, -7.5512450e-9, 2.0000000e+1
-0.060, 2.5370193e-9, -7.5114635e-9, 2.0333334e+1
-0.061, 2.6065958e-9, -7.4580226e-9, 2.0666668e+1
-0.062, 2.6410247e-9, -7.4067392e-9, 2.1000002e+1
-0.063, 2.6771310e-9, -7.3162338e-9, 2.1333336e+1
-0.064, 2.7014946e-9, -7.1952941e-9, 2.1666670e+1
-0.065, 2.7259384e-9, -7.0873747e-9, 2.2000004e+1
-0.066, 2.7536571e-9, -7.0512676e-9, 2.2333338e+1
-0.067, 2.7646010e-9, -7.0169985e-9, 2.2666672e+1
-0.068, 2.7880063e-9, -6.9584458e-9, 2.3000006e+1
-0.069, 2.8312219e-9, -6.8967774e-9, 2.3333340e+1
-0.070, 2.8737188e-9, -6.8041155e-9, 2.3666674e+1
-0.071, 2.9662213e-9, -6.7177641e-9, 2.4000008e+1
-0.072, 3.0425078e-9, -6.6429950e-9, 2.4333342e+1
-0.073, 3.0780549e-9, -6.5922703e-9, 2.4666676e+1
-0.074, 3.1095282e-9, -6.5601582e-9, 2.5000010e+1
-0.075, 3.1342913e-9, -6.5246106e-9, 2.5333344e+1
-0.076, 3.1564984e-9, -6.4821939e-9, 2.5666677e+1
-0.077, 3.1780665e-9, -6.4432122e-9, 2.6000011e+1
-0.078, 3.1961196e-9, -6.3880936e-9, 2.6333345e+1
-0.079, 3.2243974e-9, -6.2964700e-9, 2.6666679e+1
-0.080, 3.2492404e-9, -6.1826393e-9, 2.7000013e+1
-0.081, 3.2653764e-9, -6.1183347e-9, 2.7333347e+1
-0.082, 3.3215330e-9, -6.0780745e-9, 2.7666681e+1
-0.083, 3.3435803e-9, -6.0521930e-9, 2.8000015e+1
-0.084, 3.3945446e-9, -6.0202408e-9, 2.8333349e+1
-0.085, 3.4342453e-9, -5.9740692e-9, 2.8666683e+1
-0.086, 3.4656387e-9, -5.9250223e-9, 2.9000017e+1
-0.087, 3.5286651e-9, -5.8615965e-9, 2.9333351e+1
-0.088, 3.5610170e-9, -5.7741265e-9, 2.9666685e+1
-0.089, 3.5815464e-9, -5.6935265e-9, 3.0000019e+1
-0.090, 3.6024754e-9, -5.6316187e-9, 3.0333353e+1
-0.091, 3.6214869e-9, -5.6007043e-9, 3.0666687e+1
-0.092, 3.6239631e-9, -5.5846483e-9, 3.1000021e+1
-0.093, 3.6406584e-9, -5.5673142e-9, 3.1333355e+1
-0.094, 3.6508034e-9, -5.5481428e-9, 3.1666689e+1
-0.095, 3.6711731e-9, -5.5119562e-9, 3.2000023e+1
-0.096, 3.6849928e-9, -5.4868736e-9, 3.2333355e+1
-0.097, 3.6923415e-9, -5.4577969e-9, 3.2666687e+1
-0.098, 3.7247734e-9, -5.4201732e-9, 3.3000019e+1
-0.099, 3.7298062e-9, -5.3723239e-9, 3.3333351e+1
-0.100, 3.7565662e-9, -5.3083391e-9, 3.3666683e+1
-0.101, 3.7802113e-9, -5.2384430e-9, 3.4000015e+1
-0.102, 3.8042551e-9, -5.1758162e-9, 3.4333347e+1
-0.103, 3.8493084e-9, -5.1350764e-9, 3.4666679e+1
-0.104, 3.8967576e-9, -5.1113522e-9, 3.5000011e+1
-0.105, 3.9087400e-9, -5.0983315e-9, 3.5333344e+1
-0.106, 3.9545918e-9, -5.0871480e-9, 3.5666676e+1
-0.107, 3.9893400e-9, -5.0714912e-9, 3.6000008e+1
-0.108, 4.0106682e-9, -5.0521600e-9, 3.6333340e+1
-0.109, 4.0437391e-9, -5.0250004e-9, 3.6666672e+1
-0.110, 4.0520467e-9, -5.0007163e-9, 3.7000004e+1
-0.111, 4.0961416e-9, -4.9650892e-9, 3.7333336e+1
-0.112, 4.1030912e-9, -4.9306608e-9, 3.7666668e+1
-0.113, 4.1060466e-9, -4.8840101e-9, 3.8000000e+1
-0.114, 4.1197064e-9, -4.8321671e-9, 3.8333332e+1
-0.115, 4.1295318e-9, -4.7824011e-9, 3.8666664e+1
-0.116, 4.1352033e-9, -4.7331943e-9, 3.8999996e+1
-0.117, 4.1501411e-9, -4.6950110e-9, 3.9333328e+1
-0.118, 4.1568509e-9, -4.6684905e-9, 3.9666660e+1
-0.119, 4.1654782e-9, -4.6401327e-9, 3.9999992e+1
-0.120, 4.1923980e-9, -4.6250350e-9, 4.0333324e+1
-0.121, 4.1890433e-9, -4.6136117e-9, 4.0666656e+1
-0.122, 4.2083745e-9, -4.6048250e-9, 4.0999989e+1
-0.123, 4.2322590e-9, -4.5961182e-9, 4.1333321e+1
-0.124, 4.2446406e-9, -4.5861328e-9, 4.1666653e+1
-0.125, 4.2602175e-9, -4.5739910e-9, 4.1999985e+1
-0.126, 4.2675663e-9, -4.5552189e-9, 4.2333317e+1
-0.127, 4.3190100e-9, -4.5346091e-9, 4.2666649e+1
-0.128, 4.3409774e-9, -4.5178341e-9, 4.2999981e+1
-0.129, 4.3405781e-9, -4.4969855e-9, 4.3333313e+1
-0.130, 4.3932995e-9, -4.4784527e-9, 4.3666645e+1
-0.131, 4.4195003e-9, -4.4534501e-9, 4.3999977e+1
-0.132, 4.4376338e-9, -4.4279682e-9, 4.4333309e+1
-0.133, 4.4978643e-9, -4.3929802e-9, 4.4666641e+1
-0.134, 4.4854027e-9, -4.3620663e-9, 4.4999973e+1
-0.135, 4.5130415e-9, -4.3271577e-9, 4.5333305e+1
-0.136, 4.5266213e-9, -4.2614956e-9, 4.5666637e+1
-0.137, 4.5413993e-9, -4.2356940e-9, 4.5999969e+1
-0.138, 4.5669610e-9, -4.1958335e-9, 4.6333302e+1
-0.139, 4.5620090e-9, -4.1670760e-9, 4.6666634e+1
-0.140, 4.5793431e-9, -4.1451087e-9, 4.6999966e+1
-0.141, 4.5846953e-9, -4.1294519e-9, 4.7333298e+1
-0.142, 4.5886090e-9, -4.1192272e-9, 4.7666630e+1
-0.143, 4.6017097e-9, -4.1122772e-9, 4.7999962e+1
-0.144, 4.6083399e-9, -4.1046087e-9, 4.8333294e+1
-0.145, 4.6077808e-9, -4.0939847e-9, 4.8666626e+1
-0.146, 4.6251150e-9, -4.0833603e-9, 4.8999958e+1
-0.147, 4.6204818e-9, -4.0712180e-9, 4.9333290e+1
-0.148, 4.6379758e-9, -4.0587569e-9, 4.9666622e+1
-0.149, 4.6423692e-9, -4.0438990e-9, 4.9999954e+1
-0.150, 4.6509965e-9, -4.0250470e-9, 5.0333286e+1
-0.151, 4.6572270e-9, -4.0062749e-9, 5.0666618e+1
-0.152, 4.6724846e-9, -3.9910177e-9, 5.0999950e+1
-0.153, 4.6729638e-9, -3.9658552e-9, 5.1333282e+1
-0.154, 4.6856652e-9, -3.9486006e-9, 5.1666615e+1
-0.155, 4.6889399e-9, -3.9171275e-9, 5.1999947e+1
-0.156, 4.7010018e-9, -3.8829384e-9, 5.2333279e+1
-0.157, 4.7097890e-9, -3.8617696e-9, 5.2666611e+1
-0.158, 4.7153810e-9, -3.8353289e-9, 5.2999943e+1
-0.159, 4.7236086e-9, -3.7984242e-9, 5.3333275e+1
-0.160, 4.7290403e-9, -3.7747792e-9, 5.3666607e+1
-0.161, 4.7367892e-9, -3.7480987e-9, 5.3999939e+1
-0.162, 4.7487712e-9, -3.7171848e-9, 5.4333271e+1
-0.163, 4.7534043e-9, -3.6964156e-9, 5.4666603e+1
-0.164, 4.7653863e-9, -3.6786820e-9, 5.4999935e+1
-0.165, 4.7966999e-9, -3.6626258e-9, 5.5333267e+1
-0.166, 4.8143538e-9, -3.6488064e-9, 5.5666599e+1
-0.167, 4.8109987e-9, -3.6436938e-9, 5.5999931e+1
-0.168, 4.8477440e-9, -3.6350667e-9, 5.6333263e+1
-0.169, 4.8683533e-9, -3.6293153e-9, 5.6666595e+1
-0.170, 4.8868860e-9, -3.6235639e-9, 5.6999928e+1
-0.171, 4.9242703e-9, -3.6174130e-9, 5.7333260e+1
-0.172, 4.9428026e-9, -3.6164545e-9, 5.7666592e+1
-0.173, 4.9781099e-9, -3.6066290e-9, 5.7999924e+1
-0.174, 4.9810658e-9, -3.6005579e-9, 5.8333256e+1
-0.175, 5.0122990e-9, -3.5935286e-9, 5.8666588e+1
-0.176, 5.0315507e-9, -3.5821055e-9, 5.8999920e+1
-0.177, 5.0474469e-9, -3.5757948e-9, 5.9333252e+1
-0.178, 5.0713318e-9, -3.5656500e-9, 5.9666584e+1
-0.179, 5.0746065e-9, -3.5513512e-9, 5.9999916e+1
-0.180, 5.0796389e-9, -3.5415260e-9, 6.0333248e+1
-0.181, 5.0942575e-9, -3.5359342e-9, 6.0666580e+1
-0.182, 5.0993698e-9, -3.5254699e-9, 6.0999912e+1
-0.183, 5.0975326e-9, -3.5158840e-9, 6.1333244e+1
-0.184, 5.1066391e-9, -3.5072569e-9, 6.1666576e+1
-0.185, 5.1099143e-9, -3.4977512e-9, 6.1999908e+1
-0.186, 5.1266889e-9, -3.4904017e-9, 6.2333241e+1
-0.187, 5.1326805e-9, -3.4769818e-9, 6.2666573e+1
-0.188, 5.1408282e-9, -3.4606860e-9, 6.2999905e+1
-0.189, 5.1512128e-9, -3.4579701e-9, 6.3333237e+1
-0.190, 5.1580824e-9, -3.4345649e-9, 6.3666569e+1
-0.191, 5.1746980e-9, -3.4182690e-9, 6.3999901e+1
-0.192, 5.1823665e-9, -3.3959822e-9, 6.4333237e+1
-0.193, 5.1897153e-9, -3.3816037e-9, 6.4666573e+1
-0.194, 5.2197509e-9, -3.3554026e-9, 6.4999908e+1
-0.195, 5.2108042e-9, -3.3296008e-9, 6.5333244e+1
-0.196, 5.2266209e-9, -3.3095509e-9, 6.5666580e+1
-0.197, 5.2682387e-9, -3.2896605e-9, 6.5999916e+1
-0.198, 5.2755080e-9, -3.2697700e-9, 6.6333252e+1
-0.199, 5.2969162e-9, -3.2500393e-9, 6.6666588e+1
-0.200, 5.3465223e-9, -3.2269534e-9, 6.6999924e+1
-0.201, 5.3518745e-9, -3.2119361e-9, 6.7333260e+1
-0.202, 5.3770370e-9, -3.2003529e-9, 6.7666595e+1
-0.203, 5.4057145e-9, -3.1858947e-9, 6.7999931e+1
-0.204, 5.4415810e-9, -3.1731135e-9, 6.8333267e+1
-0.205, 5.4021996e-9, -3.1636875e-9, 6.8666603e+1
-0.206, 5.4796043e-9, -3.1596137e-9, 6.8999939e+1
-0.207, 5.5065246e-9, -3.1523444e-9, 6.9333275e+1
-0.208, 5.5222613e-9, -3.1481107e-9, 6.9666611e+1
-0.209, 5.5431104e-9, -3.1445160e-9, 6.9999947e+1
-0.210, 5.5605240e-9, -3.1399630e-9, 7.0333282e+1
-0.211, 5.5650773e-9, -3.1362084e-9, 7.0666618e+1
-0.212, 5.5784977e-9, -3.1323741e-9, 7.0999954e+1
-0.213, 5.5911986e-9, -3.1292589e-9, 7.1333290e+1
-0.214, 5.5985478e-9, -3.1239866e-9, 7.1666626e+1
-0.215, 5.6068550e-9, -3.1180756e-9, 7.1999962e+1
-0.216, 5.6217933e-9, -3.1179956e-9, 7.2333298e+1
-0.217, 5.6316187e-9, -3.1145606e-9, 7.2666634e+1
-0.218, 5.6488725e-9, -3.1067324e-9, 7.2999969e+1
-0.219, 5.6606955e-9, -3.1023388e-9, 7.3333305e+1
-0.220, 5.6827427e-9, -3.0955489e-9, 7.3666641e+1
-0.221, 5.7015943e-9, -3.0912353e-9, 7.3999977e+1
-0.222, 5.7185292e-9, -3.0843654e-9, 7.4333313e+1
-0.223, 5.7514402e-9, -3.0759779e-9, 7.4666649e+1
-0.224, 5.7718101e-9, -3.0681497e-9, 7.4999985e+1
-0.225, 5.7883454e-9, -3.0636764e-9, 7.5333321e+1
-0.226, 5.8772534e-9, -3.0541703e-9, 7.5666656e+1
-0.227, 5.8933094e-9, -3.0473803e-9, 7.5999992e+1
-0.228, 5.9272587e-9, -3.0438658e-9, 7.6333328e+1
-0.229, 5.9966760e-9, -3.0321232e-9, 7.6666664e+1
-0.230, 6.0140102e-9, -3.0196616e-9, 7.7000000e+1
-0.231, 6.0406102e-9, -3.0164664e-9, 7.7333336e+1
-0.232, 6.0650538e-9, -3.0123126e-9, 7.7666672e+1
-0.233, 6.0724030e-9, -3.0004903e-9, 7.8000008e+1
-0.234, 6.0860628e-9, -2.9955376e-9, 7.8333344e+1
-0.235, 6.1055538e-9, -2.9869105e-9, 7.8666679e+1
-0.236, 6.1238468e-9, -2.9775644e-9, 7.9000015e+1
-0.237, 6.1355094e-9, -2.9651828e-9, 7.9333351e+1
-0.238, 6.1745711e-9, -2.9584726e-9, 7.9666687e+1
-0.239, 6.1956600e-9, -2.9416178e-9, 8.0000023e+1
-0.240, 6.2400742e-9, -2.9364255e-9, 8.0333359e+1
-0.241, 6.2631593e-9, -2.9233249e-9, 8.0666695e+1
-0.242, 6.3185968e-9, -2.9127007e-9, 8.1000031e+1
-0.243, 6.3744343e-9, -2.8991209e-9, 8.1333366e+1
-0.244, 6.4189281e-9, -2.8951268e-9, 8.1666702e+1
-0.245, 6.4702914e-9, -2.8818665e-9, 8.2000038e+1
-0.246, 6.4950547e-9, -2.8730798e-9, 8.2333374e+1
-0.247, 6.5290040e-9, -2.8561449e-9, 8.2666710e+1
-0.248, 6.5548065e-9, -2.8500737e-9, 8.3000046e+1
-0.249, 6.5707826e-9, -2.8389704e-9, 8.3333382e+1
-0.250, 6.5942674e-9, -2.8257101e-9, 8.3666718e+1
-0.251, 6.6114421e-9, -2.8103728e-9, 8.4000053e+1
-0.252, 6.6298940e-9, -2.8032634e-9, 8.4333389e+1
-0.253, 6.6477077e-9, -2.7943967e-9, 8.4666725e+1
-0.254, 6.6598500e-9, -2.7876865e-9, 8.5000061e+1
-0.255, 6.6818173e-9, -2.7758642e-9, 8.5333397e+1
-0.256, 6.6940391e-9, -2.7693139e-9, 8.5666733e+1
-0.257, 6.7018675e-9, -2.7582103e-9, 8.6000069e+1
-0.258, 6.7435653e-9, -2.7542164e-9, 8.6333405e+1
-0.259, 6.7899766e-9, -2.7483051e-9, 8.6666740e+1
-0.260, 6.8268813e-9, -2.7360036e-9, 8.7000076e+1
-0.261, 6.9006116e-9, -2.7320892e-9, 8.7333412e+1
-0.262, 6.9435084e-9, -2.7239415e-9, 8.7666748e+1
-0.263, 6.9957502e-9, -2.7199474e-9, 8.8000084e+1
-0.264, 7.0257062e-9, -2.7129976e-9, 8.8333420e+1
-0.265, 7.0485520e-9, -2.7092433e-9, 8.8666756e+1
-0.266, 7.0599753e-9, -2.7045302e-9, 8.9000092e+1
-0.267, 7.0754722e-9, -2.6941456e-9, 8.9333427e+1
-0.268, 7.0971198e-9, -2.6918290e-9, 8.9666763e+1
-0.269, 7.1186879e-9, -2.6886338e-9, 9.0000099e+1
-0.270, 7.1555930e-9, -2.6868765e-9, 9.0333435e+1
-0.271, 7.1944952e-9, -2.6804858e-9, 9.0666771e+1
-0.272, 7.2243704e-9, -2.6747347e-9, 9.1000107e+1
-0.273, 7.2584800e-9, -2.6743350e-9, 9.1333443e+1
-0.274, 7.3500237e-9, -2.6692226e-9, 9.1666779e+1
-0.275, 7.3850117e-9, -2.6673057e-9, 9.2000114e+1
-0.276, 7.4305437e-9, -2.6641103e-9, 9.2333450e+1
-0.277, 7.4834254e-9, -2.6613145e-9, 9.2666786e+1
-0.278, 7.5009998e-9, -2.6571607e-9, 9.3000122e+1
-0.279, 7.5315141e-9, -2.6562819e-9, 9.3333458e+1
-0.280, 7.5489286e-9, -2.6538058e-9, 9.3666794e+1
-0.281, 7.5561175e-9, -2.6510896e-9, 9.4000130e+1
-0.282, 7.5816793e-9, -2.6501312e-9, 9.4333466e+1
-0.283, 7.6074809e-9, -2.6470957e-9, 9.4666801e+1
-0.284, 7.6348003e-9, -2.6452585e-9, 9.5000137e+1
-0.285, 7.6742621e-9, -2.6431015e-9, 9.5333473e+1
-0.286, 7.7218711e-9, -2.6419034e-9, 9.5666809e+1
-0.287, 7.7974391e-9, -2.6389477e-9, 9.6000145e+1
-0.288, 7.8675741e-9, -2.6363116e-9, 9.6333481e+1
-0.289, 7.9055980e-9, -2.6355129e-9, 9.6666817e+1
-0.290, 7.9918703e-9, -2.6322378e-9, 9.7000153e+1
-0.291, 8.0102422e-9, -2.6272051e-9, 9.7333488e+1
-0.292, 8.0342062e-9, -2.6300808e-9, 9.7666824e+1
-0.293, 8.0581710e-9, -2.6261666e-9, 9.8000160e+1
-0.294, 8.0814964e-9, -2.6233709e-9, 9.8333496e+1
-0.295, 8.1189606e-9, -2.6204152e-9, 9.8666832e+1
-0.296, 8.1805487e-9, -2.6152231e-9, 9.9000168e+1
-0.297, 8.2222469e-9, -2.6178590e-9, 9.9333504e+1
-0.298, 8.2876701e-9, -2.6117881e-9, 9.9666840e+1
-0.299, 8.3546903e-9, -2.6086728e-9, 1.0000018e+2
-0.300, 8.4074117e-9, -2.6077942e-9, 1.0033351e+2
-0.301, 8.4529441e-9, -2.6050779e-9, 1.0066685e+2
-0.302, 8.4837781e-9, -2.6009244e-9, 1.0100018e+2
-0.303, 8.5144531e-9, -2.6009244e-9, 1.0133352e+2
-0.304, 8.5318659e-9, -2.5978888e-9, 1.0166685e+2
-0.305, 8.5499998e-9, -2.5952527e-9, 1.0200019e+2
-0.306, 8.5805940e-9, -2.5934155e-9, 1.0233353e+2
-0.307, 8.6061558e-9, -2.5934155e-9, 1.0266686e+2
-0.308, 8.6377892e-9, -2.5832705e-9, 1.0300020e+2
-0.309, 8.7045704e-9, -2.5855871e-9, 1.0333353e+2
-0.310, 8.7591294e-9, -2.5855071e-9, 1.0366687e+2
-0.311, 8.8465990e-9, -2.5803149e-9, 1.0400021e+2
-0.312, 8.9029948e-9, -2.5783180e-9, 1.0433354e+2
-0.313, 8.9488470e-9, -2.5778386e-9, 1.0466688e+2
-0.314, 8.9938998e-9, -2.5783180e-9, 1.0500021e+2
-0.315, 9.0125916e-9, -2.5739244e-9, 1.0533355e+2
-0.316, 9.0342400e-9, -2.5764806e-9, 1.0566689e+2
-0.317, 9.0625969e-9, -2.5735249e-9, 1.0600022e+2
-0.318, 9.0895975e-9, -2.5716878e-9, 1.0633356e+2
-0.319, 9.1503072e-9, -2.5670546e-9, 1.0666689e+2
-0.320, 9.1987147e-9, -2.5676139e-9, 1.0700023e+2
-0.321, 9.2503187e-9, -2.5644185e-9, 1.0733356e+2
-0.322, 9.3480130e-9, -2.5640992e-9, 1.0766690e+2
-0.323, 9.3808445e-9, -2.5618625e-9, 1.0800024e+2
-0.324, 9.4393169e-9, -2.5605045e-9, 1.0833357e+2
-0.325, 9.4935571e-9, -2.5588269e-9, 1.0866691e+2
-0.326, 9.5025037e-9, -2.5581879e-9, 1.0900024e+2
-0.327, 9.5196775e-9, -2.5606641e-9, 1.0933358e+2
-0.328, 9.5514707e-9, -2.5595459e-9, 1.0966692e+2
-0.329, 9.5911723e-9, -2.5585871e-9, 1.1000025e+2
-0.330, 9.6264792e-9, -2.5560309e-9, 1.1033359e+2
-0.331, 9.6915826e-9, -2.5544336e-9, 1.1066692e+2
-0.332, 9.7869606e-9, -2.5557114e-9, 1.1100026e+2
-0.333, 9.8654036e-9, -2.5509985e-9, 1.1133360e+2
-0.334, 9.9305870e-9, -2.5479630e-9, 1.1166693e+2
-0.335, 9.9757997e-9, -2.5475637e-9, 1.1200027e+2
-0.336, 1.0010148e-8, -2.5539542e-9, 1.1233360e+2
-0.337, 1.0030758e-8, -2.5523563e-9, 1.1266694e+2
-0.338, 1.0103371e-8, -2.5454070e-9, 1.1300027e+2
-0.339, 1.0151698e-8, -2.5499600e-9, 1.1333361e+2
-0.340, 1.0228464e-8, -2.5509186e-9, 1.1366695e+2
-0.341, 1.0332309e-8, -2.5470044e-9, 1.1400028e+2
-0.342, 1.0374807e-8, -2.5472440e-9, 1.1433362e+2
-0.343, 1.0422097e-8, -2.5478830e-9, 1.1466695e+2
-0.344, 1.0470105e-8, -2.5528359e-9, 1.1500029e+2
-0.345, 1.0501259e-8, -2.5486819e-9, 1.1533363e+2
-0.346, 1.0537525e-8, -2.5486020e-9, 1.1566696e+2
-0.347, 1.0566522e-8, -2.5518772e-9, 1.1600030e+2
-0.348, 1.0604226e-8, -2.5532352e-9, 1.1633363e+2
-0.349, 1.0634181e-8, -2.5500397e-9, 1.1666697e+2
-0.350, 1.0687542e-8, -2.5537943e-9, 1.1700031e+2
-0.351, 1.0792905e-8, -2.5566702e-9, 1.1733364e+2
-0.352, 1.0867275e-8, -2.5589866e-9, 1.1766698e+2
-0.353, 1.0915842e-8, -2.5594660e-9, 1.1800031e+2
-0.354, 1.0973197e-8, -2.5629807e-9, 1.1833365e+2
-0.355, 1.0992129e-8, -2.5631404e-9, 1.1866698e+2
-0.356, 1.1013617e-8, -2.5644984e-9, 1.1900032e+2
-0.357, 1.1077842e-8, -2.5680931e-9, 1.1933366e+2
-0.358, 1.1117622e-8, -2.5687323e-9, 1.1966699e+2
-0.359, 1.1188397e-8, -2.5762410e-9, 1.2000033e+2
-0.360, 1.1276027e-8, -2.5766405e-9, 1.2033366e+2
-0.361, 1.1345763e-8, -2.5799956e-9, 1.2066700e+2
-0.362, 1.1414302e-8, -2.5867055e-9, 1.2100034e+2
-0.363, 1.1447931e-8, -2.5851878e-9, 1.2133367e+2
-0.364, 1.1472055e-8, -2.5883031e-9, 1.2166701e+2
-0.365, 1.1504167e-8, -2.5942144e-9, 1.2200034e+2
-0.366, 1.1551697e-8, -2.5992468e-9, 1.2233368e+2
-0.367, 1.1635573e-8, -2.6014835e-9, 1.2266702e+2
-0.368, 1.1734065e-8, -2.5986877e-9, 1.2300035e+2
-0.369, 1.1901017e-8, -2.6073945e-9, 1.2333369e+2
-0.370, 1.1943275e-8, -2.6116285e-9, 1.2366702e+2
-0.371, 1.1967400e-8, -2.6171401e-9, 1.2400036e+2
-0.372, 1.1991284e-8, -2.6202556e-9, 1.2433369e+2
-0.373, 1.2060701e-8, -2.6257674e-9, 1.2466703e+2
-0.374, 1.2125324e-8, -2.6292821e-9, 1.2500037e+2
-0.375, 1.2229010e-8, -2.6326372e-9, 1.2533370e+2
-0.376, 1.2356820e-8, -2.6365514e-9, 1.2566704e+2
-0.377, 1.2407385e-8, -2.6423028e-9, 1.2600037e+2
-0.378, 1.2441974e-8, -2.6433413e-9, 1.2633371e+2
-0.379, 1.2462023e-8, -2.6528471e-9, 1.2666705e+2
-0.380, 1.2494056e-8, -2.6554035e-9, 1.2700038e+2
-0.381, 1.2547178e-8, -2.6591578e-9, 1.2733372e+2
-0.382, 1.2602935e-8, -2.6641103e-9, 1.2766705e+2
-0.383, 1.2702067e-8, -2.6680245e-9, 1.2800038e+2
-0.384, 1.2820929e-8, -2.6765719e-9, 1.2833371e+2
-0.385, 1.2892264e-8, -2.6841604e-9, 1.2866704e+2
-0.386, 1.2944026e-8, -2.6931073e-9, 1.2900037e+2
-0.387, 1.2974861e-8, -2.6952640e-9, 1.2933369e+2
-0.388, 1.3065925e-8, -2.6982996e-9, 1.2966702e+2
-0.389, 1.3145327e-8, -2.7220242e-9, 1.3000035e+2
-0.390, 1.3207395e-8, -2.7346454e-9, 1.3033368e+2
-0.391, 1.3313717e-8, -2.7571720e-9, 1.3066701e+2
-0.392, 1.3383692e-8, -2.7777014e-9, 1.3100034e+2
-0.393, 1.3417644e-8, -2.7897635e-9, 1.3133366e+2
-0.394, 1.3448077e-8, -2.8102931e-9, 1.3166699e+2
-0.395, 1.3536905e-8, -2.8125298e-9, 1.3200032e+2
-0.396, 1.3589548e-8, -2.8387306e-9, 1.3233365e+2
-0.397, 1.3691156e-8, -2.8677276e-9, 1.3266698e+2
-0.398, 1.3795401e-8, -2.8895353e-9, 1.3300031e+2
-0.399, 1.3884549e-8, -2.9116622e-9, 1.3333363e+2
