Jan. 28, 2006   05:21:08
Square Wave Voltammetry
File: z:\users\scottsaunders\git\labwork\ida\01_17_19_psoralen_nonequil_2\data\control\5\75um_control_transfer_5_swv_31.txt
Data Source:  Experiment
Instrument Model:  CHI760E
Header: 
Note: 

Init E (V) = 0.1
Final E (V) = -0.5
Incr E (V) = 0.001
Amplitude (V) = 0.025
Frequency (Hz) = 300
Quiet Time (sec) = 2
Sensitivity (A/V) = 1e-6
Sens 2 (A/V) = 1e-6

Potential/V, i1/A, i2/A

0.099, 2.3379010e-7, 1.0728917e-7
0.098, 1.6398454e-7, 1.4107881e-7
0.097, 1.3192641e-7, 1.4737830e-7
0.096, 1.6998719e-7, 1.4622394e-7
0.095, 1.2627008e-7, 1.1294550e-7
0.094, 1.5902080e-7, 1.5898783e-7
0.093, 1.5351289e-7, 1.4111180e-7
0.092, 1.3916588e-7, 1.2702866e-7
0.091, 1.5415601e-7, 1.4289280e-7
0.090, 1.1682084e-7, 1.3649438e-7
0.089, 1.6433086e-7, 1.3835783e-7
0.088, 1.3773118e-7, 1.1205501e-7
0.087, 1.4018832e-7, 1.5928465e-7
0.086, 1.6104917e-7, 1.9752683e-7
0.085, 1.4119425e-7, 1.3593367e-7
0.084, 1.6179126e-7, 1.7293905e-7
0.083, 1.2768828e-7, 1.4269490e-7
0.082, 1.6076885e-7, 1.8021149e-7
0.081, 1.5511249e-7, 1.6523784e-7
0.080, 1.4638886e-7, 1.3481231e-7
0.079, 1.5629982e-7, 1.6754655e-7
0.078, 1.3044225e-7, 1.1058732e-7
0.077, 1.6119759e-7, 1.3789608e-7
0.076, 1.3332814e-7, 1.0268823e-7
0.075, 1.5994431e-7, 1.1185711e-7
0.074, 1.5944957e-7, 1.4173844e-7
0.073, 1.3558738e-7, 1.0466713e-7
0.072, 1.5306763e-7, 1.3169554e-7
0.071, 1.3174503e-7, 9.1490968e-8
0.070, 1.5941657e-7, 1.4497064e-7
0.069, 1.4853268e-7, 1.0953190e-7
0.068, 1.3380637e-7, 1.1078521e-7
0.067, 1.5644825e-7, 1.1342374e-7
0.066, 1.2623710e-7, 9.8961301e-8
0.065, 1.4902739e-7, 8.9132790e-8
0.064, 1.1940990e-7, 7.2345159e-8
0.063, 1.3830837e-7, 1.0313348e-7
0.062, 1.5105574e-7, 1.0087424e-7
0.061, 1.2246069e-7, 7.6072070e-8
0.060, 1.5331499e-7, 1.1502335e-7
0.059, 1.1652401e-7, 9.9868302e-8
0.058, 1.5601948e-7, 1.4594360e-7
0.057, 1.3162958e-7, 1.3093697e-7
0.056, 1.3583474e-7, 1.2679777e-7
0.055, 1.4869757e-7, 1.3613158e-7
0.054, 1.2498380e-7, 1.2282349e-7
0.053, 1.4500363e-7, 1.4259597e-7
0.052, 1.1297849e-7, 1.0844352e-7
0.051, 1.4531695e-7, 1.3134924e-7
0.050, 1.4000692e-7, 1.4114478e-7
0.049, 1.3164608e-7, 1.0605235e-7
0.048, 1.4122723e-7, 1.3372392e-7
0.047, 1.1584788e-7, 1.2620411e-7
0.046, 1.5516196e-7, 1.5822926e-7
0.045, 1.1842045e-7, 1.4521801e-7
0.044, 1.3698909e-7, 1.4338752e-7
0.043, 1.3748382e-7, 1.5951554e-7
0.042, 1.1795871e-7, 1.5583808e-7
0.041, 1.4721340e-7, 1.3039278e-7
0.040, 1.1071925e-7, 1.1602928e-7
0.039, 1.4624044e-7, 1.1673839e-7
0.038, 1.2945280e-7, 1.1038943e-7
0.037, 1.3181098e-7, 8.9775924e-8
0.036, 1.4378331e-7, 1.1357216e-7
0.035, 1.1340725e-7, 1.0224296e-7
0.034, 1.4856565e-7, 1.3507616e-7
0.033, 1.2991454e-7, 1.1304445e-7
0.032, 1.2884263e-7, 1.1172519e-7
0.031, 1.4342051e-7, 1.3075558e-7
0.030, 1.1772784e-7, 1.0620077e-7
0.029, 1.4327209e-7, 1.0239140e-7
0.028, 1.0219350e-7, 8.8967880e-8
0.027, 1.4346998e-7, 8.8885429e-8
0.026, 1.3110187e-7, 8.2816811e-8
0.025, 1.1828853e-7, 7.0250820e-8
0.024, 1.3219028e-7, 1.0588744e-7
0.023, 1.1017505e-7, 7.6698726e-8
0.022, 1.4932422e-7, 1.0686040e-7
0.021, 1.1565000e-7, 7.8380779e-8
0.020, 1.4294227e-7, 1.2617113e-7
0.019, 1.3525755e-7, 1.5199572e-7
0.018, 1.2353260e-7, 1.0549167e-7
0.017, 1.3603263e-7, 1.2640200e-7
0.016, 1.0562358e-7, 1.0113809e-7
0.015, 1.3568632e-7, 1.3845678e-7
0.014, 1.1619419e-7, 1.0793231e-7
0.013, 1.1754645e-7, 9.8796399e-8
0.012, 1.3906694e-7, 1.2869423e-7
0.011, 1.1226938e-7, 1.2437363e-7
0.010, 1.3858870e-7, 1.4950561e-7
0.009, 1.0893824e-7, 1.0184720e-7
0.008, 1.4038619e-7, 1.5552476e-7
0.007, 1.3481231e-7, 1.6309403e-7
0.006, 1.0846001e-7, 1.5809732e-7
0.005, 1.4127670e-7, 1.3984200e-7
0.004, 1.0207806e-7, 1.1729908e-7
0.003, 1.3811047e-7, 1.4421207e-7
0.002, 1.1617770e-7, 9.3585300e-8
0.001, 1.1563351e-7, 9.0583981e-8
-0.000, 1.4751024e-7, 1.0641514e-7
-0.001, 1.0288612e-7, 1.0433730e-7
-0.002, 1.4569625e-7, 1.2544554e-7
-0.003, 9.5943491e-8, 1.0361171e-7
-0.004, 1.4091391e-7, 1.1965726e-7
-0.005, 1.3388882e-7, 1.2198247e-7
-0.006, 1.1825554e-7, 1.0862492e-7
-0.007, 1.3552142e-7, 9.4492300e-8
-0.008, 1.0379311e-7, 8.2173671e-8
-0.009, 1.4069954e-7, 8.3839240e-8
-0.010, 1.0395802e-7, 7.3136704e-8
-0.011, 1.2112494e-7, 5.7519919e-8
-0.012, 1.2910650e-7, 9.0023292e-8
-0.013, 1.0704180e-7, 7.3977745e-8
-0.014, 1.4139214e-7, 1.2112494e-7
-0.015, 1.0189667e-7, 1.0671198e-7
-0.016, 1.3169554e-7, 1.2087759e-7
-0.017, 1.2440663e-7, 1.3195941e-7
-0.018, 1.2201545e-7, 1.0328189e-7
-0.019, 1.3068961e-7, 1.2335120e-7
-0.020, 1.0341383e-7, 1.0341383e-7
-0.021, 1.3631298e-7, 1.2053127e-7
-0.022, 1.0943296e-7, 1.0100617e-7
-0.023, 1.2053128e-7, 1.1151080e-7
-0.024, 1.2970017e-7, 1.4506958e-7
-0.025, 1.0702531e-7, 1.3477933e-7
-0.026, 1.3591719e-7, 1.5227607e-7
-0.027, 9.8351151e-8, 1.4043567e-7
-0.028, 1.2678129e-7, 1.4975298e-7
-0.029, 1.2415924e-7, 1.3618104e-7
-0.030, 1.0943296e-7, 9.7328716e-8
-0.031, 1.2565991e-7, 1.0192965e-7
-0.032, 1.0021461e-7, 7.8595164e-8
-0.033, 1.4007287e-7, 1.2181756e-7
-0.034, 1.1152729e-7, 7.2625497e-8
-0.035, 1.1893167e-7, 8.9512078e-8
-0.036, 1.2554449e-7, 1.2364805e-7
-0.037, 1.0763547e-7, 8.4317470e-8
-0.038, 1.3436707e-7, 1.1565000e-7
-0.039, 9.5861040e-8, 8.0623536e-8
-0.040, 1.3547194e-7, 1.0730565e-7
-0.041, 1.1395144e-7, 6.7579307e-8
-0.042, 1.0976279e-7, 5.0907108e-8
-0.043, 1.3219028e-7, 9.0056275e-8
-0.044, 1.0385907e-7, 6.5864263e-8
-0.045, 1.3065663e-7, 1.0641514e-7
-0.046, 1.0362820e-7, 9.4030554e-8
-0.047, 1.2945280e-7, 1.1749697e-7
-0.048, 1.2109197e-7, 1.3286640e-7
-0.049, 9.9225161e-8, 1.1075224e-7
-0.050, 1.2933737e-7, 1.1091714e-7
-0.051, 9.7576077e-8, 9.9159195e-8
-0.052, 1.3085452e-7, 1.3268500e-7
-0.053, 1.1156028e-7, 9.5432270e-8
-0.054, 1.1624367e-7, 1.0933402e-7
-0.055, 1.3311376e-7, 1.3100293e-7
-0.056, 1.0191316e-7, 1.4111180e-7
-0.057, 1.3454846e-7, 1.4736182e-7
-0.058, 9.1969213e-8, 1.0672848e-7
-0.059, 1.1959131e-7, 1.1893167e-7
-0.060, 1.2414276e-7, 1.3006296e-7
-0.061, 1.0486501e-7, 1.0915262e-7
-0.062, 1.2920543e-7, 8.7582649e-8
-0.063, 8.8555609e-8, 7.6863635e-8
-0.064, 1.4076549e-7, 1.1063680e-7
-0.065, 9.8466586e-8, 9.4014069e-8
-0.066, 1.2039935e-7, 8.5867612e-8
-0.067, 1.2503327e-7, 1.1873378e-7
-0.068, 9.7806947e-8, 1.0727267e-7
-0.069, 1.3354251e-7, 1.0277068e-7
-0.070, 8.9347168e-8, 5.6629418e-8
-0.071, 1.2509923e-7, 7.4307557e-8
-0.072, 1.1997059e-7, 8.1398603e-8
-0.073, 1.1840396e-7, 5.2605660e-8
-0.074, 1.2795213e-7, 7.4406501e-8
-0.075, 9.4921063e-8, 9.1309573e-8
-0.076, 1.3154713e-7, 1.1164273e-7
-0.077, 1.0506290e-7, 9.4673695e-8
-0.078, 1.1446266e-7, 1.0874035e-7
-0.079, 1.2546202e-7, 1.1766188e-7
-0.080, 9.9423055e-8, 9.8944810e-8
-0.081, 1.2206492e-7, 1.0004970e-7
-0.082, 9.5910508e-8, 9.3585307e-8
-0.083, 1.1843694e-7, 1.3322919e-7
-0.084, 1.2922193e-7, 1.1231886e-7
-0.085, 1.1058732e-7, 1.2425819e-7
-0.086, 1.2937033e-7, 1.4841721e-7
-0.087, 9.1936222e-8, 1.3486178e-7
-0.088, 1.2600621e-7, 1.2255964e-7
-0.089, 1.0181421e-7, 9.4541768e-8
-0.090, 1.1353917e-7, 1.1405039e-7
-0.091, 1.2478590e-7, 1.1947587e-7
-0.092, 1.1231885e-7, 7.5890675e-8
-0.093, 1.3118434e-7, 9.8021331e-8
-0.094, 8.8802977e-8, 7.5231043e-8
-0.095, 1.2786968e-7, 1.1375356e-7
-0.096, 1.1972323e-7, 1.0323243e-7
-0.097, 1.1302796e-7, 8.9858382e-8
-0.098, 1.2963420e-7, 1.0314997e-7
-0.099, 9.7856422e-8, 5.2506714e-8
-0.100, 1.2750689e-7, 8.5240963e-8
-0.101, 1.0082476e-7, 4.0188084e-8
-0.102, 1.2500028e-7, 7.8694114e-8
-0.103, 1.2753986e-7, 1.0758599e-7
-0.104, 1.1167572e-7, 9.3865644e-8
-0.105, 1.1269815e-7, 1.2575886e-7
-0.106, 9.1326058e-8, 1.0470011e-7
-0.107, 1.2556096e-7, 1.3593369e-7
-0.108, 1.1045540e-7, 1.0768494e-7
-0.109, 1.0070934e-7, 9.6091910e-8
-0.110, 1.2811705e-7, 1.1685383e-7
-0.111, 9.5366310e-8, 1.0349628e-7
-0.112, 1.3252009e-7, 1.5926818e-7
-0.113, 9.4113005e-8, 1.0404047e-7
-0.114, 1.1893167e-7, 1.4422857e-7
-0.115, 1.2204843e-7, 1.5699244e-7
-0.116, 1.0011566e-7, 1.1175817e-7
-0.117, 1.3258605e-7, 1.1057083e-7
-0.118, 8.9644004e-8, 9.1919730e-8
-0.119, 1.3464741e-7, 1.1311041e-7
-0.120, 1.0245736e-7, 1.0577201e-7
-0.121, 1.0493098e-7, 9.1655885e-8
-0.122, 1.3268499e-7, 1.1434723e-7
-0.123, 1.0029706e-7, 1.0021461e-7
-0.124, 1.3534002e-7, 1.2105897e-7
-0.125, 8.9990309e-8, 9.4492293e-8
-0.126, 1.2895808e-7, 8.0079339e-8
-0.127, 1.1894816e-7, 7.8347796e-8
-0.128, 1.1010908e-7, 6.6705290e-8
-0.129, 1.2346663e-7, 7.8760067e-8
-0.130, 9.8466579e-8, 6.3951326e-8
-0.131, 1.3435057e-7, 1.1114801e-7
-0.132, 1.0498045e-7, 1.1873378e-7
-0.133, 1.1127994e-7, 1.0865790e-7
-0.134, 1.1926149e-7, 1.3438355e-7
-0.135, 9.3997578e-8, 1.2008603e-7
-0.136, 1.3787961e-7, 1.1210447e-7
-0.137, 9.4030554e-8, 9.3469872e-8
-0.138, 1.2336770e-7, 1.0526080e-7
-0.139, 1.1908008e-7, 1.1969024e-7
-0.140, 1.1078521e-7, 1.1743100e-7
-0.141, 1.2937035e-7, 1.5750365e-7
-0.142, 9.7180298e-8, 1.4719690e-7
-0.143, 1.2938683e-7, 1.6050500e-7
-0.144, 1.0440327e-7, 1.3693962e-7
-0.145, 1.1391846e-7, 1.1024101e-7
-0.146, 1.1883272e-7, 1.4223318e-7
-0.147, 1.0418889e-7, 9.1853771e-8
-0.148, 1.3644491e-7, 1.0651409e-7
-0.149, 9.1161155e-8, 9.1721844e-8
-0.150, 1.3705505e-7, 1.3065662e-7
-0.151, 1.1767837e-7, 1.2417574e-7
-0.152, 1.1833800e-7, 1.0524430e-7
-0.153, 1.3212431e-7, 1.4422857e-7
-0.154, 1.0270471e-7, 1.1906359e-7
-0.155, 1.3517511e-7, 9.1985697e-8
-0.156, 1.1162624e-7, 4.7856307e-8
-0.157, 1.2793565e-7, 8.5174996e-8
-0.158, 1.3275096e-7, 8.7945452e-8
-0.159, 1.1568299e-7, 7.1388691e-8
-0.160, 1.3260254e-7, 1.0634918e-7
-0.161, 1.0389206e-7, 9.2216574e-8
-0.162, 1.3143169e-7, 1.4894493e-7
-0.163, 1.1322585e-7, 1.0446923e-7
-0.164, 1.1807415e-7, 9.5283852e-8
-0.165, 1.2419224e-7, 1.2796862e-7
-0.166, 9.8400619e-8, 1.2519817e-7
-0.167, 1.2866124e-7, 1.2869423e-7
-0.168, 9.7740994e-8, 9.4871588e-8
-0.169, 1.3187694e-7, 1.3710454e-7
-0.170, 1.3022787e-7, 1.7358219e-7
-0.171, 1.0458467e-7, 1.5217712e-7
-0.172, 1.3344358e-7, 1.5547529e-7
-0.173, 9.2793748e-8, 1.3395479e-7
-0.174, 1.3944623e-7, 1.4610850e-7
-0.175, 1.1499037e-7, 1.3421864e-7
-0.176, 1.1650752e-7, 9.6553649e-8
-0.177, 1.3909991e-7, 1.1853589e-7
-0.178, 1.0949893e-7, 1.0491448e-7
-0.179, 1.3660981e-7, 1.2894159e-7
-0.180, 1.0925157e-7, 9.8136766e-8
-0.181, 1.3367445e-7, 1.2391190e-7
-0.182, 1.3570281e-7, 1.3715400e-7
-0.183, 1.1566650e-7, 1.0593691e-7
-0.184, 1.2872721e-7, 9.6108394e-8
-0.185, 1.0562358e-7, 6.7595792e-8
-0.186, 1.4691656e-7, 9.3321447e-8
-0.187, 1.0982874e-7, 7.8677623e-8
-0.188, 1.2806757e-7, 6.9970469e-8
-0.189, 1.2978262e-7, 1.2234526e-7
-0.190, 1.0837755e-7, 1.0702530e-7
-0.191, 1.4038621e-7, 1.4178792e-7
-0.192, 1.1256621e-7, 1.1142836e-7
-0.193, 1.3715400e-7, 1.3654383e-7
-0.194, 1.2900755e-7, 1.3215730e-7
-0.195, 1.1988813e-7, 1.1588087e-7
-0.196, 1.3581825e-7, 1.2262561e-7
-0.197, 1.0189667e-7, 1.1820607e-7
-0.198, 1.3405374e-7, 1.4112830e-7
-0.199, 1.0953191e-7, 1.5618438e-7
-0.200, 1.2533009e-7, 1.3659331e-7
-0.201, 1.3530703e-7, 1.7371411e-7
-0.202, 1.2041585e-7, 1.4754320e-7
-0.203, 1.4488819e-7, 1.5951554e-7
-0.204, 1.0935051e-7, 1.3759926e-7
-0.205, 1.3812695e-7, 1.5217712e-7
-0.206, 1.3501021e-7, 1.2427469e-7
-0.207, 1.2768828e-7, 9.9159195e-8
-0.208, 1.4650429e-7, 1.3979252e-7
-0.209, 1.0954840e-7, 1.2330173e-7
-0.210, 1.5486512e-7, 1.5366130e-7
-0.211, 1.2414276e-7, 1.0573902e-7
-0.212, 1.3855573e-7, 1.2028391e-7
-0.213, 1.3938026e-7, 1.5338095e-7
-0.214, 1.2455503e-7, 9.8120275e-8
-0.215, 1.4975298e-7, 9.4673688e-8
-0.216, 1.0972980e-7, 7.2526547e-8
-0.217, 1.4549836e-7, 1.1904710e-7
-0.218, 1.3868765e-7, 9.3123560e-8
-0.219, 1.2666585e-7, 8.9709971e-8
-0.220, 1.4554783e-7, 1.3202536e-7
-0.221, 1.2760582e-7, 1.4907687e-7
-0.222, 1.5740470e-7, 1.6055445e-7
-0.223, 1.1477599e-7, 1.1875027e-7
-0.224, 1.4045216e-7, 1.4739479e-7
-0.225, 1.4845020e-7, 1.5512899e-7
-0.226, 1.2316980e-7, 1.4469030e-7
-0.227, 1.4630641e-7, 1.4696603e-7
-0.228, 1.2737496e-7, 1.3654385e-7
-0.229, 1.5458477e-7, 1.8029394e-7
-0.230, 1.3924834e-7, 1.5473320e-7
-0.231, 1.3977603e-7, 1.6149443e-7
-0.232, 1.6271476e-7, 1.8535663e-7
-0.233, 1.2709461e-7, 1.5855906e-7
-0.234, 1.7133944e-7, 1.9046878e-7
-0.235, 1.2468696e-7, 1.4340404e-7
-0.236, 1.5140206e-7, 1.3397128e-7
-0.237, 1.5471670e-7, 1.4513554e-7
-0.238, 1.3934726e-7, 1.3753329e-7
-0.239, 1.7249378e-7, 1.3273447e-7
-0.240, 1.2346665e-7, 1.2872721e-7
-0.241, 1.6941001e-7, 1.5562370e-7
-0.242, 1.3378988e-7, 1.3896799e-7
-0.243, 1.5008280e-7, 1.3096995e-7
-0.244, 1.6462768e-7, 1.7244433e-7
-0.245, 1.3977603e-7, 1.3522458e-7
-0.246, 1.6690342e-7, 1.2417576e-7
-0.247, 1.2892509e-7, 8.4053617e-8
-0.248, 1.6474311e-7, 1.2023443e-7
-0.249, 1.6292913e-7, 1.2478591e-7
-0.250, 1.5997728e-7, 1.2721004e-7
-0.251, 1.6866792e-7, 1.4676814e-7
-0.252, 1.4137566e-7, 1.5310061e-7
-0.253, 1.7740805e-7, 1.8266861e-7
-0.254, 1.3840730e-7, 1.6157689e-7
-0.255, 1.5354587e-7, 1.6561714e-7
-0.256, 1.6644167e-7, 1.8286651e-7
-0.257, 1.3852274e-7, 1.6502347e-7
-0.258, 1.6901423e-7, 1.5346342e-7
-0.259, 1.4350297e-7, 1.3903396e-7
-0.260, 1.6543574e-7, 1.8667589e-7
-0.261, 1.6378665e-7, 2.0473331e-7
-0.262, 1.5781698e-7, 1.9229925e-7
-0.263, 1.6335790e-7, 2.1934416e-7
-0.264, 1.3296535e-7, 1.8830848e-7
-0.265, 1.6977280e-7, 1.9986852e-7
-0.266, 1.4175494e-7, 1.5981236e-7
-0.267, 1.5310060e-7, 1.7158681e-7
-0.268, 1.7109207e-7, 1.6381964e-7
-0.269, 1.4985191e-7, 1.3461441e-7
-0.270, 1.7760594e-7, 1.6533679e-7
-0.271, 1.3852274e-7, 1.2137231e-7
-0.272, 1.7224643e-7, 1.6847002e-7
-0.273, 1.6814022e-7, 1.6414945e-7
-0.274, 1.5654717e-7, 1.4670218e-7
-0.275, 1.7130645e-7, 1.7402743e-7
-0.276, 1.4299174e-7, 1.4525099e-7
-0.277, 1.7406042e-7, 1.3309727e-7
-0.278, 1.4173845e-7, 9.3271979e-8
-0.279, 1.7147136e-7, 1.3707155e-7
-0.280, 1.6794232e-7, 1.4246405e-7
-0.281, 1.4548185e-7, 1.1908008e-7
-0.282, 1.6624378e-7, 1.4416260e-7
-0.283, 1.3350954e-7, 1.5644824e-7
-0.284, 1.6987175e-7, 1.9788963e-7
-0.285, 1.5131961e-7, 1.6751358e-7
-0.286, 1.5427146e-7, 1.4693305e-7
-0.287, 1.6556766e-7, 1.6538625e-7
-0.288, 1.3451547e-7, 1.5649772e-7
-0.289, 1.5860853e-7, 1.6560064e-7
-0.290, 1.3270149e-7, 1.3644491e-7
-0.291, 1.6223650e-7, 1.7298851e-7
-0.292, 1.6123057e-7, 1.8946282e-7
-0.293, 1.4000692e-7, 1.6563362e-7
-0.294, 1.7819961e-7, 1.7305447e-7
-0.295, 1.2617113e-7, 1.8093709e-7
-0.296, 1.6710131e-7, 2.0471683e-7
-0.297, 1.3820943e-7, 1.8444963e-7
-0.298, 1.4647131e-7, 1.3448251e-7
-0.299, 1.5971342e-7, 1.6987177e-7
-0.300, 1.3834135e-7, 1.3792906e-7
-0.301, 1.6749708e-7, 1.5728926e-7
-0.302, 1.2819950e-7, 1.4117776e-7
-0.303, 1.6536977e-7, 1.4465732e-7
-0.304, 1.6368770e-7, 1.7274115e-7
-0.305, 1.4755970e-7, 1.3926484e-7
-0.306, 1.6538625e-7, 1.4393173e-7
-0.307, 1.2445608e-7, 1.4701550e-7
-0.308, 1.6421542e-7, 1.4614150e-7
-0.309, 1.3075557e-7, 1.1914605e-7
-0.310, 1.4137564e-7, 8.9363660e-8
-0.311, 1.4600957e-7, 1.2138881e-7
-0.312, 1.2887563e-7, 1.0194614e-7
-0.313, 1.6198916e-7, 1.1889868e-7
-0.314, 1.2495080e-7, 1.2786968e-7
-0.315, 1.5496407e-7, 1.4462435e-7
-0.316, 1.4635587e-7, 1.5244098e-7
-0.317, 1.3820940e-7, 1.3209133e-7
-0.318, 1.5194625e-7, 1.6032357e-7
-0.319, 1.2171861e-7, 1.5417251e-7
-0.320, 1.4914282e-7, 1.7847997e-7
-0.321, 1.2213088e-7, 1.5410654e-7
-0.322, 1.3019488e-7, 1.4835126e-7
-0.323, 1.5446935e-7, 1.6729919e-7
-0.324, 1.3472986e-7, 1.5130311e-7
-0.325, 1.6071937e-7, 1.6845355e-7
-0.326, 1.1408337e-7, 1.5344692e-7
-0.327, 1.5105576e-7, 2.0160006e-7
-0.328, 1.5089084e-7, 1.9112839e-7
-0.329, 1.3382288e-7, 1.6045551e-7
-0.330, 1.5267184e-7, 1.9416269e-7
-0.331, 1.2157021e-7, 1.2877669e-7
-0.332, 1.5372727e-7, 1.5719033e-7
-0.333, 1.2279052e-7, 1.0930104e-7
-0.334, 1.4894493e-7, 1.2592376e-7
-0.335, 1.5158346e-7, 1.5521144e-7
-0.336, 1.3235518e-7, 1.3009594e-7
-0.337, 1.5803136e-7, 1.3435056e-7
-0.338, 1.1865132e-7, 1.3012892e-7
-0.339, 1.5079189e-7, 1.6982230e-7
-0.340, 1.2917246e-7, 1.4543240e-7
-0.341, 1.2979910e-7, 1.1503985e-7
-0.342, 1.5756962e-7, 1.3303131e-7
-0.343, 1.1960779e-7, 9.9472523e-8
-0.344, 1.5765207e-7, 1.1419881e-7
-0.345, 1.2079514e-7, 8.5620243e-8
-0.346, 1.5387567e-7, 1.1429774e-7
-0.347, 1.5171538e-7, 1.3994095e-7
-0.348, 1.2691322e-7, 1.3924833e-7
-0.349, 1.6019165e-7, 1.5402409e-7
-0.350, 1.1690329e-7, 1.5666262e-7
-0.351, 1.5554126e-7, 1.6766198e-7
-0.352, 1.3448251e-7, 1.4497066e-7
-0.353, 1.4157354e-7, 1.3768171e-7
-0.354, 1.6192318e-7, 1.6048850e-7
-0.355, 1.1398443e-7, 1.3557087e-7
-0.356, 1.5564021e-7, 1.5723981e-7
-0.357, 1.1337426e-7, 1.5400759e-7
-0.358, 1.4907685e-7, 1.8037639e-7
-0.359, 1.4487169e-7, 2.1334151e-7
-0.360, 1.3311376e-7, 1.7788629e-7
-0.361, 1.5225957e-7, 1.7168574e-7
-0.362, 1.1566650e-7, 1.6555116e-7
-0.363, 1.6103267e-7, 1.6812373e-7
-0.364, 1.3303129e-7, 1.2707812e-7
-0.365, 1.3322921e-7, 1.1530369e-7
-0.366, 1.4925826e-7, 1.5343042e-7
-0.367, 1.2422521e-7, 1.5687701e-7
-0.368, 1.5354587e-7, 1.4261246e-7
-0.369, 1.2432416e-7, 1.2282349e-7
-0.370, 1.5684404e-7, 1.5707489e-7
-0.371, 1.5422198e-7, 1.5654719e-7
-0.372, 1.4871405e-7, 1.4190336e-7
-0.373, 1.5052804e-7, 1.5394164e-7
-0.374, 1.2401082e-7, 1.1787625e-7
-0.375, 1.6035656e-7, 1.1596332e-7
-0.376, 1.3502670e-7, 1.0212754e-7
-0.377, 1.4155705e-7, 1.0432081e-7
-0.378, 1.5524442e-7, 1.2387892e-7
-0.379, 1.3618104e-7, 1.1299499e-7
-0.380, 1.7124049e-7, 1.3759926e-7
-0.381, 1.3052470e-7, 1.2745741e-7
-0.382, 1.5667911e-7, 1.7335131e-7
-0.383, 1.5587106e-7, 1.6218705e-7
-0.384, 1.4455837e-7, 1.3540598e-7
-0.385, 1.5065997e-7, 1.6104917e-7
-0.386, 1.1718365e-7, 1.4371736e-7
-0.387, 1.5784997e-7, 1.7158679e-7
-0.388, 1.3002999e-7, 1.3481230e-7
-0.389, 1.3819293e-7, 1.4965403e-7
-0.390, 1.5986184e-7, 1.7862837e-7
-0.391, 1.4160653e-7, 1.4744427e-7
-0.392, 1.5239152e-7, 1.8171215e-7
-0.393, 1.3044225e-7, 1.6665605e-7
-0.394, 1.5808082e-7, 2.2067991e-7
-0.395, 1.5648122e-7, 1.8065674e-7
-0.396, 1.5057752e-7, 1.7275767e-7
-0.397, 1.6034008e-7, 2.0077553e-7
-0.398, 1.3336111e-7, 1.5620088e-7
-0.399, 1.6909669e-7, 1.8106901e-7
-0.400, 1.4117778e-7, 1.3944623e-7
-0.401, 1.6406699e-7, 1.5357885e-7
-0.402, 1.6193968e-7, 1.6711780e-7
-0.403, 1.4475627e-7, 1.2608868e-7
-0.404, 1.6929458e-7, 1.4620746e-7
-0.405, 1.4191986e-7, 1.5036314e-7
-0.406, 1.6512242e-7, 1.7567652e-7
-0.407, 1.5046207e-7, 1.5107223e-7
-0.408, 1.4802146e-7, 1.4591062e-7
-0.409, 1.6522135e-7, 1.6566659e-7
-0.410, 1.3601613e-7, 1.3171204e-7
-0.411, 1.7091068e-7, 1.3052470e-7
-0.412, 1.3774768e-7, 9.1194146e-8
-0.413, 1.5872398e-7, 1.1419880e-7
-0.414, 1.5882291e-7, 1.2953525e-7
-0.415, 1.5143505e-7, 1.1175818e-7
-0.416, 1.7331833e-7, 1.2551149e-7
-0.417, 1.3115135e-7, 1.3868765e-7
-0.418, 1.7363166e-7, 1.7059735e-7
-0.419, 1.4907685e-7, 1.7274115e-7
-0.420, 1.5717383e-7, 1.5224309e-7
-0.421, 1.6332490e-7, 1.7735857e-7
-0.422, 1.3746734e-7, 1.7991466e-7
-0.423, 1.7547863e-7, 1.7439022e-7
-0.424, 1.2943632e-7, 1.4991788e-7
-0.425, 1.6522135e-7, 1.7359869e-7
-0.426, 1.6065340e-7, 1.8357562e-7
-0.427, 1.5864151e-7, 1.5186382e-7
-0.428, 1.6927808e-7, 1.7204853e-7
-0.429, 1.4566325e-7, 1.7315341e-7
-0.430, 1.7368113e-7, 2.1723334e-7
-0.431, 1.4945614e-7, 1.9950572e-7
-0.432, 1.5941660e-7, 2.0042921e-7
-0.433, 1.6955845e-7, 2.2275775e-7
-0.434, 1.4874703e-7, 1.9182102e-7
-0.435, 1.7425830e-7, 1.9467393e-7
-0.436, 1.4569623e-7, 1.5527739e-7
-0.437, 1.6988824e-7, 1.7986520e-7
-0.438, 1.7219696e-7, 1.6230248e-7
-0.439, 1.5786644e-7, 1.3571932e-7
-0.440, 1.7965080e-7, 1.6009271e-7
-0.441, 1.4350297e-7, 1.4755970e-7
-0.442, 1.8191005e-7, 1.7039947e-7
-0.443, 1.6136249e-7, 1.4711446e-7
-0.444, 1.6508942e-7, 1.6990475e-7
-0.445, 1.8049184e-7, 1.9322273e-7
-0.446, 1.6649113e-7, 1.5606895e-7
-0.447, 1.8639554e-7, 1.6518837e-7
-0.448, 1.4030375e-7, 1.0615130e-7
-0.449, 1.8001360e-7, 1.3936376e-7
-0.450, 1.8138233e-7, 1.3852275e-7
-0.451, 1.5895485e-7, 1.1586440e-7
-0.452, 1.7915607e-7, 1.4694955e-7
-0.453, 1.5465075e-7, 1.3286639e-7
-0.454, 1.8768183e-7, 1.6853599e-7
-0.455, 1.5781697e-7, 1.4195282e-7
-0.456, 1.7854592e-7, 1.7913959e-7
-0.457, 1.8268511e-7, 1.9638897e-7
-0.458, 1.5674507e-7, 1.7041596e-7
-0.459, 1.7730912e-7, 1.7419234e-7
-0.460, 1.5253991e-7, 1.5016525e-7
-0.461, 1.7867784e-7, 2.0070956e-7
-0.462, 1.7353271e-7, 1.5367777e-7
-0.463, 1.5621737e-7, 1.5438690e-7
-0.464, 1.9567986e-7, 1.7801820e-7
-0.465, 1.5712436e-7, 1.6264877e-7
-0.466, 1.8603274e-7, 1.9744438e-7
-0.467, 1.5143503e-7, 2.0331510e-7
-0.468, 1.8374053e-7, 2.2406053e-7
-0.469, 1.7536320e-7, 2.3352625e-7
-0.470, 1.6477610e-7, 2.1037317e-7
-0.471, 1.8703869e-7, 2.0493121e-7
-0.472, 1.5575564e-7, 1.8258615e-7
-0.473, 1.9957169e-7, 2.1817331e-7
-0.474, 1.7252678e-7, 1.7788628e-7
-0.475, 1.7752349e-7, 1.4408013e-7
-0.476, 1.9332167e-7, 1.7188363e-7
-0.477, 1.6086778e-7, 1.6530380e-7
-0.478, 2.0141866e-7, 1.8753340e-7
-0.479, 1.6279721e-7, 1.7119100e-7
-0.480, 1.9873066e-7, 1.9266204e-7
-0.481, 1.9109541e-7, 1.8665941e-7
-0.482, 1.8580188e-7, 1.5605247e-7
-0.483, 1.9068315e-7, 1.8482892e-7
-0.484, 1.6182423e-7, 1.6548520e-7
-0.485, 2.0466734e-7, 1.6019166e-7
-0.486, 1.6965738e-7, 1.2493433e-7
-0.487, 1.7575897e-7, 1.2335121e-7
-0.488, 1.8443315e-7, 1.5582160e-7
-0.489, 1.6604589e-7, 1.3349305e-7
-0.490, 2.0258950e-7, 1.5572265e-7
-0.491, 1.7028403e-7, 1.6222002e-7
-0.492, 2.0221023e-7, 1.8247073e-7
-0.493, 1.9040282e-7, 2.1159350e-7
-0.494, 1.8628010e-7, 1.7904063e-7
-0.495, 1.9300836e-7, 1.9747736e-7
-0.496, 1.7486846e-7, 1.9539954e-7
-0.497, 2.0158357e-7, 2.0989492e-7
-0.498, 1.8285002e-7, 1.8703868e-7
-0.499, 1.8479594e-7, 1.9198590e-7
-0.500, 2.0296878e-7, 2.1726632e-7
