Jan. 28, 2006   05:28:41
Square Wave Voltammetry
File: z:\users\scottsaunders\git\labwork\ida\01_17_19_psoralen_nonequil_2\data\control\5\75um_control_transfer_5_swv_38.txt
Data Source:  Experiment
Instrument Model:  CHI760E
Header: 
Note: 

Init E (V) = 0.1
Final E (V) = -0.5
Incr E (V) = 0.001
Amplitude (V) = 0.025
Frequency (Hz) = 300
Quiet Time (sec) = 2
Sensitivity (A/V) = 1e-6
Sens 2 (A/V) = 1e-6

Potential/V, i1/A, i2/A

0.099, 2.2397808e-7, 1.1101608e-7
0.098, 1.7087770e-7, 1.5110523e-7
0.097, 1.4094687e-7, 1.2953527e-7
0.096, 1.4426153e-7, 9.8054315e-8
0.095, 1.6619431e-7, 1.1291252e-7
0.094, 1.3524108e-7, 8.9264717e-8
0.093, 1.6884933e-7, 1.0592043e-7
0.092, 1.3647788e-7, 7.2427611e-8
0.091, 1.6543572e-7, 1.4592710e-7
0.090, 1.5953202e-7, 1.6098321e-7
0.089, 1.4589413e-7, 1.2097652e-7
0.088, 1.5379322e-7, 1.4536643e-7
0.087, 1.2689672e-7, 1.2810054e-7
0.086, 1.5641527e-7, 1.4116128e-7
0.085, 1.3543897e-7, 1.2760583e-7
0.084, 1.4785654e-7, 1.3773119e-7
0.083, 1.5859204e-7, 1.7366465e-7
0.082, 1.3890202e-7, 1.6348982e-7
0.081, 1.6668903e-7, 1.7829855e-7
0.080, 1.2976614e-7, 1.4619096e-7
0.079, 1.5634930e-7, 1.5516197e-7
0.078, 1.4465731e-7, 1.1622718e-7
0.077, 1.4233211e-7, 1.0371066e-7
0.076, 1.5253993e-7, 1.5466723e-7
0.075, 1.3321271e-7, 1.2221334e-7
0.074, 1.7041594e-7, 1.3377338e-7
0.073, 1.4172196e-7, 1.0240789e-7
0.072, 1.5014875e-7, 1.2899106e-7
0.071, 1.4775759e-7, 1.2963420e-7
0.070, 1.3101942e-7, 6.8585244e-8
0.069, 1.5239152e-7, 9.0105743e-8
0.068, 1.2186703e-7, 6.5188146e-8
0.067, 1.5204520e-7, 1.1929447e-7
0.066, 1.3713750e-7, 1.0214403e-7
0.065, 1.4358541e-7, 1.2373050e-7
0.064, 1.5672859e-7, 1.6034008e-7
0.063, 1.2386242e-7, 1.1993761e-7
0.062, 1.4587764e-7, 1.3858870e-7
0.061, 1.1988814e-7, 1.0573903e-7
0.060, 1.4721340e-7, 1.2354909e-7
0.059, 1.5329849e-7, 1.4346998e-7
0.058, 1.2625358e-7, 1.4483871e-7
0.057, 1.5756962e-7, 1.6701884e-7
0.056, 1.1894816e-7, 1.5417251e-7
0.055, 1.5768505e-7, 1.8555451e-7
0.054, 1.3548842e-7, 1.4096338e-7
0.053, 1.3474634e-7, 9.4475809e-8
0.052, 1.4929124e-7, 1.2305436e-7
0.051, 1.2209790e-7, 9.8779907e-8
0.050, 1.5529389e-7, 1.1108204e-7
0.049, 1.1998708e-7, 1.0089073e-7
0.048, 1.4206826e-7, 1.2892509e-7
0.047, 1.4551485e-7, 1.4475627e-7
0.046, 1.2483538e-7, 9.6603124e-8
0.045, 1.4622395e-7, 8.5174996e-8
0.044, 1.0789932e-7, 6.0636680e-8
0.043, 1.5897133e-7, 8.6609688e-8
0.042, 1.1988813e-7, 8.6477769e-8
0.041, 1.3558738e-7, 9.1886747e-8
0.040, 1.4576221e-7, 1.5145153e-7
0.039, 1.1543561e-7, 1.3425162e-7
0.038, 1.4348647e-7, 1.3242115e-7
0.037, 1.0606885e-7, 1.0865789e-7
0.036, 1.4051814e-7, 1.2946929e-7
0.035, 1.3685717e-7, 1.4056761e-7
0.034, 1.2902404e-7, 1.0270472e-7
0.033, 1.4056759e-7, 1.2806757e-7
0.032, 1.1040592e-7, 1.4563028e-7
0.031, 1.4515204e-7, 1.6090075e-7
0.030, 1.1734855e-7, 1.4660324e-7
0.029, 1.3215728e-7, 1.3192641e-7
0.028, 1.4160652e-7, 1.1856888e-7
0.027, 1.1817310e-7, 9.9274629e-8
0.026, 1.4361839e-7, 1.0072583e-7
0.025, 1.1273113e-7, 9.6273304e-8
0.024, 1.4307420e-7, 1.1703523e-7
0.023, 1.3751679e-7, 1.2701216e-7
0.022, 1.2541256e-7, 9.9983737e-8
0.021, 1.4379980e-7, 1.1198904e-7
0.020, 1.1538614e-7, 8.4037133e-8
0.019, 1.4864810e-7, 7.8463238e-8
0.018, 1.1843694e-7, 6.2104363e-8
0.017, 1.2876018e-7, 7.4488952e-8
0.016, 1.3764873e-7, 1.0893824e-7
0.015, 1.2818302e-7, 7.7737639e-8
0.014, 1.3939676e-7, 1.2879318e-7
0.013, 1.0065986e-7, 1.1132941e-7
0.012, 1.3850625e-7, 1.4142512e-7
0.011, 1.3011243e-7, 1.1233535e-7
0.010, 1.1335777e-7, 1.0306751e-7
0.009, 1.3614806e-7, 1.3611509e-7
0.008, 1.1611174e-7, 1.0750355e-7
0.007, 1.4188686e-7, 1.7655053e-7
0.006, 1.1555106e-7, 1.3045873e-7
0.005, 1.3675822e-7, 1.6111514e-7
0.004, 1.3811047e-7, 1.6416594e-7
0.003, 1.1685383e-7, 1.0888877e-7
0.002, 1.3223975e-7, 1.1541913e-7
0.001, 1.0809721e-7, 7.7985007e-8
-0.000, 1.3609859e-7, 1.2422522e-7
-0.001, 1.3174503e-7, 1.0169877e-7
-0.002, 1.1980568e-7, 9.3898628e-8
-0.003, 1.4576220e-7, 9.4954046e-8
-0.004, 1.1414933e-7, 9.8334652e-8
-0.005, 1.3766522e-7, 1.2381295e-7
-0.006, 1.0695935e-7, 7.6946080e-8
-0.007, 1.2623710e-7, 7.4719821e-8
-0.008, 1.2412627e-7, 9.0221178e-8
-0.009, 1.1393496e-7, 6.2153838e-8
-0.010, 1.3509266e-7, 6.8865589e-8
-0.011, 1.0306751e-7, 1.1241780e-7
-0.012, 1.4257948e-7, 1.3044225e-7
-0.013, 1.1365461e-7, 1.1505632e-7
-0.014, 1.2143828e-7, 1.0293559e-7
-0.015, 1.2904053e-7, 1.2115792e-7
-0.016, 1.0301804e-7, 1.1123046e-7
-0.017, 1.3207483e-7, 1.2656690e-7
-0.018, 9.2876199e-8, 9.5828049e-8
-0.019, 1.2971665e-7, 1.2500028e-7
-0.020, 1.2920545e-7, 1.4053461e-7
-0.021, 1.2030040e-7, 1.3268499e-7
-0.022, 1.2889211e-7, 1.4195282e-7
-0.023, 9.9373580e-8, 1.4259597e-7
-0.024, 1.3916588e-7, 1.5146802e-7
-0.025, 1.0689338e-7, 1.1213746e-7
-0.026, 1.1856887e-7, 8.3262066e-8
-0.027, 1.2565992e-7, 1.1154378e-7
-0.028, 1.0293559e-7, 1.0016513e-7
-0.029, 1.4027077e-7, 9.9109727e-8
-0.030, 1.0288612e-7, 9.3041109e-8
-0.031, 1.2913948e-7, 1.0981226e-7
-0.032, 1.2475292e-7, 1.1015857e-7
-0.033, 1.1451213e-7, 8.6593204e-8
-0.034, 1.1978919e-7, 8.7335287e-8
-0.035, 9.9620941e-8, 5.2539697e-8
-0.036, 1.2994752e-7, 7.7704662e-8
-0.037, 1.0418889e-7, 6.7381421e-8
-0.038, 1.1614472e-7, 6.8783137e-8
-0.039, 1.2775425e-7, 1.0318295e-7
-0.040, 1.1908008e-7, 1.0455170e-7
-0.041, 1.3355901e-7, 1.1889868e-7
-0.042, 9.3453380e-8, 1.0969682e-7
-0.043, 1.2394487e-7, 1.2279051e-7
-0.044, 1.1484194e-7, 1.1563350e-7
-0.045, 1.1172519e-7, 9.4657203e-8
-0.046, 1.2551149e-7, 1.1812362e-7
-0.047, 1.0092371e-7, 1.2251017e-7
-0.048, 1.3616456e-7, 1.2899106e-7
-0.049, 1.0633269e-7, 1.2701216e-7
-0.050, 1.2028391e-7, 1.3693962e-7
-0.051, 1.3116784e-7, 1.5928467e-7
-0.052, 1.0859193e-7, 1.0496396e-7
-0.053, 1.2533010e-7, 1.0887229e-7
-0.054, 8.7912468e-8, 9.7196789e-8
-0.055, 1.2725953e-7, 1.1904710e-7
-0.056, 1.1474300e-7, 9.1705360e-8
-0.057, 1.1693628e-7, 7.6583284e-8
-0.058, 1.3535652e-7, 1.2325226e-7
-0.059, 1.0278717e-7, 9.9423048e-8
-0.060, 1.3449898e-7, 1.2876019e-7
-0.061, 1.0092371e-7, 8.5801645e-8
-0.062, 1.2485187e-7, 8.2519975e-8
-0.063, 1.3125029e-7, 7.5890675e-8
-0.064, 9.7823438e-8, 7.3087236e-8
-0.065, 1.2739144e-7, 6.2302256e-8
-0.066, 9.9192178e-8, 6.4231671e-8
-0.067, 1.3326218e-7, 1.1348970e-7
-0.068, 1.0799826e-7, 1.1588087e-7
-0.069, 1.1325884e-7, 9.5926993e-8
-0.070, 1.2467046e-7, 1.3004647e-7
-0.071, 9.2595855e-8, 1.0380961e-7
-0.072, 1.2943630e-7, 1.1210447e-7
-0.073, 8.6263384e-8, 8.8242281e-8
-0.074, 1.1621069e-7, 1.1131291e-7
-0.075, 1.2706163e-7, 1.1825554e-7
-0.076, 1.1380303e-7, 1.3317973e-7
-0.077, 1.2981559e-7, 1.3407022e-7
-0.078, 8.8456666e-8, 1.3121732e-7
-0.079, 1.3623051e-7, 1.4971999e-7
-0.080, 1.0244086e-7, 1.1377004e-7
-0.081, 1.0687688e-7, 9.7262756e-8
-0.082, 1.1764538e-7, 9.7559585e-8
-0.083, 9.3618283e-8, 9.4376865e-8
-0.084, 1.2904053e-7, 1.0483203e-7
-0.085, 9.4047053e-8, 7.6105053e-8
-0.086, 1.3349305e-7, 9.9225161e-8
-0.087, 1.1975621e-7, 1.0478256e-7
-0.088, 1.0493098e-7, 9.6058919e-8
-0.089, 1.2429118e-7, 1.1154378e-7
-0.090, 9.4673702e-8, 6.6903183e-8
-0.091, 1.2785318e-7, 7.4851755e-8
-0.092, 1.0105564e-7, 6.8717178e-8
-0.093, 1.0936701e-7, 7.1190797e-8
-0.094, 1.2994752e-7, 9.5184909e-8
-0.095, 1.0006619e-7, 9.3387413e-8
-0.096, 1.3273447e-7, 1.2351612e-7
-0.097, 1.0171527e-7, 9.6652599e-8
-0.098, 1.1390198e-7, 1.2549501e-7
-0.099, 1.1261569e-7, 1.1306094e-7
-0.100, 1.0585446e-7, 8.4136076e-8
-0.101, 1.1691979e-7, 1.1114801e-7
-0.102, 9.5762090e-8, 9.1326065e-8
-0.103, 1.2885913e-7, 1.3365795e-7
-0.104, 9.7757479e-8, 1.1048837e-7
-0.105, 1.0672847e-7, 1.4350296e-7
-0.106, 1.2473643e-7, 1.5534336e-7
-0.107, 1.0971331e-7, 1.1767836e-7
-0.108, 1.2986507e-7, 1.3552142e-7
-0.109, 9.2101125e-8, 7.5115608e-8
-0.110, 1.2331822e-7, 1.1508931e-7
-0.111, 1.1878325e-7, 8.9512078e-8
-0.112, 1.0992770e-7, 8.8671044e-8
-0.113, 1.3011243e-7, 1.1782678e-7
-0.114, 1.0474958e-7, 1.0072583e-7
-0.115, 1.3392180e-7, 1.1962429e-7
-0.116, 9.9587957e-8, 9.0765376e-8
-0.117, 1.2640200e-7, 1.0000022e-7
-0.118, 1.2595675e-7, 8.0689496e-8
-0.119, 1.0489799e-7, 5.0445365e-8
-0.120, 1.2120739e-7, 6.4660433e-8
-0.121, 9.4921063e-8, 5.3793002e-8
-0.122, 1.2866124e-7, 1.0275419e-7
-0.123, 1.1899763e-7, 1.1800819e-7
-0.124, 1.1462757e-7, 1.0522781e-7
-0.125, 1.3334463e-7, 1.2053127e-7
-0.126, 9.3436881e-8, 1.0575551e-7
-0.127, 1.3032681e-7, 1.1565000e-7
-0.128, 9.3024617e-8, 9.2958658e-8
-0.129, 1.1771134e-7, 1.0831160e-7
-0.130, 1.2333471e-7, 1.1886570e-7
-0.131, 1.0494747e-7, 1.0979576e-7
-0.132, 1.3629648e-7, 1.1802467e-7
-0.133, 9.2266035e-8, 1.3685717e-7
-0.134, 1.3413619e-7, 1.5232554e-7
-0.135, 1.0582148e-7, 1.3614807e-7
-0.136, 1.1248377e-7, 1.0153387e-7
-0.137, 1.2483537e-7, 1.2112494e-7
-0.138, 1.0727268e-7, 9.8301676e-8
-0.139, 1.3934729e-7, 1.0827861e-7
-0.140, 9.1787804e-8, 8.7483706e-8
-0.141, 1.2996401e-7, 1.0796528e-7
-0.142, 1.2917245e-7, 1.2028391e-7
-0.143, 1.1883272e-7, 8.9281208e-8
-0.144, 1.2739144e-7, 1.0882280e-7
-0.145, 9.9423048e-8, 8.8060879e-8
-0.146, 1.3771469e-7, 8.3064180e-8
-0.147, 1.0293559e-7, 6.3654497e-8
-0.148, 1.1083469e-7, 6.0273891e-8
-0.149, 1.2076214e-7, 9.3519340e-8
-0.150, 1.0133598e-7, 9.7609053e-8
-0.151, 1.3510913e-7, 1.0451870e-7
-0.152, 9.6124893e-8, 1.0486501e-7
-0.153, 1.2287296e-7, 1.3407022e-7
-0.154, 1.2074565e-7, 1.2333471e-7
-0.155, 1.0984523e-7, 1.0100617e-7
-0.156, 1.2127336e-7, 1.1490791e-7
-0.157, 1.0300155e-7, 1.0813019e-7
-0.158, 1.3463091e-7, 1.3073910e-7
-0.159, 1.0686040e-7, 1.2359857e-7
-0.160, 1.1893167e-7, 1.3280044e-7
-0.161, 1.3242115e-7, 1.7384605e-7
-0.162, 1.0877334e-7, 1.4760916e-7
-0.163, 1.3914939e-7, 1.5364481e-7
-0.164, 9.8631489e-8, 1.1377005e-7
-0.165, 1.2880966e-7, 1.3883607e-7
-0.166, 1.2028391e-7, 1.0588744e-7
-0.167, 1.1119748e-7, 7.6072070e-8
-0.168, 1.2688024e-7, 1.2094354e-7
-0.169, 1.1350619e-7, 1.0936700e-7
-0.170, 1.4533344e-7, 1.1086766e-7
-0.171, 1.1441318e-7, 9.6124893e-8
-0.172, 1.2692971e-7, 1.1070276e-7
-0.173, 1.3065663e-7, 1.2053127e-7
-0.174, 1.1152729e-7, 7.4291066e-8
-0.175, 1.3110188e-7, 7.8463238e-8
-0.176, 9.6916445e-8, 5.6596434e-8
-0.177, 1.3174503e-7, 1.0697583e-7
-0.178, 1.2252666e-7, 7.6649251e-8
-0.179, 1.1853589e-7, 9.9142717e-8
-0.180, 1.4732883e-7, 1.4503661e-7
-0.181, 1.0949893e-7, 1.2465398e-7
-0.182, 1.3042576e-7, 1.3720349e-7
-0.183, 1.0588744e-7, 9.6388732e-8
-0.184, 1.3110187e-7, 1.1545211e-7
-0.185, 1.2518169e-7, 1.4241456e-7
-0.186, 1.1622718e-7, 1.1909657e-7
-0.187, 1.4048514e-7, 1.1368759e-7
-0.188, 1.0105564e-7, 1.4879652e-7
-0.189, 1.4008937e-7, 1.8662642e-7
-0.190, 1.2453854e-7, 1.5207819e-7
-0.191, 1.2810057e-7, 1.3632946e-7
-0.192, 1.4208476e-7, 1.5522791e-7
-0.193, 1.1390198e-7, 1.2051478e-7
-0.194, 1.4333806e-7, 1.2923842e-7
-0.195, 9.8334660e-8, 1.0192965e-7
-0.196, 1.2935385e-7, 1.2374699e-7
-0.197, 1.3385585e-7, 1.4531696e-7
-0.198, 1.2509923e-7, 1.1073574e-7
-0.199, 1.3535652e-7, 1.1416583e-7
-0.200, 1.0369417e-7, 1.1517177e-7
-0.201, 1.5000035e-7, 1.2404381e-7
-0.202, 1.1385250e-7, 8.3575387e-8
-0.203, 1.2534659e-7, 6.3473095e-8
-0.204, 1.3738487e-7, 9.9818827e-8
-0.205, 1.1213746e-7, 9.1507459e-8
-0.206, 1.4323911e-7, 9.6619615e-8
-0.207, 1.0931753e-7, 9.1276590e-8
-0.208, 1.3877010e-7, 1.5409006e-7
-0.209, 1.3543895e-7, 1.6327544e-7
-0.210, 1.2439013e-7, 1.2208142e-7
-0.211, 1.3847327e-7, 1.4866460e-7
-0.212, 1.1040592e-7, 1.4126022e-7
-0.213, 1.4485521e-7, 1.3862169e-7
-0.214, 1.2059724e-7, 1.2491783e-7
-0.215, 1.3591719e-7, 1.2749040e-7
-0.216, 1.4340402e-7, 1.7117452e-7
-0.217, 1.1845344e-7, 1.6525433e-7
-0.218, 1.5135259e-7, 1.6843705e-7
-0.219, 1.1578192e-7, 1.4932421e-7
-0.220, 1.4088093e-7, 1.7567652e-7
-0.221, 1.3812696e-7, 1.3966061e-7
-0.222, 1.3096995e-7, 1.2526414e-7
-0.223, 1.4144162e-7, 1.2557746e-7
-0.224, 1.1809064e-7, 1.1705171e-7
-0.225, 1.5466723e-7, 1.2539607e-7
-0.226, 1.3190993e-7, 1.0933402e-7
-0.227, 1.3858870e-7, 1.3636244e-7
-0.228, 1.5438690e-7, 1.5056104e-7
-0.229, 1.2833142e-7, 1.1741450e-7
-0.230, 1.5770155e-7, 1.2166915e-7
-0.231, 1.1571596e-7, 8.2849787e-8
-0.232, 1.5041260e-7, 1.1784327e-7
-0.233, 1.5097329e-7, 1.0466712e-7
-0.234, 1.3873714e-7, 8.5933578e-8
-0.235, 1.5216064e-7, 1.7356570e-7
-0.236, 1.3623053e-7, 1.6325895e-7
-0.237, 1.5854258e-7, 1.6815672e-7
-0.238, 1.2328523e-7, 1.2815003e-7
-0.239, 1.5600300e-7, 1.5153398e-7
-0.240, 1.5095679e-7, 1.6184075e-7
-0.241, 1.2894159e-7, 1.3134924e-7
-0.242, 1.5456830e-7, 1.4442645e-7
-0.243, 1.2534659e-7, 1.4727935e-7
-0.244, 1.5371076e-7, 1.8129990e-7
-0.245, 1.5382621e-7, 1.8258618e-7
-0.246, 1.4497064e-7, 1.6454523e-7
-0.247, 1.6804128e-7, 1.7744104e-7
-0.248, 1.3136574e-7, 1.5636579e-7
-0.249, 1.5907030e-7, 1.7246080e-7
-0.250, 1.3403725e-7, 1.1543561e-7
-0.251, 1.5448583e-7, 1.4403066e-7
-0.252, 1.6154391e-7, 1.5745418e-7
-0.253, 1.4569623e-7, 1.3547194e-7
-0.254, 1.6716726e-7, 1.3898448e-7
-0.255, 1.3771469e-7, 1.2739144e-7
-0.256, 1.7551160e-7, 1.6104917e-7
-0.257, 1.4436048e-7, 1.3654383e-7
-0.258, 1.4536643e-7, 1.0173176e-7
-0.259, 1.7354918e-7, 1.1334129e-7
-0.260, 1.3721997e-7, 1.2020146e-7
-0.261, 1.7239485e-7, 1.3715400e-7
-0.262, 1.2790267e-7, 1.3763224e-7
-0.263, 1.5966395e-7, 1.7496741e-7
-0.264, 1.5715736e-7, 1.7697930e-7
-0.265, 1.4267842e-7, 1.5026419e-7
-0.266, 1.6635921e-7, 1.5188029e-7
-0.267, 1.3108539e-7, 1.4445943e-7
-0.268, 1.6599643e-7, 1.7185064e-7
-0.269, 1.4350297e-7, 1.4074899e-7
-0.270, 1.5252344e-7, 1.5504652e-7
-0.271, 1.6259931e-7, 2.0085798e-7
-0.272, 1.3355900e-7, 1.9343712e-7
-0.273, 1.6809074e-7, 1.9591073e-7
-0.274, 1.3332813e-7, 1.7595687e-7
-0.275, 1.5941657e-7, 1.6419892e-7
-0.276, 1.5877345e-7, 1.5722333e-7
-0.277, 1.5049507e-7, 1.3515861e-7
-0.278, 1.6449575e-7, 1.4431102e-7
-0.279, 1.3934729e-7, 1.5253993e-7
-0.280, 1.7033349e-7, 1.6540275e-7
-0.281, 1.4490469e-7, 1.4465732e-7
-0.282, 1.4840073e-7, 1.4882949e-7
-0.283, 1.6777742e-7, 1.6413296e-7
-0.284, 1.4637236e-7, 1.2938683e-7
-0.285, 1.6957492e-7, 1.2034988e-7
-0.286, 1.2617113e-7, 1.0537623e-7
-0.287, 1.6614483e-7, 1.3123380e-7
-0.288, 1.5623385e-7, 1.2971665e-7
-0.289, 1.4576219e-7, 1.5056102e-7
-0.290, 1.6614483e-7, 1.7557757e-7
-0.291, 1.3378988e-7, 1.5141855e-7
-0.292, 1.6263229e-7, 1.7170224e-7
-0.293, 1.3807750e-7, 1.3565334e-7
-0.294, 1.4675166e-7, 1.5067646e-7
-0.295, 1.5700893e-7, 1.7218048e-7
-0.296, 1.4162300e-7, 1.4579518e-7
-0.297, 1.6099970e-7, 1.7105910e-7
-0.298, 1.2617113e-7, 1.5992781e-7
-0.299, 1.5371077e-7, 2.1881645e-7
-0.300, 1.4055111e-7, 1.8047534e-7
-0.301, 1.4088093e-7, 1.5046207e-7
-0.302, 1.5600300e-7, 1.7015211e-7
-0.303, 1.3004647e-7, 1.4386575e-7
-0.304, 1.6131303e-7, 1.4411312e-7
-0.305, 1.3659330e-7, 1.1540264e-7
-0.306, 1.5344692e-7, 1.3591719e-7
-0.307, 1.5361182e-7, 1.6269824e-7
-0.308, 1.3154713e-7, 1.3886904e-7
-0.309, 1.5018172e-7, 1.4775759e-7
-0.310, 1.2956824e-7, 1.1038943e-7
-0.311, 1.5976289e-7, 1.2458801e-7
-0.312, 1.4299175e-7, 1.0089073e-7
-0.313, 1.3911639e-7, 9.6405230e-8
-0.314, 1.6319298e-7, 1.2094355e-7
-0.315, 1.2661637e-7, 1.2841389e-7
-0.316, 1.5842714e-7, 1.6083480e-7
-0.317, 1.1723312e-7, 1.3365795e-7
-0.318, 1.4196931e-7, 1.5110523e-7
-0.319, 1.4454189e-7, 1.6924511e-7
-0.320, 1.3355901e-7, 1.3890204e-7
-0.321, 1.5522792e-7, 1.3580177e-7
-0.322, 1.1705171e-7, 1.2732548e-7
-0.323, 1.6335788e-7, 1.5504654e-7
-0.324, 1.2176810e-7, 1.5921870e-7
-0.325, 1.4121073e-7, 1.5714087e-7
-0.326, 1.4744427e-7, 1.9317326e-7
-0.327, 1.2711111e-7, 1.7518180e-7
-0.328, 1.5999376e-7, 1.8449910e-7
-0.329, 1.1617770e-7, 1.1708470e-7
-0.330, 1.4340401e-7, 1.2961770e-7
-0.331, 1.4478924e-7, 1.5374376e-7
-0.332, 1.3679120e-7, 1.3210783e-7
-0.333, 1.5323253e-7, 1.4906037e-7
-0.334, 1.1886571e-7, 1.3974307e-7
-0.335, 1.5834469e-7, 1.5044557e-7
-0.336, 1.2663288e-7, 1.3870412e-7
-0.337, 1.3718699e-7, 1.2011901e-7
-0.338, 1.4981894e-7, 1.3707155e-7
-0.339, 1.2572588e-7, 1.0621726e-7
-0.340, 1.5659666e-7, 1.0214402e-7
-0.341, 1.2214737e-7, 8.8736996e-8
-0.342, 1.4530048e-7, 1.0931754e-7
-0.343, 1.5661314e-7, 1.6131304e-7
-0.344, 1.3491125e-7, 1.3659331e-7
-0.345, 1.4727935e-7, 1.5616790e-7
-0.346, 1.1180764e-7, 1.3690665e-7
-0.347, 1.5775102e-7, 1.5575563e-7
-0.348, 1.2320280e-7, 1.3133274e-7
-0.349, 1.3888555e-7, 1.3626349e-7
-0.350, 1.4701550e-7, 1.6152740e-7
-0.351, 1.3410320e-7, 1.4701550e-7
-0.352, 1.5499705e-7, 1.5766857e-7
-0.353, 1.2058075e-7, 1.5837767e-7
-0.354, 1.5211116e-7, 1.8652747e-7
-0.355, 1.5286973e-7, 1.6858547e-7
-0.356, 1.3255308e-7, 1.4670219e-7
-0.357, 1.4561378e-7, 1.6639220e-7
-0.358, 1.2938683e-7, 1.3054120e-7
-0.359, 1.6175828e-7, 1.4350296e-7
-0.360, 1.2475293e-7, 1.0743759e-7
-0.361, 1.4774110e-7, 1.3690664e-7
-0.362, 1.5606896e-7, 1.6180775e-7
-0.363, 1.4543238e-7, 1.3352603e-7
-0.364, 1.5250694e-7, 1.4408013e-7
-0.365, 1.2536309e-7, 1.1472651e-7
-0.366, 1.4854915e-7, 1.3717050e-7
-0.367, 1.4521801e-7, 9.6866977e-8
-0.368, 1.3601615e-7, 8.8588585e-8
-0.369, 1.5286975e-7, 1.0817968e-7
-0.370, 1.2584130e-7, 1.2752338e-7
-0.371, 1.5611842e-7, 1.6927808e-7
-0.372, 1.2570939e-7, 1.3585124e-7
-0.373, 1.4528396e-7, 1.5938362e-7
-0.374, 1.4643832e-7, 1.6408349e-7
-0.375, 1.3172854e-7, 1.4159002e-7
-0.376, 1.5498057e-7, 1.3707157e-7
-0.377, 1.2744093e-7, 1.2580833e-7
-0.378, 1.6365473e-7, 1.7488496e-7
-0.379, 1.3987500e-7, 1.9177153e-7
-0.380, 1.3479581e-7, 1.6027410e-7
-0.381, 1.5445285e-7, 2.0996089e-7
-0.382, 1.3172853e-7, 1.7297204e-7
-0.383, 1.6602939e-7, 1.7584142e-7
-0.384, 1.1756294e-7, 1.4848318e-7
-0.385, 1.5669561e-7, 1.4559731e-7
-0.386, 1.4958806e-7, 1.5479918e-7
-0.387, 1.3730244e-7, 1.3108539e-7
-0.388, 1.4810391e-7, 1.3974305e-7
-0.389, 1.2749041e-7, 1.4086444e-7
-0.390, 1.6782690e-7, 1.6129655e-7
-0.391, 1.3405374e-7, 1.4249703e-7
-0.392, 1.4365138e-7, 1.3336111e-7
-0.393, 1.5290271e-7, 1.2363155e-7
-0.394, 1.3280044e-7, 1.0775090e-7
-0.395, 1.6512240e-7, 1.1700224e-7
-0.396, 1.2628657e-7, 1.0555762e-7
-0.397, 1.6217055e-7, 1.4412961e-7
-0.398, 1.5733875e-7, 1.5441988e-7
-0.399, 1.4614149e-7, 1.5290271e-7
-0.400, 1.5687701e-7, 1.6258282e-7
-0.401, 1.2511572e-7, 1.6071937e-7
-0.402, 1.5717384e-7, 1.8014552e-7
-0.403, 1.3995745e-7, 1.5084137e-7
-0.404, 1.4119425e-7, 1.5544231e-7
-0.405, 1.6254984e-7, 1.8428472e-7
-0.406, 1.4841723e-7, 1.7011912e-7
-0.407, 1.7251028e-7, 1.7125697e-7
-0.408, 1.3566984e-7, 1.7455514e-7
-0.409, 1.5915273e-7, 2.0756973e-7
-0.410, 1.6025763e-7, 1.9281046e-7
-0.411, 1.4952211e-7, 1.5265536e-7
-0.412, 1.6851951e-7, 1.6454524e-7
-0.413, 1.4429452e-7, 1.4581167e-7
-0.414, 1.7374710e-7, 1.7852942e-7
-0.415, 1.4942317e-7, 1.3222325e-7
-0.416, 1.5842713e-7, 1.4099636e-7
-0.417, 1.6800828e-7, 1.7386253e-7
-0.418, 1.4589413e-7, 1.3731892e-7
-0.419, 1.6325895e-7, 1.4434400e-7
-0.420, 1.3398778e-7, 1.1243429e-7
-0.421, 1.6665604e-7, 1.4546535e-7
-0.422, 1.5376025e-7, 1.1472652e-7
-0.423, 1.5367779e-7, 1.2168563e-7
-0.424, 1.7640211e-7, 1.7168574e-7
-0.425, 1.5156697e-7, 1.8270160e-7
-0.426, 1.7795224e-7, 1.9012246e-7
-0.427, 1.4680111e-7, 1.4160653e-7
-0.428, 1.7036648e-7, 1.6969035e-7
-0.429, 1.6268177e-7, 1.8367456e-7
-0.430, 1.4505309e-7, 1.5634930e-7
-0.431, 1.7951888e-7, 1.6759603e-7
-0.432, 1.4760919e-7, 1.6474311e-7
-0.433, 1.6988824e-7, 2.2481910e-7
-0.434, 1.6101619e-7, 1.9777420e-7
-0.435, 1.5496407e-7, 1.8093708e-7
-0.436, 1.7862838e-7, 1.8751692e-7
-0.437, 1.4480574e-7, 1.3626349e-7
-0.438, 1.7900766e-7, 1.5379322e-7
-0.439, 1.4472329e-7, 1.3900097e-7
-0.440, 1.6962440e-7, 1.5319955e-7
-0.441, 1.7424183e-7, 1.7660001e-7
-0.442, 1.5273781e-7, 1.4790601e-7
-0.443, 1.8745095e-7, 1.5714087e-7
-0.444, 1.4069951e-7, 1.3779714e-7
-0.445, 1.8994106e-7, 1.4309069e-7
-0.446, 1.4567975e-7, 1.0925157e-7
-0.447, 1.6070288e-7, 1.1645805e-7
-0.448, 1.7768841e-7, 1.4127670e-7
-0.449, 1.4416260e-7, 1.5686051e-7
-0.450, 1.8901758e-7, 1.7453866e-7
-0.451, 1.3514213e-7, 1.5821274e-7
-0.452, 1.7993115e-7, 1.7922204e-7
-0.453, 1.7284010e-7, 1.8850636e-7
-0.454, 1.6007621e-7, 1.5098979e-7
-0.455, 1.8039290e-7, 1.7264222e-7
-0.456, 1.5145153e-7, 1.7826558e-7
-0.457, 1.9427816e-7, 2.0151759e-7
-0.458, 1.5545881e-7, 2.0225968e-7
-0.459, 1.6866794e-7, 1.9559741e-7
-0.460, 1.7447269e-7, 2.2871093e-7
-0.461, 1.5702543e-7, 1.8458155e-7
-0.462, 1.8466400e-7, 1.5646472e-7
-0.463, 1.5286975e-7, 1.4107881e-7
-0.464, 1.8288300e-7, 1.7382956e-7
-0.465, 1.8501031e-7, 1.7658351e-7
-0.466, 1.6195618e-7, 1.5725630e-7
-0.467, 1.9060069e-7, 1.7389551e-7
-0.468, 1.5422199e-7, 1.6663957e-7
-0.469, 1.8835794e-7, 1.5570616e-7
-0.470, 1.5725630e-7, 1.1081818e-7
-0.471, 1.6947598e-7, 1.2237824e-7
-0.472, 1.8979263e-7, 1.5954851e-7
-0.473, 1.6828864e-7, 1.5428795e-7
-0.474, 1.9452551e-7, 1.8098655e-7
-0.475, 1.5784997e-7, 1.6311054e-7
-0.476, 1.8050832e-7, 1.9333817e-7
-0.477, 1.8166267e-7, 1.9005651e-7
-0.478, 1.7483548e-7, 1.6434734e-7
-0.479, 1.8535663e-7, 2.0869112e-7
-0.480, 1.6871739e-7, 1.8768182e-7
-0.481, 1.9995097e-7, 2.2158690e-7
-0.482, 1.7288957e-7, 2.1180787e-7
-0.483, 1.8693974e-7, 2.1447937e-7
-0.484, 1.9135928e-7, 2.1616145e-7
-0.485, 1.7381305e-7, 1.7081173e-7
-0.486, 1.9467393e-7, 2.0184741e-7
-0.487, 1.6441331e-7, 1.4201879e-7
-0.488, 1.9073264e-7, 2.0056115e-7
-0.489, 1.9234872e-7, 1.7284010e-7
-0.490, 1.8402088e-7, 1.5542582e-7
-0.491, 2.0455191e-7, 2.0173199e-7
-0.492, 1.7100962e-7, 1.9007298e-7
-0.493, 2.0221023e-7, 1.5072592e-7
-0.494, 1.6795883e-7, 1.2732548e-7
-0.495, 2.0407369e-7, 1.5565669e-7
-0.496, 2.0420561e-7, 1.6461119e-7
-0.497, 1.8436717e-7, 1.9528407e-7
-0.498, 2.1626039e-7, 1.9909346e-7
-0.499, 1.7410990e-7, 2.0070954e-7
-0.500, 2.1038966e-7, 2.1043913e-7
