Jan. 28, 2006   01:25:23
Square Wave Voltammetry
File: z:\users\scottsaunders\git\labwork\ida\01_17_19_psoralen_nonequil_2\data\control\2\75um_control_transfer_2_swv_11.txt
Data Source:  Experiment
Instrument Model:  CHI760E
Header: 
Note: 

Init E (V) = 0.1
Final E (V) = -0.5
Incr E (V) = 0.001
Amplitude (V) = 0.025
Frequency (Hz) = 300
Quiet Time (sec) = 2
Sensitivity (A/V) = 1e-6
Sens 2 (A/V) = 1e-6

Potential/V, i1/A, i2/A

0.099, 9.8549030e-8, 7.9007435e-8
0.098, 1.6278071e-7, 1.1299498e-7
0.097, 1.2676480e-7, 8.3509427e-8
0.096, 1.3517511e-7, 8.5488317e-8
0.095, 1.4943966e-7, 1.2640200e-7
0.094, 1.2448908e-7, 1.0478256e-7
0.093, 1.5031367e-7, 1.1840397e-7
0.092, 1.2196598e-7, 9.0072767e-8
0.091, 1.5296868e-7, 1.1929447e-7
0.090, 1.4907685e-7, 1.2363155e-7
0.089, 1.3128327e-7, 8.6197431e-8
0.088, 1.5021473e-7, 1.1010909e-7
0.087, 1.2382944e-7, 1.2580833e-7
0.086, 1.5361182e-7, 1.1789275e-7
0.085, 1.2414276e-7, 1.0316646e-7
0.084, 1.4012235e-7, 1.0555763e-7
0.083, 1.5003332e-7, 1.3921536e-7
0.082, 1.1904710e-7, 9.7905897e-8
0.081, 1.5321606e-7, 1.0399100e-7
0.080, 1.1865132e-7, 8.6428301e-8
0.079, 1.3961113e-7, 1.0545868e-7
0.078, 1.4807091e-7, 1.0334786e-7
0.077, 1.3237167e-7, 9.2595855e-8
0.076, 1.5491460e-7, 1.5033015e-7
0.075, 1.1311042e-7, 1.0387556e-7
0.074, 1.5371077e-7, 1.1621069e-7
0.073, 1.1687031e-7, 8.9512078e-8
0.072, 1.3176151e-7, 1.0140194e-7
0.071, 1.4511906e-7, 1.0324892e-7
0.070, 1.2697917e-7, 8.5570775e-8
0.069, 1.4243106e-7, 1.0011567e-7
0.068, 1.0885579e-7, 8.1744908e-8
0.067, 1.4373383e-7, 1.2399434e-7
0.066, 1.3486178e-7, 1.0491448e-7
0.065, 1.2638552e-7, 9.1688861e-8
0.064, 1.4534994e-7, 1.2460450e-7
0.063, 1.1987164e-7, 1.1959129e-7
0.062, 1.4990140e-7, 1.2213088e-7
0.061, 1.1823906e-7, 7.9485666e-8
0.060, 1.4279385e-7, 1.0483204e-7
0.059, 1.4487169e-7, 1.1599631e-7
0.058, 1.2396136e-7, 8.4399929e-8
0.057, 1.3860520e-7, 1.0118757e-7
0.056, 1.1691979e-7, 7.5231043e-8
0.055, 1.4005639e-7, 1.2692971e-7
0.054, 1.3519160e-7, 1.0308401e-7
0.053, 1.2998051e-7, 9.2134115e-8
0.052, 1.4653726e-7, 1.1286305e-7
0.051, 1.1512229e-7, 1.0108862e-7
0.050, 1.4015534e-7, 1.2124038e-7
0.049, 1.1330830e-7, 6.5501467e-8
0.048, 1.3092048e-7, 1.1261569e-7
0.047, 1.3115135e-7, 1.1817309e-7
0.046, 1.1973972e-7, 9.1985697e-8
0.045, 1.4168899e-7, 1.1604578e-7
0.044, 1.0862492e-7, 9.8384128e-8
0.043, 1.4518503e-7, 1.0720670e-7
0.042, 1.2148774e-7, 9.7922381e-8
0.041, 1.2500028e-7, 8.0738971e-8
0.040, 1.4229914e-7, 1.1658997e-7
0.039, 1.1253324e-7, 1.1472651e-7
0.038, 1.4093040e-7, 1.2175160e-7
0.037, 9.5877532e-8, 9.6487682e-8
0.036, 1.3184396e-7, 1.0740460e-7
0.035, 1.2988156e-7, 1.1583140e-7
0.034, 1.2439013e-7, 8.8901913e-8
0.033, 1.4041919e-7, 1.1080170e-7
0.032, 1.0667900e-7, 9.7592576e-8
0.031, 1.4416258e-7, 1.1543563e-7
0.030, 1.1226939e-7, 1.0211104e-7
0.029, 1.2447258e-7, 7.8892000e-8
0.028, 1.3075558e-7, 1.1795871e-7
0.027, 1.0361171e-7, 1.0117108e-7
0.026, 1.3636244e-7, 9.1771312e-8
0.025, 1.0446923e-7, 1.0463414e-7
0.024, 1.3431759e-7, 1.1658997e-7
0.023, 1.3017839e-7, 1.1644156e-7
0.022, 1.2518169e-7, 9.3733725e-8
0.021, 1.3677472e-7, 1.0255630e-7
0.020, 1.0512887e-7, 9.5679638e-8
0.019, 1.3885256e-7, 1.1837098e-7
0.018, 1.1253323e-7, 1.0956489e-7
0.017, 1.1871730e-7, 1.0466712e-7
0.016, 1.3453197e-7, 1.2064672e-7
0.015, 1.1319287e-7, 9.5745598e-8
0.014, 1.4487171e-7, 1.1469353e-7
0.013, 1.0656358e-7, 9.5102457e-8
0.012, 1.3341059e-7, 1.0765196e-7
0.011, 1.2645147e-7, 1.2683076e-7
0.010, 1.1029049e-7, 9.7427659e-8
0.009, 1.3374041e-7, 1.1426478e-7
0.008, 1.0740460e-7, 1.0648111e-7
0.007, 1.4224966e-7, 1.1790924e-7
0.006, 1.0925157e-7, 9.5795073e-8
0.005, 1.2071267e-7, 9.5712622e-8
0.004, 1.3596667e-7, 1.1091714e-7
0.003, 1.1266516e-7, 8.4482380e-8
0.002, 1.3017839e-7, 1.0870737e-7
0.001, 9.6207344e-8, 9.3799692e-8
-0.000, 1.3510915e-7, 1.2330173e-7
-0.001, 1.2859527e-7, 8.8671044e-8
-0.002, 1.1560053e-7, 7.1784463e-8
-0.003, 1.3118434e-7, 1.2208142e-7
-0.004, 1.1091714e-7, 1.0249033e-7
-0.005, 1.3834133e-7, 1.2213088e-7
-0.006, 1.0948244e-7, 7.3548982e-8
-0.007, 1.2905701e-7, 1.2999701e-7
-0.008, 1.3357550e-7, 1.1632611e-7
-0.009, 1.1119749e-7, 1.0155036e-7
-0.010, 1.3971008e-7, 9.6174354e-8
-0.011, 1.0582148e-7, 9.5745605e-8
-0.012, 1.2960122e-7, 1.2943630e-7
-0.013, 1.2049830e-7, 9.5712615e-8
-0.014, 1.2272454e-7, 1.0402398e-7
-0.015, 1.3411970e-7, 1.0511238e-7
-0.016, 1.0890525e-7, 9.8977793e-8
-0.017, 1.3021138e-7, 1.1205501e-7
-0.018, 9.8664472e-8, 9.1359048e-8
-0.019, 1.2216385e-7, 1.0620076e-7
-0.020, 1.3105242e-7, 1.1657347e-7
-0.021, 1.1149432e-7, 9.2777256e-8
-0.022, 1.3679121e-7, 9.9225154e-8
-0.023, 9.6322779e-8, 9.5036498e-8
-0.024, 1.4658673e-7, 1.0636568e-7
-0.025, 1.1052136e-7, 1.0747056e-7
-0.026, 1.1627665e-7, 9.0336613e-8
-0.027, 1.2625358e-7, 1.3037629e-7
-0.028, 1.0529377e-7, 1.0880632e-7
-0.029, 1.3674173e-7, 1.2643497e-7
-0.030, 9.0963269e-8, 8.8934897e-8
-0.031, 1.2983209e-7, 1.1617770e-7
-0.032, 1.2823249e-7, 1.2468695e-7
-0.033, 1.1743100e-7, 8.4119584e-8
-0.034, 1.2813354e-7, 1.1096662e-7
-0.035, 1.0593691e-7, 9.5481752e-8
-0.036, 1.3357550e-7, 1.2755636e-7
-0.037, 1.0051144e-7, 1.1324234e-7
-0.038, 1.1136239e-7, 9.9192178e-8
-0.039, 1.2884264e-7, 1.4497064e-7
-0.040, 9.3882136e-8, 1.0728916e-7
-0.041, 1.3095345e-7, 1.0672847e-7
-0.042, 9.8087291e-8, 8.2173671e-8
-0.043, 1.2389540e-7, 1.2500028e-7
-0.044, 1.2096004e-7, 1.1779380e-7
-0.045, 1.1518826e-7, 9.6025943e-8
-0.046, 1.2331822e-7, 1.2951875e-7
-0.047, 9.8136766e-8, 9.1111687e-8
-0.048, 1.2869421e-7, 1.3209133e-7
-0.049, 1.0564008e-7, 9.7559592e-8
-0.050, 1.0695935e-7, 1.0537623e-7
-0.051, 1.2615465e-7, 1.2991455e-7
-0.052, 1.0890525e-7, 1.0376013e-7
-0.053, 1.3167906e-7, 1.1433074e-7
-0.054, 9.3173036e-8, 1.0870738e-7
-0.055, 1.2377997e-7, 1.4609202e-7
-0.056, 1.1607875e-7, 1.2392837e-7
-0.057, 1.0658006e-7, 9.0353105e-8
-0.058, 1.2831492e-7, 1.2137231e-7
-0.059, 1.0316646e-7, 1.0824562e-7
-0.060, 1.4041919e-7, 1.2180107e-7
-0.061, 1.0150089e-7, 9.8796406e-8
-0.062, 1.2178458e-7, 1.0219350e-7
-0.063, 1.2758933e-7, 1.4093040e-7
-0.064, 1.1010908e-7, 1.1352269e-7
-0.065, 1.2279051e-7, 1.1809064e-7
-0.066, 9.4970531e-8, 1.0158335e-7
-0.067, 1.2297191e-7, 1.4915931e-7
-0.068, 1.1190659e-7, 1.0977927e-7
-0.069, 1.0968033e-7, 9.4343882e-8
-0.070, 1.2988156e-7, 1.3885256e-7
-0.071, 9.6768034e-8, 1.0634918e-7
-0.072, 1.2561044e-7, 1.3425162e-7
-0.073, 9.4888080e-8, 8.6642679e-8
-0.074, 1.2434066e-7, 1.2262561e-7
-0.075, 1.2128984e-7, 1.1842045e-7
-0.076, 1.0155036e-7, 1.2467046e-7
-0.077, 1.2996401e-7, 1.1035645e-7
-0.078, 9.9225154e-8, 1.0822914e-7
-0.079, 1.2377997e-7, 1.4281034e-7
-0.080, 1.1479248e-7, 1.3016191e-7
-0.081, 1.1152730e-7, 1.2834792e-7
-0.082, 1.3153064e-7, 1.3863817e-7
-0.083, 1.0253981e-7, 1.2297191e-7
-0.084, 1.3044226e-7, 1.2562694e-7
-0.085, 9.4228440e-8, 1.3547194e-7
-0.086, 1.2354909e-7, 1.2579184e-7
-0.087, 1.2227930e-7, 1.2313683e-7
-0.088, 1.0509588e-7, 1.1688681e-7
-0.089, 1.2368102e-7, 1.1911307e-7
-0.090, 8.8159830e-8, 1.2376347e-7
-0.091, 1.3647788e-7, 1.2668234e-7
-0.092, 9.8054315e-8, 1.2762233e-7
-0.093, 1.0648111e-7, 1.0822914e-7
-0.094, 1.2229579e-7, 1.5315010e-7
-0.095, 9.7806954e-8, 1.1563350e-7
-0.096, 1.2778723e-7, 1.1975621e-7
-0.097, 8.6098481e-8, 1.1891517e-7
-0.098, 1.2417574e-7, 1.5722331e-7
-0.099, 1.2231229e-7, 1.5351289e-7
-0.100, 1.0596990e-7, 1.3774768e-7
-0.101, 1.2824897e-7, 1.4528396e-7
-0.102, 9.9043760e-8, 1.3509265e-7
-0.103, 1.2407681e-7, 1.4907685e-7
-0.104, 1.0755302e-7, 1.1733206e-7
-0.105, 1.1113152e-7, 1.3563685e-7
-0.106, 1.2353260e-7, 1.5755313e-7
-0.107, 9.6273311e-8, 1.3372392e-7
-0.108, 1.3332814e-7, 1.4912634e-7
-0.109, 8.9347168e-8, 1.2293893e-7
-0.110, 1.2758933e-7, 1.5488162e-7
-0.111, 1.1855239e-7, 1.6136251e-7
-0.112, 1.0959787e-7, 1.5245747e-7
-0.113, 1.2488485e-7, 1.6225300e-7
-0.114, 9.1111687e-8, 1.4919229e-7
-0.115, 1.2486835e-7, 1.4800494e-7
-0.116, 1.0257279e-7, 1.5638227e-7
-0.117, 1.0991120e-7, 1.5232554e-7
-0.118, 1.2345015e-7, 1.7663298e-7
-0.119, 1.0986172e-7, 1.4078198e-7
-0.120, 1.3115135e-7, 1.6076883e-7
-0.121, 8.5273939e-8, 1.6065339e-7
-0.122, 1.1759591e-7, 1.9063367e-7
-0.123, 1.1375356e-7, 1.7219696e-7
-0.124, 1.0775091e-7, 1.4450890e-7
-0.125, 1.2401084e-7, 1.9262907e-7
-0.126, 9.7114338e-8, 1.8003009e-7
-0.127, 1.2831494e-7, 1.9005650e-7
-0.128, 1.0676146e-7, 1.7171872e-7
-0.129, 1.2038285e-7, 1.8098656e-7
-0.130, 1.2803460e-7, 1.7326887e-7
-0.131, 1.0158335e-7, 1.6701884e-7
-0.132, 1.2323576e-7, 1.7570950e-7
-0.133, 9.6421722e-8, 1.6972334e-7
-0.134, 1.2430766e-7, 1.9973660e-7
-0.135, 1.1269815e-7, 1.8420226e-7
-0.136, 1.1162624e-7, 1.6650763e-7
-0.137, 1.2930438e-7, 1.9991801e-7
-0.138, 1.0171527e-7, 1.8003009e-7
-0.139, 1.3158012e-7, 1.7838101e-7
-0.140, 9.6718551e-8, 1.7838101e-7
-0.141, 1.2048180e-7, 2.1609549e-7
-0.142, 1.2661638e-7, 2.2432440e-7
-0.143, 1.0928455e-7, 2.0658027e-7
-0.144, 1.2699567e-7, 2.0882302e-7
-0.145, 9.8862358e-8, 2.1560076e-7
-0.146, 1.3637893e-7, 2.3656057e-7
-0.147, 1.1159326e-7, 2.1256643e-7
-0.148, 1.0982874e-7, 2.0666273e-7
-0.149, 1.3158012e-7, 2.5745442e-7
-0.150, 1.0601936e-7, 2.1766211e-7
-0.151, 1.3035979e-7, 2.5145175e-7
-0.152, 9.0682924e-8, 2.1903085e-7
-0.153, 1.2308735e-7, 2.4269514e-7
-0.154, 1.1954184e-7, 2.5636601e-7
-0.155, 1.0982874e-7, 2.1939363e-7
-0.156, 1.2628658e-7, 2.4215095e-7
-0.157, 9.8631489e-8, 2.3426834e-7
-0.158, 1.4327209e-7, 2.6159358e-7
-0.159, 1.0448572e-7, 2.3947945e-7
-0.160, 1.2002006e-7, 2.3693985e-7
-0.161, 1.2993104e-7, 2.7859562e-7
-0.162, 9.9093235e-8, 2.5850983e-7
-0.163, 1.3034331e-7, 2.7966752e-7
-0.164, 1.0097319e-7, 2.5197946e-7
-0.165, 1.3233870e-7, 2.8167941e-7
-0.166, 1.2333470e-7, 3.0118804e-7
-0.167, 1.1416583e-7, 2.5804809e-7
-0.168, 1.2920543e-7, 2.8255340e-7
-0.169, 1.0298507e-7, 2.7693005e-7
-0.170, 1.2961772e-7, 3.1464450e-7
-0.171, 1.0430432e-7, 2.7392872e-7
-0.172, 1.1950885e-7, 2.9096373e-7
-0.173, 1.2904053e-7, 3.1406734e-7
-0.174, 1.1304445e-7, 2.8360881e-7
-0.175, 1.4046866e-7, 3.0781732e-7
-0.176, 1.0277068e-7, 3.1217087e-7
-0.177, 1.3286639e-7, 3.2293940e-7
-0.178, 1.2229579e-7, 3.2320327e-7
-0.179, 1.1284656e-7, 3.0470056e-7
-0.180, 1.2790267e-7, 3.4919276e-7
-0.181, 1.0946594e-7, 3.2754031e-7
-0.182, 1.4229913e-7, 3.6327589e-7
-0.183, 1.1339075e-7, 3.2973361e-7
-0.184, 1.2547852e-7, 3.3416961e-7
-0.185, 1.3585124e-7, 3.7010307e-7
-0.186, 1.1944289e-7, 3.3816039e-7
-0.187, 1.3632946e-7, 3.7902458e-7
-0.188, 1.0211104e-7, 3.3784704e-7
-0.189, 1.3964411e-7, 3.9586172e-7
-0.190, 1.2107547e-7, 3.7755694e-7
-0.191, 1.2003656e-7, 3.7526473e-7
-0.192, 1.3911641e-7, 3.9919286e-7
-0.193, 1.1368759e-7, 3.9406422e-7
-0.194, 1.5184730e-7, 4.1378723e-7
-0.195, 1.1060382e-7, 3.8529112e-7
-0.196, 1.4353596e-7, 4.0794947e-7
-0.197, 1.4567975e-7, 4.4413028e-7
-0.198, 1.2183405e-7, 3.9836831e-7
-0.199, 1.4116127e-7, 4.2648512e-7
-0.200, 1.1591385e-7, 4.0936766e-7
-0.201, 1.3774768e-7, 4.6180841e-7
-0.202, 1.3400427e-7, 4.3939744e-7
-0.203, 1.3280044e-7, 4.5661383e-7
-0.204, 1.4836775e-7, 4.5753734e-7
-0.205, 1.1828853e-7, 4.5153467e-7
-0.206, 1.4985191e-7, 4.7566073e-7
-0.207, 1.1344022e-7, 4.5803205e-7
-0.208, 1.3954518e-7, 4.8290019e-7
-0.209, 1.4693305e-7, 5.0682831e-7
-0.210, 1.3034330e-7, 4.9569701e-7
-0.211, 1.4637236e-7, 5.0560800e-7
-0.212, 1.2387891e-7, 4.8829264e-7
-0.213, 1.6129654e-7, 5.2501770e-7
-0.214, 1.3101942e-7, 5.3547285e-7
-0.215, 1.4099638e-7, 5.2364896e-7
-0.216, 1.4760917e-7, 5.4558171e-7
-0.217, 1.2732548e-7, 5.5790036e-7
-0.218, 1.5893835e-7, 5.8496175e-7
-0.219, 1.2524765e-7, 5.4914375e-7
-0.220, 1.5814678e-7, 5.7320381e-7
-0.221, 1.5554124e-7, 5.9058510e-7
-0.222, 1.3985849e-7, 5.8337866e-7
-0.223, 1.6403401e-7, 5.9487269e-7
-0.224, 1.2541256e-7, 5.8677574e-7
-0.225, 1.6637571e-7, 6.3504433e-7
-0.226, 1.3565334e-7, 6.2579295e-7
-0.227, 1.3957815e-7, 6.1551918e-7
-0.228, 1.6822267e-7, 6.5057861e-7
-0.229, 1.3141519e-7, 6.4826997e-7
-0.230, 1.7142189e-7, 6.7952004e-7
-0.231, 1.3931430e-7, 6.4841834e-7
-0.232, 1.5918572e-7, 6.8984326e-7
-0.233, 1.6680447e-7, 7.1949376e-7
-0.234, 1.5194625e-7, 6.8581949e-7
-0.235, 1.7293905e-7, 7.1180898e-7
-0.236, 1.4261246e-7, 7.1126476e-7
-0.237, 1.7610527e-7, 7.4249840e-7
-0.238, 1.5575563e-7, 7.4220151e-7
-0.239, 1.5686051e-7, 7.5501492e-7
-0.240, 1.8110200e-7, 7.8262048e-7
-0.241, 1.5776750e-7, 7.5898913e-7
-0.242, 1.8176162e-7, 7.8059213e-7
-0.243, 1.4658674e-7, 7.8603409e-7
-0.244, 1.8189355e-7, 8.0907171e-7
-0.245, 1.7125699e-7, 8.3873863e-7
-0.246, 1.6146146e-7, 8.0033169e-7
-0.247, 1.8501029e-7, 8.3722153e-7
-0.248, 1.5854258e-7, 8.3545706e-7
-0.249, 1.9747735e-7, 8.6820774e-7
-0.250, 1.6485855e-7, 8.5404218e-7
-0.251, 1.7821610e-7, 8.6232058e-7
-0.252, 1.9035332e-7, 9.1118284e-7
-0.253, 1.6578204e-7, 8.9507131e-7
-0.254, 1.8964423e-7, 9.0846180e-7
-0.255, 1.5694296e-7, 9.0771977e-7
-0.256, 1.8692323e-7, 9.6535507e-7
-0.257, 1.8735200e-7, 9.4747907e-7
-0.258, 1.7955185e-7, 9.3573760e-7
-0.259, 1.9657035e-7, 9.8606756e-7
-0.260, 1.6772795e-7, 1.0046527e-6
-0.261, 1.9633949e-7, 1.0081982e-6
-0.262, 1.7570950e-7, 9.8750218e-7
-0.263, 1.9394832e-7, 1.0321924e-6
-0.264, 1.9798858e-7, 1.0414601e-6
-0.265, 1.7341728e-7, 1.0380795e-6
-0.266, 2.0446946e-7, 1.0461436e-6
-0.267, 1.6634272e-7, 1.0670703e-6
-0.268, 2.0301827e-7, 1.1119913e-6
-0.269, 1.9046877e-7, 1.0955334e-6
-0.270, 1.8713763e-7, 1.0910480e-6
-0.271, 2.0441999e-7, 1.1373542e-6
-0.272, 1.7369763e-7, 1.1324399e-6
-0.273, 2.0306774e-7, 1.1564505e-6
-0.274, 1.6472663e-7, 1.1436866e-6
-0.275, 1.9084804e-7, 1.1700720e-6
-0.276, 1.9200240e-7, 1.2094849e-6
-0.277, 1.8444962e-7, 1.1796695e-6
-0.278, 2.0026431e-7, 1.2180271e-6
-0.279, 1.6690342e-7, 1.2141188e-6
-0.280, 2.0493120e-7, 1.2612001e-6
-0.281, 1.7153732e-7, 1.2627337e-6
-0.282, 1.8443313e-7, 1.2374204e-6
-0.283, 1.9929135e-7, 1.2977272e-6
-0.284, 1.7752349e-7, 1.2996567e-6
-0.285, 2.0102289e-7, 1.3285155e-6
-0.286, 1.5606895e-7, 1.3197259e-6
-0.287, 1.9348658e-7, 1.3403724e-6
-0.288, 1.9622405e-7, 1.3806595e-6
-0.289, 1.7341729e-7, 1.3609861e-6
-0.290, 1.9473987e-7, 1.3515037e-6
-0.291, 1.6029060e-7, 1.3893336e-6
-0.292, 1.9129331e-7, 1.4251186e-6
-0.293, 1.6492451e-7, 1.4305112e-6
-0.294, 1.7910661e-7, 1.4233211e-6
-0.295, 1.8608222e-7, 1.4665929e-6
-0.296, 1.6190670e-7, 1.4688687e-6
-0.297, 1.9048525e-7, 1.4866623e-6
-0.298, 1.6055446e-7, 1.4765535e-6
-0.299, 1.7976625e-7, 1.5046538e-6
-0.300, 1.8428472e-7, 1.5557093e-6
-0.301, 1.7424182e-7, 1.4947759e-6
-0.302, 1.7970027e-7, 1.5508280e-6
-0.303, 1.4121075e-7, 1.5850794e-6
-0.304, 1.8469697e-7, 1.5840570e-6
-0.305, 1.5133611e-7, 1.5782852e-6
-0.306, 1.5761910e-7, 1.6023782e-6
-0.307, 1.7810068e-7, 1.6230413e-6
-0.308, 1.5695946e-7, 1.6379654e-6
-0.309, 1.7874382e-7, 1.6290273e-6
-0.310, 1.4556433e-7, 1.6473982e-6
-0.311, 1.7267519e-7, 1.6894662e-6
-0.312, 1.7039946e-7, 1.7099313e-6
-0.313, 1.5404059e-7, 1.6879985e-6
-0.314, 1.7366465e-7, 1.7278733e-6
-0.315, 1.4073251e-7, 1.7279062e-6
-0.316, 1.7782031e-7, 1.7612836e-6
-0.317, 1.4292580e-7, 1.7540112e-6
-0.318, 1.6431434e-7, 1.7547862e-6
-0.319, 1.7443972e-7, 1.8074085e-6
-0.320, 1.5189678e-7, 1.7809077e-6
-0.321, 1.7115804e-7, 1.7897634e-6
-0.322, 1.4290930e-7, 1.7937375e-6
-0.323, 1.5704192e-7, 1.8529726e-6
-0.324, 1.5638228e-7, 1.8465246e-6
-0.325, 1.5092384e-7, 1.8184902e-6
-0.326, 1.7021806e-7, 1.8778571e-6
-0.327, 1.4211774e-7, 1.8705023e-6
-0.328, 1.7015212e-7, 1.8874547e-6
-0.329, 1.4229914e-7, 1.8660662e-6
-0.330, 1.6156039e-7, 1.8991632e-6
-0.331, 1.6670552e-7, 1.9274121e-6
-0.332, 1.3723644e-7, 1.9134609e-6
-0.333, 1.6002674e-7, 1.9187378e-6
-0.334, 1.3308079e-7, 1.9373560e-6
-0.335, 1.6683745e-7, 1.9622078e-6
-0.336, 1.4942316e-7, 1.9645988e-6
-0.337, 1.5382621e-7, 1.9400111e-6
-0.338, 1.7326886e-7, 1.9708818e-6
-0.339, 1.4083145e-7, 1.9701067e-6
-0.340, 1.7053139e-7, 1.9857894e-6
-0.341, 1.2785318e-7, 1.9597176e-6
-0.342, 1.6921213e-7, 1.9886920e-6
-0.343, 1.5418901e-7, 2.0205191e-6
-0.344, 1.4233213e-7, 1.9995427e-6
-0.345, 1.6281368e-7, 1.9834149e-6
-0.346, 1.2686374e-7, 1.9961788e-6
-0.347, 1.6891528e-7, 2.0175344e-6
-0.348, 1.3952867e-7, 2.0452057e-6
-0.349, 1.4602605e-7, 1.9894010e-6
-0.350, 1.5564019e-7, 2.0517691e-6
-0.351, 1.3014541e-7, 2.0206510e-6
-0.352, 1.6693639e-7, 2.0332666e-6
-0.353, 1.3039276e-7, 2.0107400e-6
-0.354, 1.6330841e-7, 2.0188700e-6
-0.355, 1.5603597e-7, 2.0473331e-6
-0.356, 1.4236510e-7, 2.0121252e-6
-0.357, 1.5819626e-7, 2.0186062e-6
-0.358, 1.2994752e-7, 2.0376860e-6
-0.359, 1.6438032e-7, 2.0294242e-6
-0.360, 1.3947921e-7, 1.9981410e-6
-0.361, 1.4462432e-7, 1.9999552e-6
-0.362, 1.6075234e-7, 2.0240645e-6
-0.363, 1.3449898e-7, 1.9999552e-6
-0.364, 1.6660658e-7, 2.0049354e-6
-0.365, 1.2803459e-7, 1.9720690e-6
-0.366, 1.6172530e-7, 1.9851132e-6
-0.367, 1.5682753e-7, 2.0015382e-6
-0.368, 1.4287632e-7, 1.9238335e-6
-0.369, 1.6362173e-7, 1.9597505e-6
-0.370, 1.2683076e-7, 1.9500044e-6
-0.371, 1.7775434e-7, 1.9408355e-6
-0.372, 1.3220676e-7, 1.9333982e-6
-0.373, 1.4628992e-7, 1.8779890e-6
-0.374, 1.6299509e-7, 1.9262907e-6
-0.375, 1.3990797e-7, 1.8884773e-6
-0.376, 1.5821277e-7, 1.8889720e-6
-0.377, 1.2430768e-7, 1.8681441e-6
-0.378, 1.5262238e-7, 1.8750043e-6
-0.379, 1.5343042e-7, 1.8692324e-6
-0.380, 1.4633939e-7, 1.8084803e-6
-0.381, 1.6276422e-7, 1.8102284e-6
-0.382, 1.3690664e-7, 1.8149777e-6
-0.383, 1.6934406e-7, 1.7998227e-6
-0.384, 1.3565335e-7, 1.7522137e-6
-0.385, 1.5819627e-7, 1.7555284e-6
-0.386, 1.6436384e-7, 1.7501194e-6
-0.387, 1.4310717e-7, 1.7052974e-6
-0.388, 1.6005973e-7, 1.6932261e-6
-0.389, 1.3232220e-7, 1.6744431e-6
-0.390, 1.5654720e-7, 1.6861351e-6
-0.391, 1.5479917e-7, 1.6490637e-6
-0.392, 1.4488819e-7, 1.5921211e-6
-0.393, 1.6777742e-7, 1.6195122e-6
-0.394, 1.3459794e-7, 1.6013889e-6
-0.395, 1.6604588e-7, 1.5702212e-6
-0.396, 1.3623051e-7, 1.5390041e-6
-0.397, 1.5549179e-7, 1.5120911e-6
-0.398, 1.6446278e-7, 1.5250034e-6
-0.399, 1.4318965e-7, 1.4866458e-6
-0.400, 1.6330841e-7, 1.4725957e-6
-0.401, 1.3265200e-7, 1.4457156e-6
-0.402, 1.6868444e-7, 1.4613654e-6
-0.403, 1.4782356e-7, 1.4189511e-6
-0.404, 1.5310060e-7, 1.3683573e-6
-0.405, 1.7010262e-7, 1.3787136e-6
-0.406, 1.4472329e-7, 1.3537135e-6
-0.407, 1.7349974e-7, 1.3365961e-6
-0.408, 1.2643500e-7, 1.3114970e-6
-0.409, 1.6848652e-7, 1.2853095e-6
-0.410, 1.5994428e-7, 1.2842047e-6
-0.411, 1.5118768e-7, 1.2393003e-6
-0.412, 1.6593046e-7, 1.2002665e-6
-0.413, 1.3093697e-7, 1.1937198e-6
-0.414, 1.7966730e-7, 1.2131293e-6
-0.415, 1.4482224e-7, 1.1697092e-6
-0.416, 1.5168240e-7, 1.1236338e-6
-0.417, 1.6748059e-7, 1.1505797e-6
-0.418, 1.4521800e-7, 1.1117439e-6
-0.419, 1.7303799e-7, 1.0978093e-6
-0.420, 1.4010587e-7, 1.0620737e-6
-0.421, 1.7295554e-7, 1.0631290e-6
-0.422, 1.7135592e-7, 1.0571594e-6
-0.423, 1.5745420e-7, 1.0052133e-6
-0.424, 1.7198258e-7, 1.0071263e-6
-0.425, 1.4376681e-7, 9.9393367e-7
-0.426, 1.6861846e-7, 9.6985707e-7
-0.427, 1.5115469e-7, 9.7463931e-7
-0.428, 1.6377015e-7, 9.3725470e-7
-0.429, 1.7406042e-7, 9.5598830e-7
-0.430, 1.4942316e-7, 9.2524954e-7
-0.431, 1.8505979e-7, 9.1237007e-7
-0.432, 1.4841723e-7, 8.9193804e-7
-0.433, 1.7298852e-7, 8.7742609e-7
-0.434, 1.7455514e-7, 8.7500194e-7
-0.435, 1.6251687e-7, 8.3750183e-7
-0.436, 1.7770488e-7, 8.4169051e-7
-0.437, 1.4769162e-7, 8.2125848e-7
-0.438, 1.9318975e-7, 8.0953350e-7
-0.439, 1.5560721e-7, 7.8212577e-7
-0.440, 1.6185722e-7, 7.8252162e-7
-0.441, 1.8416928e-7, 7.8682558e-7
-0.442, 1.4902739e-7, 7.4446075e-7
-0.443, 1.7785329e-7, 7.5973128e-7
-0.444, 1.4287633e-7, 7.4043709e-7
-0.445, 1.7577547e-7, 7.5849448e-7
-0.446, 1.7450567e-7, 7.1713561e-7
-0.447, 1.6652413e-7, 7.0702669e-7
-0.448, 1.8581837e-7, 7.3697390e-7
-0.449, 1.6014218e-7, 7.0522913e-7
-0.450, 1.8700570e-7, 7.1530508e-7
-0.451, 1.6446276e-7, 6.8671000e-7
-0.452, 1.8670886e-7, 6.6753114e-7
-0.453, 1.8350966e-7, 7.1406822e-7
-0.454, 1.6170881e-7, 6.4175606e-7
-0.455, 1.8690676e-7, 6.7239597e-7
-0.456, 1.7102610e-7, 6.3723758e-7
-0.457, 1.8082164e-7, 6.6591508e-7
-0.458, 1.7666596e-7, 6.4192102e-7
-0.459, 1.7219696e-7, 6.2518285e-7
-0.460, 1.9254661e-7, 6.2768942e-7
-0.461, 1.6185722e-7, 6.1276523e-7
-0.462, 1.9816997e-7, 6.2218152e-7
-0.463, 1.6065340e-7, 6.1431541e-7
-0.464, 1.8042587e-7, 6.0585563e-7
-0.465, 1.8900109e-7, 6.1743208e-7
-0.466, 1.7061384e-7, 6.1032461e-7
-0.467, 1.9388237e-7, 5.9879756e-7
-0.468, 1.6233547e-7, 5.5639970e-7
-0.469, 2.0547540e-7, 5.9855023e-7
-0.470, 1.7163627e-7, 5.8019589e-7
-0.471, 1.9027088e-7, 5.4004079e-7
-0.472, 1.9599320e-7, 5.6868532e-7
-0.473, 1.7605579e-7, 5.5893929e-7
-0.474, 2.0465086e-7, 5.8730336e-7
-0.475, 1.5689351e-7, 5.5936800e-7
-0.476, 2.0564032e-7, 5.5839507e-7
-0.477, 1.9566338e-7, 5.8761680e-7
-0.478, 1.7927152e-7, 5.4784095e-7
-0.479, 2.0425507e-7, 5.3336203e-7
-0.480, 1.7658351e-7, 5.3187784e-7
-0.481, 2.0870760e-7, 5.6899864e-7
-0.482, 1.8055781e-7, 5.5278815e-7
-0.483, 1.9299185e-7, 5.3809492e-7
-0.484, 2.0148462e-7, 5.4640623e-7
-0.485, 1.8301493e-7, 5.2979999e-7
-0.486, 2.1009282e-7, 5.3540691e-7
-0.487, 1.7691333e-7, 5.0803214e-7
-0.488, 2.0199583e-7, 5.5684495e-7
-0.489, 2.1076895e-7, 5.4655465e-7
-0.490, 1.9274449e-7, 5.0882375e-7
-0.491, 2.1119770e-7, 5.4180532e-7
-0.492, 1.7735857e-7, 5.3931518e-7
-0.493, 2.2039958e-7, 5.3321355e-7
-0.494, 1.9028737e-7, 5.0710867e-7
-0.495, 2.0089095e-7, 5.1586528e-7
-0.496, 2.1090088e-7, 5.1372149e-7
-0.497, 1.9975307e-7, 5.1537063e-7
-0.498, 2.2857901e-7, 5.3205929e-7
-0.499, 1.8214089e-7, 5.1472739e-7
-0.500, 2.1800841e-7, 5.1955925e-7
