Jan. 28, 2006   01:39:09
Cyclic Voltammetry
File: z:\users\scottsaunders\git\labwork\ida\01_17_19_psoralen_nonequil_2\data\control\2\75um_control_transfer_2_gc_15.txt
Data Source:  Experiment
Instrument Model:  CHI760E
Header: 
Note: 

Init E (V) = 0
High E (V) = 0
Low E (V) = -0.4
Init P/N = N
Scan Rate (V/s) = 0.003
Segment = 1
Sample Interval (V) = 0.001
Quiet Time (sec) = 2
Sensitivity (A/V) = 1e-7
2nd E (V) = 0
Sens 2 (A/V) = 1e-7

Potential/V, i1/A, i2/A, Time/s

0.000, -4.2305992e-8, -4.7689969e-8, 3.3333334e-1
-0.001, -3.8162632e-8, -4.4244373e-8, 6.6666669e-1
-0.002, -3.4903156e-8, -4.1307459e-8, 1.0000000e+0
-0.003, -3.1989650e-8, -3.8740474e-8, 1.3333334e+0
-0.004, -2.9604156e-8, -3.6507714e-8, 1.6666667e+0
-0.005, -2.7466294e-8, -3.4513082e-8, 2.0000000e+0
-0.006, -2.5597553e-8, -3.2760088e-8, 2.3333333e+0
-0.007, -2.3919647e-8, -3.1177716e-8, 2.6666665e+0
-0.008, -2.2433536e-8, -2.9786905e-8, 2.9999998e+0
-0.009, -2.1077634e-8, -2.8477974e-8, 3.3333330e+0
-0.010, -1.9830606e-8, -2.7206264e-8, 3.6666663e+0
-0.011, -1.8704760e-8, -2.6150952e-8, 3.9999995e+0
-0.012, -1.7725815e-8, -2.5179995e-8, 4.3333330e+0
-0.013, -1.6797356e-8, -2.4317359e-8, 4.6666665e+0
-0.014, -1.5939591e-8, -2.3485555e-8, 5.0000000e+0
-0.015, -1.5118891e-8, -2.2719094e-8, 5.3333335e+0
-0.016, -1.4363295e-8, -2.2028681e-8, 5.6666670e+0
-0.017, -1.3656506e-8, -2.1407683e-8, 6.0000005e+0
-0.018, -1.2978953e-8, -2.0720066e-8, 6.3333340e+0
-0.019, -1.2395820e-8, -2.0173278e-8, 6.6666675e+0
-0.020, -1.1761962e-8, -1.9644785e-8, 7.0000010e+0
-0.021, -1.1239778e-8, -1.9130191e-8, 7.3333344e+0
-0.022, -1.0717195e-8, -1.8697074e-8, 7.6666679e+0
-0.023, -1.0220495e-8, -1.8251017e-8, 8.0000010e+0
-0.024, -9.7130881e-9, -1.7853528e-8, 8.3333340e+0
-0.025, -9.2917150e-9, -1.7525297e-8, 8.6666670e+0
-0.026, -8.8461372e-9, -1.7117422e-8, 9.0000000e+0
-0.027, -8.4724521e-9, -1.6751168e-8, 9.3333330e+0
-0.028, -8.1670661e-9, -1.6515278e-8, 9.6666660e+0
-0.029, -7.7774862e-9, -1.6128652e-8, 9.9999990e+0
-0.030, -7.4645916e-9, -1.5816397e-8, 1.0333332e+1
-0.031, -7.1364390e-9, -1.5608865e-8, 1.0666665e+1
-0.032, -6.8018160e-9, -1.5245885e-8, 1.0999998e+1
-0.033, -6.4813332e-9, -1.5100980e-8, 1.1333331e+1
-0.034, -6.2004704e-9, -1.4767875e-8, 1.1666664e+1
-0.035, -5.8692828e-9, -1.4613864e-8, 1.1999997e+1
-0.036, -5.6923461e-9, -1.4282676e-8, 1.2333330e+1
-0.037, -5.3541287e-9, -1.4143044e-8, 1.2666663e+1
-0.038, -5.1554645e-9, -1.3868333e-8, 1.2999996e+1
-0.039, -4.8760396e-9, -1.3685644e-8, 1.3333329e+1
-0.040, -4.7186735e-9, -1.3551285e-8, 1.3666662e+1
-0.041, -4.4588195e-9, -1.3264431e-8, 1.3999995e+1
-0.042, -4.2669455e-9, -1.3175203e-8, 1.4333328e+1
-0.043, -3.9869614e-9, -1.2984366e-8, 1.4666661e+1
-0.044, -3.8330303e-9, -1.2771644e-8, 1.4999994e+1
-0.045, -3.6913208e-9, -1.2682097e-8, 1.5333327e+1
-0.046, -3.4288314e-9, -1.2524252e-8, 1.5666660e+1
-0.047, -3.3040568e-9, -1.2273344e-8, 1.5999993e+1
-0.048, -3.0799898e-9, -1.2190907e-8, 1.6333326e+1
-0.049, -2.9221445e-9, -1.2041768e-8, 1.6666660e+1
-0.050, -2.7929765e-9, -1.1822974e-8, 1.6999994e+1
-0.051, -2.6503086e-9, -1.1731429e-8, 1.7333328e+1
-0.052, -2.4291973e-9, -1.1688693e-8, 1.7666662e+1
-0.053, -2.2937188e-9, -1.1537479e-8, 1.7999996e+1
-0.054, -2.1395481e-9, -1.1325713e-8, 1.8333330e+1
-0.055, -1.9475934e-9, -1.1231213e-8, 1.8666664e+1
-0.056, -1.8629192e-9, -1.1193909e-8, 1.8999998e+1
-0.057, -1.7633872e-9, -1.1071132e-8, 1.9333332e+1
-0.058, -1.5729504e-9, -1.0889881e-8, 1.9666666e+1
-0.059, -1.4350754e-9, -1.0814633e-8, 2.0000000e+1
-0.060, -1.3535965e-9, -1.0758156e-8, 2.0333334e+1
-0.061, -1.2524668e-9, -1.0710867e-8, 2.0666668e+1
-0.062, -1.0905475e-9, -1.0587611e-8, 2.1000002e+1
-0.063, -9.5187369e-10, -1.0396375e-8, 2.1333336e+1
-0.064, -9.1369051e-10, -1.0289414e-8, 2.1666670e+1
-0.065, -8.6120855e-10, -1.0238929e-8, 2.2000004e+1
-0.066, -6.7604383e-10, -1.0203302e-8, 2.2333338e+1
-0.067, -5.5182847e-10, -1.0074533e-8, 2.2666672e+1
-0.068, -4.9303589e-10, -9.9187654e-9, 2.3000006e+1
-0.069, -4.1786763e-10, -9.8336912e-9, 2.3333340e+1
-0.070, -3.5220524e-10, -9.7811288e-9, 2.3666674e+1
-0.071, -1.8629193e-10, -9.7481383e-9, 2.4000008e+1
-0.072, -7.0464114e-11, -9.7185824e-9, 2.4333342e+1
-0.073, -8.3165150e-12, -9.6168939e-9, 2.4666676e+1
-0.074, 4.4644746e-11, -9.4739061e-9, 2.5000010e+1
-0.075, 8.5943343e-11, -9.3596757e-9, 2.5333344e+1
-0.076, 1.6063231e-10, -9.2917771e-9, 2.5666677e+1
-0.077, 3.2574685e-10, -9.2611820e-9, 2.6000011e+1
-0.078, 4.1808954e-10, -9.2420107e-9, 2.6333345e+1
-0.079, 4.7680226e-10, -9.1892893e-9, 2.6666679e+1
-0.080, 5.2145588e-10, -9.0823287e-9, 2.7000013e+1
-0.081, 5.7633426e-10, -8.9659418e-9, 2.7333347e+1
-0.082, 6.5373917e-10, -8.8942080e-9, 2.7666681e+1
-0.083, 7.4751977e-10, -8.8474774e-9, 2.8000015e+1
-0.084, 8.6023222e-10, -8.8093746e-9, 2.8333349e+1
-0.085, 9.5640929e-10, -8.7770227e-9, 2.8666683e+1
-0.086, 9.8924047e-10, -8.7509813e-9, 2.9000017e+1
-0.087, 1.0210331e-9, -8.7076053e-9, 2.9333351e+1
-0.088, 1.0515477e-9, -8.6161416e-9, 2.9666685e+1
-0.089, 1.0772695e-9, -8.5055065e-9, 3.0000019e+1
-0.090, 1.1581892e-9, -8.4086098e-9, 3.0333353e+1
-0.091, 1.2213752e-9, -8.3420684e-9, 3.0666687e+1
-0.092, 1.3378421e-9, -8.3043652e-9, 3.1000021e+1
-0.093, 1.3926407e-9, -8.2807201e-9, 3.1333355e+1
-0.094, 1.4259511e-9, -8.2635454e-9, 3.1666689e+1
-0.095, 1.4710042e-9, -8.2216074e-9, 3.2000023e+1
-0.096, 1.5058323e-9, -8.1460403e-9, 3.2333355e+1
-0.097, 1.5281192e-9, -8.0456299e-9, 3.2666687e+1
-0.098, 1.5831575e-9, -7.9591986e-9, 3.3000019e+1
-0.099, 1.6243762e-9, -7.9032807e-9, 3.3333351e+1
-0.100, 1.7049764e-9, -7.8682136e-9, 3.3666683e+1
-0.101, 1.8075439e-9, -7.8311482e-9, 3.4000015e+1
-0.102, 1.8603453e-9, -7.8063858e-9, 3.4333347e+1
-0.103, 1.9162623e-9, -7.7907290e-9, 3.4666679e+1
-0.104, 1.9415844e-9, -7.7788265e-9, 3.5000011e+1
-0.105, 1.9645903e-9, -7.7558999e-9, 3.5333344e+1
-0.106, 1.9942263e-9, -7.7192341e-9, 3.5666676e+1
-0.107, 2.0125990e-9, -7.6335223e-9, 3.6000008e+1
-0.108, 2.0375219e-9, -7.5518036e-9, 3.6333340e+1
-0.109, 2.0630839e-9, -7.4718427e-9, 3.6666672e+1
-0.110, 2.1063795e-9, -7.4119315e-9, 3.7000004e+1
-0.111, 2.1614177e-9, -7.3699935e-9, 3.7333336e+1
-0.112, 2.2330711e-9, -7.3359647e-9, 3.7666668e+1
-0.113, 2.2797217e-9, -7.3134379e-9, 3.8000000e+1
-0.114, 2.3541711e-9, -7.2993793e-9, 3.8333332e+1
-0.115, 2.3754994e-9, -7.2914705e-9, 3.8666664e+1
-0.116, 2.3993041e-9, -7.2766930e-9, 3.8999996e+1
-0.117, 2.4374873e-9, -7.2475359e-9, 3.9333328e+1
-0.118, 2.4520257e-9, -7.2059976e-9, 3.9666660e+1
-0.119, 2.4853362e-9, -7.1425723e-9, 3.9999992e+1
-0.120, 2.5155311e-9, -7.0770696e-9, 4.0333324e+1
-0.121, 2.5437294e-9, -7.0179573e-9, 4.0666656e+1
-0.122, 2.5689717e-9, -6.9689898e-9, 4.0999989e+1
-0.123, 2.6137053e-9, -6.9363186e-9, 4.1333321e+1
-0.124, 2.6612346e-9, -6.9109962e-9, 4.1666653e+1
-0.125, 2.7234621e-9, -6.8931825e-9, 4.1999985e+1
-0.126, 2.7459086e-9, -6.8753692e-9, 4.2333317e+1
-0.127, 2.8224350e-9, -6.8562778e-9, 4.2666649e+1
-0.128, 2.8578224e-9, -6.8358279e-9, 4.2999981e+1
-0.129, 2.8729199e-9, -6.8219288e-9, 4.3333313e+1
-0.130, 2.9234848e-9, -6.8025976e-9, 4.3666645e+1
-0.131, 2.9459313e-9, -6.7803110e-9, 4.3999977e+1
-0.132, 2.9648632e-9, -6.7440444e-9, 4.4333309e+1
-0.133, 2.9845939e-9, -6.7017081e-9, 4.4666641e+1
-0.134, 2.9944993e-9, -6.6383614e-9, 4.4999973e+1
-0.135, 2.9977743e-9, -6.5735781e-9, 4.5333305e+1
-0.136, 3.0123126e-9, -6.5182202e-9, 4.5666637e+1
-0.137, 3.0166263e-9, -6.4575905e-9, 4.5999969e+1
-0.138, 3.0372356e-9, -6.4244396e-9, 4.6333302e+1
-0.139, 3.0548095e-9, -6.3914487e-9, 4.6666634e+1
-0.140, 3.0965075e-9, -6.3656471e-9, 4.6999966e+1
-0.141, 3.1410012e-9, -6.3463959e-9, 4.7333298e+1
-0.142, 3.1691996e-9, -6.3307390e-9, 4.7666630e+1
-0.143, 3.2371783e-9, -6.3215526e-9, 4.7999962e+1
-0.144, 3.2804739e-9, -6.3146830e-9, 4.8333294e+1
-0.145, 3.3078735e-9, -6.3050973e-9, 4.8666626e+1
-0.146, 3.3485328e-9, -6.2911982e-9, 4.8999958e+1
-0.147, 3.3665859e-9, -6.2662751e-9, 4.9333290e+1
-0.148, 3.3847989e-9, -6.2320060e-9, 4.9666622e+1
-0.149, 3.4030117e-9, -6.1796839e-9, 4.9999954e+1
-0.150, 3.4180294e-9, -6.1303971e-9, 5.0333286e+1
-0.151, 3.4364023e-9, -6.0729621e-9, 5.0666618e+1
-0.152, 3.4574907e-9, -6.0387730e-9, 5.0999950e+1
-0.153, 3.4729877e-9, -5.9969154e-9, 5.1333282e+1
-0.154, 3.4824938e-9, -5.9662408e-9, 5.1666615e+1
-0.155, 3.4967125e-9, -5.9405192e-9, 5.1999947e+1
-0.156, 3.5142065e-9, -5.9187917e-9, 5.2333279e+1
-0.157, 3.5322596e-9, -5.9016969e-9, 5.2666611e+1
-0.158, 3.5575818e-9, -5.8858007e-9, 5.2999943e+1
-0.159, 3.6097445e-9, -5.8740581e-9, 5.3333275e+1
-0.160, 3.6374632e-9, -5.8554455e-9, 5.3666607e+1
-0.161, 3.6718124e-9, -5.8453806e-9, 5.3999939e+1
-0.162, 3.7473797e-9, -5.8364340e-9, 5.4333271e+1
-0.163, 3.7591223e-9, -5.8303629e-9, 5.4666603e+1
-0.164, 3.7964272e-9, -5.8249312e-9, 5.4999935e+1
-0.165, 3.8598529e-9, -5.8174225e-9, 5.5333267e+1
-0.166, 3.8594532e-9, -5.8061591e-9, 5.5666599e+1
-0.167, 3.8759889e-9, -5.7913008e-9, 5.5999931e+1
-0.168, 3.9027492e-9, -5.7727689e-9, 5.6333263e+1
-0.169, 3.9082604e-9, -5.7349050e-9, 5.6666595e+1
-0.170, 3.9302277e-9, -5.7064673e-9, 5.6999928e+1
-0.171, 3.9474823e-9, -5.6724376e-9, 5.7333260e+1
-0.172, 3.9614614e-9, -5.6273048e-9, 5.7666592e+1
-0.173, 3.9744026e-9, -5.5836096e-9, 5.7999924e+1
-0.174, 3.9809525e-9, -5.5396749e-9, 5.8333256e+1
-0.175, 4.0107482e-9, -5.5107585e-9, 5.8666588e+1
-0.176, 4.0111474e-9, -5.4849565e-9, 5.8999920e+1
-0.177, 4.0423811e-9, -5.4593943e-9, 5.9333252e+1
-0.178, 4.0818429e-9, -5.4310365e-9, 5.9666584e+1
-0.179, 4.1248986e-9, -5.4134626e-9, 5.9999916e+1
-0.180, 4.1677146e-9, -5.3986051e-9, 6.0333248e+1
-0.181, 4.2490340e-9, -5.3846256e-9, 6.0666580e+1
-0.182, 4.2713211e-9, -5.3700075e-9, 6.0999912e+1
-0.183, 4.3071875e-9, -5.3606617e-9, 6.1333244e+1
-0.184, 4.3457704e-9, -5.3519544e-9, 6.1666576e+1
-0.185, 4.3603086e-9, -5.3450844e-9, 6.1999908e+1
-0.186, 4.3915422e-9, -5.3405311e-9, 6.2333241e+1
-0.187, 4.4056012e-9, -5.3376557e-9, 6.2666573e+1
-0.188, 4.4368349e-9, -5.3341407e-9, 6.2999905e+1
-0.189, 4.4553672e-9, -5.3286286e-9, 6.3333237e+1
-0.190, 4.4750976e-9, -5.3230371e-9, 6.3666569e+1
-0.191, 4.5081685e-9, -5.3152087e-9, 6.3999901e+1
-0.192, 4.5268611e-9, -5.3029869e-9, 6.4333237e+1
-0.193, 4.5648845e-9, -5.2918034e-9, 6.4666573e+1
-0.194, 4.6456443e-9, -5.2749489e-9, 6.4999908e+1
-0.195, 4.6795141e-9, -5.2543396e-9, 6.5333244e+1
-0.196, 4.7391056e-9, -5.2393219e-9, 6.5666580e+1
-0.197, 4.8118771e-9, -5.2024967e-9, 6.5999916e+1
-0.198, 4.8313682e-9, -5.1809286e-9, 6.6333252e+1
-0.199, 4.8715485e-9, -5.1586415e-9, 6.6666588e+1
-0.200, 4.9023825e-9, -5.1353961e-9, 6.6999924e+1
-0.201, 4.9231517e-9, -5.1067985e-9, 6.7333260e+1
-0.202, 4.9469566e-9, -5.0817159e-9, 6.7666595e+1
-0.203, 4.9594178e-9, -5.0679767e-9, 6.7999931e+1
-0.204, 4.9784297e-9, -5.0458495e-9, 6.8333267e+1
-0.205, 4.9773115e-9, -5.0275566e-9, 6.8666603e+1
-0.206, 5.0282756e-9, -5.0120597e-9, 6.8999939e+1
-0.207, 5.1341180e-9, -4.9980002e-9, 6.9333275e+1
-0.208, 5.1980233e-9, -4.9897726e-9, 6.9666611e+1
-0.209, 5.2608895e-9, -4.9816249e-9, 6.9999947e+1
-0.210, 5.3273506e-9, -4.9754738e-9, 7.0333282e+1
-0.211, 5.3509961e-9, -4.9675659e-9, 7.0666618e+1
-0.212, 5.3906168e-9, -4.9635718e-9, 7.0999954e+1
-0.213, 5.4369482e-9, -4.9582995e-9, 7.1333290e+1
-0.214, 5.4544418e-9, -4.9530273e-9, 7.1666626e+1
-0.215, 5.4992553e-9, -4.9532671e-9, 7.1999962e+1
-0.216, 5.5907989e-9, -4.9485540e-9, 7.2333298e+1
-0.217, 5.6769109e-9, -4.9453588e-9, 7.2666634e+1
-0.218, 5.7699729e-9, -4.9448796e-9, 7.2999969e+1
-0.219, 5.8305227e-9, -4.9436810e-9, 7.3333305e+1
-0.220, 5.8814074e-9, -4.9432818e-9, 7.3666641e+1
-0.221, 5.9135994e-9, -4.9432818e-9, 7.3999977e+1
-0.222, 5.9456315e-9, -4.9423234e-9, 7.4333313e+1
-0.223, 6.0042646e-9, -4.9463975e-9, 7.4666649e+1
-0.224, 6.0979648e-9, -4.9471165e-9, 7.4999985e+1
-0.225, 6.2031686e-9, -4.9518292e-9, 7.5333321e+1
-0.226, 6.3209140e-9, -4.9567017e-9, 7.5666656e+1
-0.227, 6.3708394e-9, -4.9605364e-9, 7.5999992e+1
-0.228, 6.4334662e-9, -4.9620539e-9, 7.6333328e+1
-0.229, 6.5265282e-9, -4.9711604e-9, 7.6666664e+1
-0.230, 6.6115216e-9, -4.9806661e-9, 7.7000000e+1
-0.231, 6.7842247e-9, -4.9943263e-9, 7.7333336e+1
-0.232, 6.8802426e-9, -5.0115005e-9, 7.7666672e+1
-0.233, 6.9131532e-9, -5.0260387e-9, 7.8000008e+1
-0.234, 6.9425496e-9, -5.0547162e-9, 7.8333344e+1
-0.235, 7.0487118e-9, -5.0845119e-9, 7.8666679e+1
-0.236, 7.2320390e-9, -5.1172635e-9, 7.9000015e+1
-0.237, 7.3218258e-9, -5.1627156e-9, 7.9333351e+1
-0.238, 7.3714315e-9, -5.2010587e-9, 7.9666687e+1
-0.239, 7.4480377e-9, -5.2386828e-9, 8.0000023e+1
-0.240, 7.6093185e-9, -5.2797415e-9, 8.0333359e+1
-0.241, 7.7571780e-9, -5.3024278e-9, 8.0666695e+1
-0.242, 7.8510389e-9, -5.3208007e-9, 8.1000031e+1
-0.243, 7.9055980e-9, -5.3318239e-9, 8.1333366e+1
-0.244, 7.9989793e-9, -5.3392530e-9, 8.1666702e+1
-0.245, 8.2102654e-9, -5.3486793e-9, 8.2000038e+1
-0.246, 8.3173060e-9, -5.3642562e-9, 8.2333374e+1
-0.247, 8.4113259e-9, -5.3863030e-9, 8.2666710e+1
-0.248, 8.5683727e-9, -5.4184954e-9, 8.3000046e+1
-0.249, 8.7416341e-9, -5.4562794e-9, 8.3333382e+1
-0.250, 8.8418064e-9, -5.5096399e-9, 8.3666718e+1
-0.251, 8.8888559e-9, -5.5997460e-9, 8.4000053e+1
-0.252, 9.0463024e-9, -5.6745146e-9, 8.4333389e+1
-0.253, 9.2070227e-9, -5.7470468e-9, 8.4666725e+1
-0.254, 9.3027204e-9, -5.7936975e-9, 8.5000061e+1
-0.255, 9.3972998e-9, -5.8178218e-9, 8.5333397e+1
-0.256, 9.5476365e-9, -5.8305227e-9, 8.5666733e+1
-0.257, 9.6938191e-9, -5.8470579e-9, 8.6000069e+1
-0.258, 9.8187538e-9, -5.8703837e-9, 8.6333405e+1
-0.259, 9.8726733e-9, -5.9044130e-9, 8.6666740e+1
-0.260, 9.9929744e-9, -5.9360459e-9, 8.7000076e+1
-0.261, 1.0178298e-8, -5.9853327e-9, 8.7333412e+1
-0.262, 1.0282863e-8, -6.0516339e-9, 8.7666748e+1
-0.263, 1.0373049e-8, -6.1472516e-9, 8.8000084e+1
-0.264, 1.0493590e-8, -6.2353607e-9, 8.8333420e+1
-0.265, 1.0661980e-8, -6.2857657e-9, 8.8666756e+1
-0.266, 1.0773974e-8, -6.3100494e-9, 8.9000092e+1
-0.267, 1.0825897e-8, -6.3218719e-9, 8.9333427e+1
-0.268, 1.0862482e-8, -6.3415229e-9, 8.9666763e+1
-0.269, 1.0986377e-8, -6.3709988e-9, 9.0000099e+1
-0.270, 1.1109635e-8, -6.4130163e-9, 9.0333435e+1
-0.271, 1.1224184e-8, -6.4720491e-9, 9.0666771e+1
-0.272, 1.1287689e-8, -6.5470576e-9, 9.1000107e+1
-0.273, 1.1331305e-8, -6.6318915e-9, 9.1333443e+1
-0.274, 1.1454641e-8, -6.7005894e-9, 9.1666779e+1
-0.275, 1.1584448e-8, -6.7632162e-9, 9.2000114e+1
-0.276, 1.1694844e-8, -6.7942896e-9, 9.2333450e+1
-0.277, 1.1754834e-8, -6.8164967e-9, 9.2666786e+1
-0.278, 1.1786549e-8, -6.8352692e-9, 9.3000122e+1
-0.279, 1.1829364e-8, -6.8553994e-9, 9.3333458e+1
-0.280, 1.1888716e-8, -6.8752892e-9, 9.3666794e+1
-0.281, 1.1973150e-8, -6.8935022e-9, 9.4000130e+1
-0.282, 1.2108310e-8, -6.9141119e-9, 9.4333466e+1
-0.283, 1.2180522e-8, -6.9300077e-9, 9.4666801e+1
-0.284, 1.2236919e-8, -6.9566886e-9, 9.5000137e+1
-0.285, 1.2282929e-8, -6.9867241e-9, 9.5333473e+1
-0.286, 1.2326785e-8, -7.0336941e-9, 9.5666809e+1
-0.287, 1.2395403e-8, -7.0746728e-9, 9.6000145e+1
-0.288, 1.2469133e-8, -7.1229214e-9, 9.6333481e+1
-0.289, 1.2561156e-8, -7.1762822e-9, 9.6666817e+1
-0.290, 1.2656215e-8, -7.2135866e-9, 9.7000153e+1
-0.291, 1.2698072e-8, -7.2426634e-9, 9.7333488e+1
-0.292, 1.2733141e-8, -7.2645507e-9, 9.7666824e+1
-0.293, 1.2772522e-8, -7.2741368e-9, 9.8000160e+1
-0.294, 1.2789138e-8, -7.2846809e-9, 9.8333496e+1
-0.295, 1.2815498e-8, -7.2911508e-9, 9.8666832e+1
-0.296, 1.2851684e-8, -7.2958644e-9, 9.9000168e+1
-0.297, 1.2906483e-8, -7.2993793e-9, 9.9333504e+1
-0.298, 1.2992035e-8, -7.3040121e-9, 9.9666840e+1
-0.299, 1.3060094e-8, -7.3095241e-9, 1.0000018e+2
-0.300, 1.3122802e-8, -7.3164741e-9, 1.0033351e+2
-0.301, 1.3168174e-8, -7.3247812e-9, 1.0066685e+2
-0.302, 1.3196131e-8, -7.3322104e-9, 1.0100018e+2
-0.303, 1.3229843e-8, -7.3433140e-9, 1.0133352e+2
-0.304, 1.3257481e-8, -7.3551356e-9, 1.0166685e+2
-0.305, 1.3272019e-8, -7.3665589e-9, 1.0200019e+2
-0.306, 1.3308606e-8, -7.3789406e-9, 1.0233353e+2
-0.307, 1.3331531e-8, -7.3962747e-9, 1.0266686e+2
-0.308, 1.3373070e-8, -7.4091360e-9, 1.0300020e+2
-0.309, 1.3437453e-8, -7.4184023e-9, 1.0333353e+2
-0.310, 1.3503994e-8, -7.4398900e-9, 1.0366687e+2
-0.311, 1.3538903e-8, -7.4603390e-9, 1.0400021e+2
-0.312, 1.3602409e-8, -7.4732807e-9, 1.0433354e+2
-0.313, 1.3644666e-8, -7.4905353e-9, 1.0466688e+2
-0.314, 1.3681251e-8, -7.5118631e-9, 1.0500021e+2
-0.315, 1.3703378e-8, -7.5219280e-9, 1.0533355e+2
-0.316, 1.3741562e-8, -7.5449345e-9, 1.0566689e+2
-0.317, 1.3755860e-8, -7.5658626e-9, 1.0600022e+2
-0.318, 1.3775670e-8, -7.5837558e-9, 1.0633356e+2
-0.319, 1.3794044e-8, -7.5898274e-9, 1.0666689e+2
-0.320, 1.3820164e-8, -7.6224183e-9, 1.0700023e+2
-0.321, 1.3854353e-8, -7.6407112e-9, 1.0733356e+2
-0.322, 1.3949812e-8, -7.6545303e-9, 1.0766690e+2
-0.323, 1.3970661e-8, -7.6787350e-9, 1.0800024e+2
-0.324, 1.4026737e-8, -7.6813711e-9, 1.0833357e+2
-0.325, 1.4113489e-8, -7.7030187e-9, 1.0866691e+2
-0.326, 1.4120038e-8, -7.7094091e-9, 1.0900024e+2
-0.327, 1.4163653e-8, -7.7165190e-9, 1.0933358e+2
-0.328, 1.4196565e-8, -7.7190752e-9, 1.0966692e+2
-0.329, 1.4211503e-8, -7.7304980e-9, 1.1000025e+2
-0.330, 1.4233629e-8, -7.7359301e-9, 1.1033359e+2
-0.331, 1.4266940e-8, -7.7395246e-9, 1.1066692e+2
-0.332, 1.4286910e-8, -7.7461548e-9, 1.1100026e+2
-0.333, 1.4317505e-8, -7.7484712e-9, 1.1133360e+2
-0.334, 1.4342349e-8, -7.7548616e-9, 1.1166693e+2
-0.335, 1.4393312e-8, -7.7586968e-9, 1.1200027e+2
-0.336, 1.4438285e-8, -7.7621314e-9, 1.1233360e+2
-0.337, 1.4468560e-8, -7.7641280e-9, 1.1266694e+2
-0.338, 1.4567614e-8, -7.7694002e-9, 1.1300027e+2
-0.339, 1.4564578e-8, -7.7668441e-9, 1.1333361e+2
-0.340, 1.4620414e-8, -7.7714768e-9, 1.1366695e+2
-0.341, 1.4669462e-8, -7.7725959e-9, 1.1400028e+2
-0.342, 1.4697340e-8, -7.7761095e-9, 1.1433362e+2
-0.343, 1.4716990e-8, -7.7777882e-9, 1.1466695e+2
-0.344, 1.4741035e-8, -7.7786666e-9, 1.1500029e+2
-0.345, 1.4750381e-8, -7.7800246e-9, 1.1533363e+2
-0.346, 1.4760447e-8, -7.7807432e-9, 1.1566696e+2
-0.347, 1.4775384e-8, -7.7822611e-9, 1.1600030e+2
-0.348, 1.4799349e-8, -7.7840188e-9, 1.1633363e+2
-0.349, 1.4834577e-8, -7.7845774e-9, 1.1666697e+2
-0.350, 1.4877312e-8, -7.7862552e-9, 1.1700031e+2
-0.351, 1.4964463e-8, -7.7861753e-9, 1.1733364e+2
-0.352, 1.5034919e-8, -7.7875333e-9, 1.1766698e+2
-0.353, 1.5075738e-8, -7.7892910e-9, 1.1800031e+2
-0.354, 1.5116557e-8, -7.7892910e-9, 1.1833365e+2
-0.355, 1.5130937e-8, -7.7907290e-9, 1.1866698e+2
-0.356, 1.5153942e-8, -7.7917663e-9, 1.1900032e+2
-0.357, 1.5185496e-8, -7.7930453e-9, 1.1933366e+2
-0.358, 1.5200431e-8, -7.7955216e-9, 1.1966699e+2
-0.359, 1.5223199e-8, -7.7951228e-9, 1.2000033e+2
-0.360, 1.5237497e-8, -7.7993558e-9, 1.2033366e+2
-0.361, 1.5262181e-8, -7.7992759e-9, 1.2066700e+2
-0.362, 1.5295331e-8, -7.8017521e-9, 1.2100034e+2
-0.363, 1.5338308e-8, -7.8038287e-9, 1.2133367e+2
-0.364, 1.5375612e-8, -7.8045481e-9, 1.2166701e+2
-0.365, 1.5437280e-8, -7.8045481e-9, 1.2200034e+2
-0.366, 1.5495354e-8, -7.8091809e-9, 1.2233368e+2
-0.367, 1.5550631e-8, -7.8116571e-9, 1.2266702e+2
-0.368, 1.5604790e-8, -7.8146130e-9, 1.2300035e+2
-0.369, 1.5623323e-8, -7.8179685e-9, 1.2333369e+2
-0.370, 1.5665821e-8, -7.8209235e-9, 1.2366702e+2
-0.371, 1.5681078e-8, -7.8214821e-9, 1.2400036e+2
-0.372, 1.5699451e-8, -7.8224414e-9, 1.2433369e+2
-0.373, 1.5728846e-8, -7.8282731e-9, 1.2466703e+2
-0.374, 1.5735157e-8, -7.8334654e-9, 1.2500037e+2
-0.375, 1.5764794e-8, -7.8329059e-9, 1.2533370e+2
-0.376, 1.5796825e-8, -7.8369800e-9, 1.2566704e+2
-0.377, 1.5835647e-8, -7.8421722e-9, 1.2600037e+2
-0.378, 1.5913052e-8, -7.8405744e-9, 1.2633371e+2
-0.379, 1.5984227e-8, -7.8450482e-9, 1.2666705e+2
-0.380, 1.6034553e-8, -7.8494420e-9, 1.2700038e+2
-0.381, 1.6084558e-8, -7.8564701e-9, 1.2733372e+2
-0.382, 1.6115791e-8, -7.8572695e-9, 1.2766705e+2
-0.383, 1.6145107e-8, -7.8586275e-9, 1.2800038e+2
-0.384, 1.6170910e-8, -7.8637399e-9, 1.2833371e+2
-0.385, 1.6190242e-8, -7.8676541e-9, 1.2866704e+2
-0.386, 1.6226346e-8, -7.8741245e-9, 1.2900037e+2
-0.387, 1.6239689e-8, -7.8746041e-9, 1.2933369e+2
-0.388, 1.6273717e-8, -7.8805948e-9, 1.2966702e+2
-0.389, 1.6332828e-8, -7.8827513e-9, 1.3000035e+2
-0.390, 1.6373008e-8, -7.8854674e-9, 1.3033368e+2
-0.391, 1.6441309e-8, -7.8905797e-9, 1.3066701e+2
-0.392, 1.6515038e-8, -7.9007245e-9, 1.3100034e+2
-0.393, 1.6569357e-8, -7.9026421e-9, 1.3133366e+2
-0.394, 1.6619442e-8, -7.9076745e-9, 1.3166699e+2
-0.395, 1.6647162e-8, -7.9175804e-9, 1.3200032e+2
-0.396, 1.6672804e-8, -7.9216544e-9, 1.3233365e+2
-0.397, 1.6692534e-8, -7.9313995e-9, 1.3266698e+2
-0.398, 1.6709230e-8, -7.9422628e-9, 1.3300031e+2
-0.399, 1.6748849e-8, -7.9454585e-9, 1.3333363e+2
