Jan. 28, 2006   01:28:14
Square Wave Voltammetry
File: z:\users\scottsaunders\git\labwork\ida\01_17_19_psoralen_nonequil_2\data\control\2\75um_control_transfer_2_swv_12.txt
Data Source:  Experiment
Instrument Model:  CHI760E
Header: 
Note: 

Init E (V) = 0.1
Final E (V) = -0.5
Incr E (V) = 0.001
Amplitude (V) = 0.025
Frequency (Hz) = 300
Quiet Time (sec) = 2
Sensitivity (A/V) = 1e-6
Sens 2 (A/V) = 1e-6

Potential/V, i1/A, i2/A

0.099, 1.0336435e-7, 8.1612981e-8
0.098, 1.5036315e-7, 1.1494090e-7
0.097, 1.5004980e-7, 1.1772784e-7
0.096, 1.3553790e-7, 8.7351779e-8
0.095, 1.5943309e-7, 9.3436888e-8
0.094, 1.3232221e-7, 1.0784985e-7
0.093, 1.5313358e-7, 1.1462757e-7
0.092, 1.3200888e-7, 9.5135441e-8
0.091, 1.3588421e-7, 1.0100617e-7
0.090, 1.5011578e-7, 1.2991454e-7
0.089, 1.2262561e-7, 1.1375356e-7
0.088, 1.5219362e-7, 1.0707478e-7
0.087, 1.1611175e-7, 9.3585307e-8
0.086, 1.5079189e-7, 1.0064337e-7
0.085, 1.3468038e-7, 1.1157677e-7
0.084, 1.3181099e-7, 8.1695440e-8
0.083, 1.4365138e-7, 1.1532018e-7
0.082, 1.1010908e-7, 1.0499694e-7
0.081, 1.5529388e-7, 1.1167572e-7
0.080, 1.2694619e-7, 9.3222511e-8
0.079, 1.3339408e-7, 1.0051144e-7
0.078, 1.4546536e-7, 1.3187694e-7
0.077, 1.3375690e-7, 9.0633449e-8
0.076, 1.5366130e-7, 1.0756951e-7
0.075, 1.0857544e-7, 9.0287145e-8
0.074, 1.4393171e-7, 1.2084460e-7
0.073, 1.3852274e-7, 1.0214404e-7
0.072, 1.3055768e-7, 9.3057594e-8
0.071, 1.4876353e-7, 1.2622061e-7
0.070, 1.1426476e-7, 1.0832808e-7
0.069, 1.4787302e-7, 1.2989805e-7
0.068, 1.2430768e-7, 7.6962579e-8
0.067, 1.4084794e-7, 1.1261569e-7
0.066, 1.4751024e-7, 1.1904710e-7
0.065, 1.2237824e-7, 1.0003320e-7
0.064, 1.3909992e-7, 1.0194614e-7
0.063, 1.1340725e-7, 8.2454015e-8
0.062, 1.3741786e-7, 1.2701216e-7
0.061, 1.3017839e-7, 7.2938818e-8
0.060, 1.1893167e-7, 9.0781867e-8
0.059, 1.4813688e-7, 1.1179115e-7
0.058, 1.1881623e-7, 9.9917770e-8
0.057, 1.3867115e-7, 1.0265524e-7
0.056, 1.1726610e-7, 7.5560855e-8
0.055, 1.3416917e-7, 1.0926806e-7
0.054, 1.4305770e-7, 1.1932745e-7
0.053, 1.2829844e-7, 1.0282015e-7
0.052, 1.4097986e-7, 1.0722320e-7
0.051, 1.0601937e-7, 1.0545868e-7
0.050, 1.5230906e-7, 1.1879975e-7
0.049, 1.2026742e-7, 1.2165265e-7
0.048, 1.2696269e-7, 9.2859707e-8
0.047, 1.4497064e-7, 1.2219685e-7
0.046, 1.1812362e-7, 8.5026578e-8
0.045, 1.4663621e-7, 1.1489142e-7
0.044, 1.0794879e-7, 8.7813525e-8
0.043, 1.3529055e-7, 1.1002663e-7
0.042, 1.3660981e-7, 1.1942639e-7
0.041, 1.2153721e-7, 8.9924342e-8
0.040, 1.3228922e-7, 1.2410977e-7
0.039, 9.6916452e-8, 9.6636100e-8
0.038, 1.4452540e-7, 1.2056425e-7
0.037, 1.0946594e-7, 9.9060252e-8
0.036, 1.2574237e-7, 8.9578037e-8
0.035, 1.3115135e-7, 1.2048181e-7
0.034, 1.0092371e-7, 1.0446924e-7
0.033, 1.3675822e-7, 1.3172853e-7
0.032, 1.1342374e-7, 9.6850478e-8
0.031, 1.3377338e-7, 1.1091714e-7
0.030, 1.2582483e-7, 1.1774432e-7
0.029, 1.2082810e-7, 1.0392503e-7
0.028, 1.3298182e-7, 1.0699232e-7
0.027, 1.1639209e-7, 9.7378184e-8
0.026, 1.3731892e-7, 1.1545211e-7
0.025, 1.1052136e-7, 1.0321594e-7
0.024, 1.2265859e-7, 1.0112160e-7
0.023, 1.3090398e-7, 1.3121732e-7
0.022, 1.1652401e-7, 9.1457991e-8
0.021, 1.4820284e-7, 9.7361706e-8
0.020, 1.0011566e-7, 9.5432270e-8
0.019, 1.3672525e-7, 1.0582148e-7
0.018, 1.3311376e-7, 1.0687689e-7
0.017, 1.2142178e-7, 9.3519340e-8
0.016, 1.3599964e-7, 1.1057083e-7
0.015, 1.0491448e-7, 9.6091910e-8
0.014, 1.4541590e-7, 1.0827860e-7
0.013, 1.0832808e-7, 7.9106371e-8
0.012, 1.2356558e-7, 1.0367768e-7
0.011, 1.2968367e-7, 9.4162480e-8
0.010, 1.1477599e-7, 7.1025880e-8
0.009, 1.3669226e-7, 9.9406549e-8
0.008, 9.9225161e-8, 6.9789081e-8
0.007, 1.3011243e-7, 1.2353260e-7
0.006, 1.2222982e-7, 1.0024759e-7
0.005, 1.2102601e-7, 8.7928960e-8
0.004, 1.3560387e-7, 1.2282349e-7
0.003, 1.1414933e-7, 8.3064172e-8
0.002, 1.4376681e-7, 1.2061373e-7
0.001, 1.1269815e-7, 6.7892636e-8
-0.000, 1.2549501e-7, 1.2320278e-7
-0.001, 1.3397128e-7, 1.1220342e-7
-0.002, 1.1332479e-7, 9.2117631e-8
-0.003, 1.3205835e-7, 1.1335779e-7
-0.004, 1.0979576e-7, 9.1441507e-8
-0.005, 1.2938683e-7, 1.2617113e-7
-0.006, 1.1530369e-7, 9.6669083e-8
-0.007, 1.2005304e-7, 9.3601798e-8
-0.008, 1.3705505e-7, 1.1530369e-7
-0.009, 1.0564008e-7, 9.1705360e-8
-0.010, 1.3985850e-7, 1.1190659e-7
-0.011, 9.4228440e-8, 7.3895286e-8
-0.012, 1.2648445e-7, 9.3156537e-8
-0.013, 1.2457153e-7, 1.1231885e-7
-0.014, 1.1391846e-7, 9.6883468e-8
-0.015, 1.3614806e-7, 9.7444151e-8
-0.016, 9.4030554e-8, 7.3334597e-8
-0.017, 1.4422855e-7, 1.3017839e-7
-0.018, 1.0799827e-7, 9.7081355e-8
-0.019, 1.1929447e-7, 9.9752860e-8
-0.020, 1.3519160e-7, 1.0371065e-7
-0.021, 1.0778388e-7, 1.0465063e-7
-0.022, 1.3774768e-7, 1.1395144e-7
-0.023, 9.5630170e-8, 8.6972491e-8
-0.024, 1.3181099e-7, 1.1660646e-7
-0.025, 1.2528062e-7, 1.3118434e-7
-0.026, 1.2028391e-7, 9.7196796e-8
-0.027, 1.2961770e-7, 1.0267174e-7
-0.028, 1.0878983e-7, 9.5382802e-8
-0.029, 1.3534002e-7, 1.1408338e-7
-0.030, 1.0646462e-7, 1.0608534e-7
-0.031, 1.1883272e-7, 9.6636100e-8
-0.032, 1.2585780e-7, 1.2204843e-7
-0.033, 9.9060244e-8, 1.1634262e-7
-0.034, 1.3049171e-7, 1.0958138e-7
-0.035, 9.9456031e-8, 8.9990309e-8
-0.036, 1.2800160e-7, 1.1118100e-7
-0.037, 1.1916254e-7, 1.2049830e-7
-0.038, 1.1042241e-7, 8.5092537e-8
-0.039, 1.3002997e-7, 1.1973971e-7
-0.040, 9.7493626e-8, 8.8901913e-8
-0.041, 1.2872721e-7, 1.0613480e-7
-0.042, 1.0669550e-7, 9.4475801e-8
-0.043, 1.1253323e-7, 1.1622718e-7
-0.044, 1.2755636e-7, 1.0460116e-7
-0.045, 1.0923507e-7, 9.2958658e-8
-0.046, 1.3337761e-7, 1.0715723e-7
-0.047, 9.0501523e-8, 9.9274629e-8
-0.048, 1.1807414e-7, 1.1217044e-7
-0.049, 1.2166915e-7, 1.1921202e-7
-0.050, 1.0892175e-7, 9.6553649e-8
-0.051, 1.2909000e-7, 1.3151416e-7
-0.052, 1.0504641e-7, 1.0974629e-7
-0.053, 1.3252009e-7, 1.3194291e-7
-0.054, 1.0511238e-7, 7.8892000e-8
-0.055, 1.2143828e-7, 1.0502993e-7
-0.056, 1.2945280e-7, 1.2704514e-7
-0.057, 1.0559062e-7, 1.0697583e-7
-0.058, 1.2717706e-7, 1.1846993e-7
-0.059, 9.5135434e-8, 9.2793748e-8
-0.060, 1.2056425e-7, 1.3228922e-7
-0.061, 1.0959788e-7, 1.1838748e-7
-0.062, 1.0405697e-7, 9.8087291e-8
-0.063, 1.3207483e-7, 1.0156685e-7
-0.064, 1.0061039e-7, 1.0367768e-7
-0.065, 1.2565992e-7, 1.2138879e-7
-0.066, 9.4442825e-8, 9.8384135e-8
-0.067, 1.2267508e-7, 1.0976278e-7
-0.068, 1.2295543e-7, 1.2755636e-7
-0.069, 9.8944824e-8, 1.1952534e-7
-0.070, 1.2559394e-7, 1.2697917e-7
-0.071, 9.6570140e-8, 1.1533668e-7
-0.072, 1.2983209e-7, 1.3721997e-7
-0.073, 1.0709127e-7, 1.1903061e-7
-0.074, 1.1807415e-7, 1.0572253e-7
-0.075, 1.3029383e-7, 1.3337761e-7
-0.076, 1.0334786e-7, 1.0874036e-7
-0.077, 1.3491126e-7, 1.1779380e-7
-0.078, 9.1392025e-8, 1.1149432e-7
-0.079, 1.2669884e-7, 1.2498380e-7
-0.080, 1.2079512e-7, 1.1936042e-7
-0.081, 1.1114801e-7, 1.1696926e-7
-0.082, 1.2419223e-7, 1.2928790e-7
-0.083, 8.3888708e-8, 1.2692971e-7
-0.084, 1.3382287e-7, 1.3726942e-7
-0.085, 9.5943491e-8, 1.3210781e-7
-0.086, 1.0268823e-7, 1.1043890e-7
-0.087, 1.2430766e-7, 1.4248053e-7
-0.088, 9.7114338e-8, 1.2871071e-7
-0.089, 1.2447258e-7, 1.3166257e-7
-0.090, 9.6388746e-8, 1.2420873e-7
-0.091, 1.2481888e-7, 1.3088750e-7
-0.092, 1.1464406e-7, 1.4566326e-7
-0.093, 1.1022453e-7, 1.1842045e-7
-0.094, 1.1866781e-7, 1.1348970e-7
-0.095, 1.0041249e-7, 1.2976612e-7
-0.096, 1.2170213e-7, 1.5639877e-7
-0.097, 9.7592569e-8, 1.2328525e-7
-0.098, 1.0131949e-7, 1.3222325e-7
-0.099, 1.2457151e-7, 1.6835460e-7
-0.100, 1.0758599e-7, 1.3646138e-7
-0.101, 1.3370743e-7, 1.4325559e-7
-0.102, 8.8984379e-8, 1.4790601e-7
-0.103, 1.2813354e-7, 1.4320612e-7
-0.104, 1.1917903e-7, 1.5024769e-7
-0.105, 1.1093363e-7, 1.2528062e-7
-0.106, 1.2330173e-7, 1.5695946e-7
-0.107, 9.0171710e-8, 1.2150423e-7
-0.108, 1.2775425e-7, 1.5004983e-7
-0.109, 9.7147314e-8, 1.2810055e-7
-0.110, 1.1258270e-7, 1.4389875e-7
-0.111, 1.2585781e-7, 1.6680448e-7
-0.112, 1.0412292e-7, 1.3034331e-7
-0.113, 1.2857879e-7, 1.5760260e-7
-0.114, 8.9231733e-8, 1.3067311e-7
-0.115, 1.2277403e-7, 1.7077875e-7
-0.116, 1.1139537e-7, 1.5798189e-7
-0.117, 1.0662953e-7, 1.4117776e-7
-0.118, 1.2437363e-7, 1.8189355e-7
-0.119, 9.9159195e-8, 1.5857557e-7
-0.120, 1.2633603e-7, 1.6210458e-7
-0.121, 1.0527728e-7, 1.3834135e-7
-0.122, 1.2313681e-7, 1.6624378e-7
-0.123, 1.2729251e-7, 1.8468050e-7
-0.124, 1.0465063e-7, 1.6113162e-7
-0.125, 1.2528062e-7, 1.6546871e-7
-0.126, 1.0016513e-7, 1.4063356e-7
-0.127, 1.2470345e-7, 1.9694966e-7
-0.128, 1.1555106e-7, 1.5648121e-7
-0.129, 1.0841053e-7, 1.6578204e-7
-0.130, 1.2932088e-7, 1.7427480e-7
-0.131, 9.9554974e-8, 1.7460461e-7
-0.132, 1.3035979e-7, 1.6632623e-7
-0.133, 9.5679638e-8, 1.6101620e-7
-0.134, 1.1508931e-7, 1.8959476e-7
-0.135, 1.1720013e-7, 2.1842067e-7
-0.136, 1.0430433e-7, 1.6695287e-7
-0.137, 1.3064013e-7, 1.8192652e-7
-0.138, 9.0649941e-8, 1.8133287e-7
-0.139, 1.3766521e-7, 2.1159349e-7
-0.140, 1.0783336e-7, 1.7661648e-7
-0.141, 1.1093363e-7, 1.7655053e-7
-0.142, 1.2567641e-7, 2.1316012e-7
-0.143, 1.0042899e-7, 2.0565680e-7
-0.144, 1.4114478e-7, 2.0263897e-7
-0.145, 9.3304962e-8, 1.9685071e-7
-0.146, 1.3199238e-7, 2.2689696e-7
-0.147, 1.2659989e-7, 2.3375713e-7
-0.148, 1.0519483e-7, 2.1540288e-7
-0.149, 1.2308735e-7, 2.1607899e-7
-0.150, 1.0347978e-7, 2.0006641e-7
-0.151, 1.3146467e-7, 2.3665950e-7
-0.152, 1.0420538e-7, 2.2655064e-7
-0.153, 1.1080170e-7, 2.1548531e-7
-0.154, 1.2267508e-7, 2.7648480e-7
-0.155, 9.4673695e-8, 2.2249391e-7
-0.156, 1.2440661e-7, 2.3222348e-7
-0.157, 1.0033004e-7, 2.1843718e-7
-0.158, 1.2447258e-7, 2.3370765e-7
-0.159, 1.2016848e-7, 2.5659688e-7
-0.160, 1.1360514e-7, 2.2288968e-7
-0.161, 1.3009594e-7, 2.5338119e-7
-0.162, 9.8433603e-8, 2.6019188e-7
-0.163, 1.3382287e-7, 2.6532052e-7
-0.164, 1.0331487e-7, 2.5536008e-7
-0.165, 1.1634260e-7, 2.5855928e-7
-0.166, 1.2716058e-7, 2.9983579e-7
-0.167, 1.1335778e-7, 2.6908043e-7
-0.168, 1.3476284e-7, 2.8811081e-7
-0.169, 9.1969198e-8, 2.6581523e-7
-0.170, 1.3413619e-7, 2.8499406e-7
-0.171, 1.2783670e-7, 2.8946306e-7
-0.172, 1.1309392e-7, 2.7973348e-7
-0.173, 1.2582483e-7, 3.0018208e-7
-0.174, 1.0057741e-7, 2.9693339e-7
-0.175, 1.3938026e-7, 3.1860228e-7
-0.176, 1.1182414e-7, 2.5994453e-7
-0.177, 1.2275754e-7, 3.1202248e-7
-0.178, 1.3268500e-7, 3.3852319e-7
-0.179, 1.1434723e-7, 3.0473353e-7
-0.180, 1.3143170e-7, 3.2457197e-7
-0.181, 1.0026408e-7, 3.0608581e-7
-0.182, 1.3377340e-7, 3.5112220e-7
-0.183, 1.2910650e-7, 3.2861226e-7
-0.184, 1.0836106e-7, 3.3469735e-7
-0.185, 1.3728594e-7, 3.5649816e-7
-0.186, 1.1541913e-7, 3.3557134e-7
-0.187, 1.3430109e-7, 3.6062085e-7
-0.188, 1.0938349e-7, 3.3670921e-7
-0.189, 1.3225623e-7, 3.5992826e-7
-0.190, 1.3496073e-7, 3.9065063e-7
-0.191, 1.1908008e-7, 3.6919607e-7
-0.192, 1.3372392e-7, 3.9408073e-7
-0.193, 1.1248376e-7, 3.7859587e-7
-0.194, 1.4572922e-7, 3.9281093e-7
-0.195, 1.2328523e-7, 3.8494480e-7
-0.196, 1.2592376e-7, 3.8380691e-7
-0.197, 1.4709795e-7, 4.2612231e-7
-0.198, 1.1769486e-7, 4.1964145e-7
-0.199, 1.5240801e-7, 4.1551874e-7
-0.200, 1.0803124e-7, 4.0651477e-7
-0.201, 1.3911641e-7, 4.3204253e-7
-0.202, 1.3359198e-7, 4.5301883e-7
-0.203, 1.3082153e-7, 4.4281103e-7
-0.204, 1.4320614e-7, 4.5562439e-7
-0.205, 1.0590394e-7, 4.4211839e-7
-0.206, 1.5143505e-7, 4.7666666e-7
-0.207, 1.2343365e-7, 4.6485923e-7
-0.208, 1.2717707e-7, 4.4884666e-7
-0.209, 1.4279385e-7, 4.8733619e-7
-0.210, 1.2452206e-7, 4.7983286e-7
-0.211, 1.4731233e-7, 5.1444709e-7
-0.212, 1.1945937e-7, 4.7636982e-7
-0.213, 1.4957159e-7, 5.0247473e-7
-0.214, 1.4917580e-7, 5.4368530e-7
-0.215, 1.3527405e-7, 5.1218785e-7
-0.216, 1.4963754e-7, 5.2590821e-7
-0.217, 1.2966717e-7, 5.3357638e-7
-0.218, 1.5559073e-7, 5.5056194e-7
-0.219, 1.3829187e-7, 5.5344782e-7
-0.220, 1.4353594e-7, 5.2876112e-7
-0.221, 1.5300166e-7, 5.9053565e-7
-0.222, 1.3621403e-7, 5.8807848e-7
-0.223, 1.6566661e-7, 5.7251123e-7
-0.224, 1.2943632e-7, 5.7904151e-7
-0.225, 1.5430443e-7, 6.0480022e-7
-0.226, 1.5356235e-7, 6.2290707e-7
-0.227, 1.4731233e-7, 6.0476719e-7
-0.228, 1.6030710e-7, 6.3692426e-7
-0.229, 1.3045874e-7, 6.3715515e-7
-0.230, 1.6967388e-7, 6.5334905e-7
-0.231, 1.4182091e-7, 6.4005746e-7
-0.232, 1.5575563e-7, 6.5311821e-7
-0.233, 1.7173522e-7, 6.8530829e-7
-0.234, 1.4909335e-7, 6.8509394e-7
-0.235, 1.6853600e-7, 6.8755105e-7
-0.236, 1.3176151e-7, 6.7699693e-7
-0.237, 1.6800830e-7, 7.2533146e-7
-0.238, 1.6212107e-7, 7.2772264e-7
-0.239, 1.5113821e-7, 7.0570735e-7
-0.240, 1.8248721e-7, 7.5369564e-7
-0.241, 1.6147794e-7, 7.4876488e-7
-0.242, 1.8481242e-7, 7.7633752e-7
-0.243, 1.6118111e-7, 7.4470813e-7
-0.244, 1.7547862e-7, 7.7620558e-7
-0.245, 1.8446612e-7, 8.1241939e-7
-0.246, 1.5570616e-7, 8.0265681e-7
-0.247, 1.7813365e-7, 8.1858695e-7
-0.248, 1.5852609e-7, 8.0522943e-7
-0.249, 1.8174515e-7, 8.5005138e-7
-0.250, 1.7391200e-7, 8.3870572e-7
-0.251, 1.6927810e-7, 8.3417081e-7
-0.252, 1.9060070e-7, 8.7886082e-7
-0.253, 1.6545222e-7, 8.6692148e-7
-0.254, 1.9223330e-7, 8.9482398e-7
-0.255, 1.5557423e-7, 8.8291756e-7
-0.256, 1.7788629e-7, 9.0575730e-7
-0.257, 1.8250371e-7, 9.3921710e-7
-0.258, 1.7044891e-7, 9.1941172e-7
-0.259, 1.9685072e-7, 9.3031213e-7
-0.260, 1.5709138e-7, 9.4896325e-7
-0.261, 1.9958819e-7, 9.7925681e-7
-0.262, 1.7597335e-7, 9.8054306e-7
-0.263, 1.8288299e-7, 9.5631810e-7
-0.264, 1.9638897e-7, 1.0002331e-6
-0.265, 1.6937705e-7, 1.0215722e-6
-0.266, 1.9792262e-7, 1.0462754e-6
-0.267, 1.5921870e-7, 1.0209620e-6
-0.268, 1.9345359e-7, 1.0230893e-6
-0.269, 1.9353607e-7, 1.0884095e-6
-0.270, 1.8202547e-7, 1.0646627e-6
-0.271, 1.8974318e-7, 1.0868923e-6
-0.272, 1.7140540e-7, 1.0903883e-6
-0.273, 1.9878014e-7, 1.1114471e-6
-0.274, 1.7171872e-7, 1.1245243e-6
-0.275, 1.8082164e-7, 1.1114965e-6
-0.276, 1.9236522e-7, 1.1690330e-6
-0.277, 1.6045551e-7, 1.1676808e-6
-0.278, 1.9309081e-7, 1.1845839e-6
-0.279, 1.6228599e-7, 1.1800653e-6
-0.280, 1.8611520e-7, 1.2126841e-6
-0.281, 1.8632959e-7, 1.2288286e-6
-0.282, 1.7777086e-7, 1.2041584e-6
-0.283, 1.8966071e-7, 1.2496565e-6
-0.284, 1.6090075e-7, 1.2621895e-6
-0.285, 1.9467392e-7, 1.3013716e-6
-0.286, 1.6558414e-7, 1.2918730e-6
-0.287, 1.7747401e-7, 1.2932417e-6
-0.288, 1.8494435e-7, 1.3191817e-6
-0.289, 1.6982229e-7, 1.3352768e-6
-0.290, 1.9485532e-7, 1.3319951e-6
-0.291, 1.5659666e-7, 1.3548843e-6
-0.292, 1.8974316e-7, 1.3914776e-6
-0.293, 1.8303142e-7, 1.4144491e-6
-0.294, 1.6771146e-7, 1.3851944e-6
-0.295, 1.8082164e-7, 1.4187202e-6
-0.296, 1.5318308e-7, 1.4286807e-6
-0.297, 1.9254662e-7, 1.4603100e-6
-0.298, 1.6131304e-7, 1.4220515e-6
-0.299, 1.7326886e-7, 1.4662138e-6
-0.300, 1.7971678e-7, 1.5050991e-6
-0.301, 1.5971341e-7, 1.4706662e-6
-0.302, 1.7808416e-7, 1.5012732e-6
-0.303, 1.4081496e-7, 1.5074077e-6
-0.304, 1.6677149e-7, 1.5501685e-6
-0.305, 1.7112507e-7, 1.5510259e-6
-0.306, 1.5372726e-7, 1.5375695e-6
-0.307, 1.8247073e-7, 1.5951719e-6
-0.308, 1.5768505e-7, 1.5871904e-6
-0.309, 1.7218046e-7, 1.6118440e-6
-0.310, 1.5089084e-7, 1.6155050e-6
-0.311, 1.6949248e-7, 1.6289944e-6
-0.312, 1.6911318e-7, 1.6672697e-6
-0.313, 1.5268833e-7, 1.6500861e-6
-0.314, 1.7084471e-7, 1.6503171e-6
-0.315, 1.4704848e-7, 1.6547201e-6
-0.316, 1.6926160e-7, 1.7213429e-6
-0.317, 1.5491460e-7, 1.7035328e-6
-0.318, 1.5885591e-7, 1.6839748e-6
-0.319, 1.6969037e-7, 1.7312043e-6
-0.320, 1.4097988e-7, 1.7338759e-6
-0.321, 1.7786979e-7, 1.7533680e-6
-0.322, 1.3599964e-7, 1.7290936e-6
-0.323, 1.7247730e-7, 1.7538463e-6
-0.324, 1.5720683e-7, 1.7928140e-6
-0.325, 1.4356893e-7, 1.7844533e-6
-0.326, 1.6606238e-7, 1.7933253e-6
-0.327, 1.2397786e-7, 1.8004329e-6
-0.328, 1.7302150e-7, 1.8135266e-6
-0.329, 1.4038619e-7, 1.8073426e-6
-0.330, 1.5446935e-7, 1.8079691e-6
-0.331, 1.6253335e-7, 1.8828869e-6
-0.332, 1.3011244e-7, 1.8697108e-6
-0.333, 1.6942650e-7, 1.8847668e-6
-0.334, 1.3012892e-7, 1.8536982e-6
-0.335, 1.6391857e-7, 1.8952878e-6
-0.336, 1.6119759e-7, 1.9195295e-6
-0.337, 1.4861511e-7, 1.8870754e-6
-0.338, 1.6147794e-7, 1.8945293e-6
-0.339, 1.4277737e-7, 1.9187214e-6
-0.340, 1.5944957e-7, 1.9287643e-6
-0.341, 1.3898449e-7, 1.9125041e-6
-0.342, 1.5484864e-7, 1.9167919e-6
-0.343, 1.5651420e-7, 1.9365973e-6
-0.344, 1.3538948e-7, 1.9460135e-6
-0.345, 1.6177476e-7, 1.9473823e-6
-0.346, 1.2810055e-7, 1.9198426e-6
-0.347, 1.5870748e-7, 1.9477120e-6
-0.348, 1.5671209e-7, 1.9788304e-6
-0.349, 1.4642184e-7, 1.9294569e-6
-0.350, 1.5352938e-7, 1.9562708e-6
-0.351, 1.2534660e-7, 1.9601628e-6
-0.352, 1.6396805e-7, 1.9909346e-6
-0.353, 1.3161311e-7, 1.9635104e-6
-0.354, 1.4554782e-7, 1.9508288e-6
-0.355, 1.5765207e-7, 1.9836953e-6
-0.356, 1.3786311e-7, 1.9452054e-6
-0.357, 1.6467715e-7, 1.9512577e-6
-0.358, 1.2244422e-7, 1.9477122e-6
-0.359, 1.5575563e-7, 1.9671054e-6
-0.360, 1.5009928e-7, 1.9771812e-6
-0.361, 1.4976948e-7, 1.9384113e-6
-0.362, 1.6276422e-7, 1.9519834e-6
-0.363, 1.3586771e-7, 1.9497900e-6
-0.364, 1.7161979e-7, 1.9459808e-6
-0.365, 1.3702207e-7, 1.9179793e-6
-0.366, 1.5748716e-7, 1.9178638e-6
-0.367, 1.6103269e-7, 1.9453871e-6
-0.368, 1.4178792e-7, 1.8996581e-6
-0.369, 1.5943309e-7, 1.9023626e-6
-0.370, 1.3047524e-7, 1.8913302e-6
-0.371, 1.6136249e-7, 1.9128177e-6
-0.372, 1.4915932e-7, 1.8855089e-6
-0.373, 1.4518503e-7, 1.8316334e-6
-0.374, 1.6889881e-7, 1.8753834e-6
-0.375, 1.3314674e-7, 1.8527086e-6
-0.376, 1.5150100e-7, 1.8379494e-6
-0.377, 1.3651088e-7, 1.8072931e-6
-0.378, 1.5423848e-7, 1.8060563e-6
-0.379, 1.4963754e-7, 1.8283189e-6
-0.380, 1.4261246e-7, 1.7843378e-6
-0.381, 1.6423189e-7, 1.7602613e-6
-0.382, 1.1993761e-7, 1.7673688e-6
-0.383, 1.6527082e-7, 1.7709473e-6
-0.384, 1.4079846e-7, 1.7388891e-6
-0.385, 1.4912632e-7, 1.6972663e-6
-0.386, 1.6614484e-7, 1.7089089e-6
-0.387, 1.4360191e-7, 1.6901258e-6
-0.388, 1.6748058e-7, 1.6675830e-6
-0.389, 1.2580833e-7, 1.6387570e-6
-0.390, 1.6301158e-7, 1.6438527e-6
-0.391, 1.6139548e-7, 1.6471179e-6
-0.392, 1.4487169e-7, 1.6026752e-6
-0.393, 1.6741463e-7, 1.5774442e-6
-0.394, 1.2879318e-7, 1.5468703e-6
-0.395, 1.7222993e-7, 1.5550828e-6
-0.396, 1.4152407e-7, 1.5210292e-6
-0.397, 1.4604254e-7, 1.4840073e-6
-0.398, 1.5925168e-7, 1.5138393e-6
-0.399, 1.4365138e-7, 1.4676650e-6
-0.400, 1.5590403e-7, 1.4377011e-6
-0.401, 1.2735846e-7, 1.4295382e-6
-0.402, 1.6081830e-7, 1.4047195e-6
-0.403, 1.5290271e-7, 1.4189346e-6
-0.404, 1.4563027e-7, 1.3591884e-6
-0.405, 1.6055445e-7, 1.3388387e-6
-0.406, 1.4106233e-7, 1.3392842e-6
-0.407, 1.7284010e-7, 1.3231561e-6
-0.408, 1.3951220e-7, 1.2953361e-6
-0.409, 1.5799839e-7, 1.2407020e-6
-0.410, 1.7292254e-7, 1.2798181e-6
-0.411, 1.4909334e-7, 1.2631460e-6
-0.412, 1.7668246e-7, 1.2115628e-6
-0.413, 1.4165600e-7, 1.1958800e-6
-0.414, 1.6682097e-7, 1.1817640e-6
-0.415, 1.5783348e-7, 1.1864802e-6
-0.416, 1.5156697e-7, 1.1290922e-6
-0.417, 1.6784338e-7, 1.1047848e-6
-0.418, 1.3807748e-7, 1.1116945e-6
-0.419, 1.8146480e-7, 1.0961930e-6
-0.420, 1.4648779e-7, 1.0613151e-6
-0.421, 1.5397461e-7, 1.0525089e-6
-0.422, 1.6978930e-7, 1.0579508e-6
-0.423, 1.4859863e-7, 1.0056257e-6
-0.424, 1.7295554e-7, 1.0265360e-6
-0.425, 1.3634596e-7, 9.6739996e-7
-0.426, 1.6832161e-7, 1.0087424e-6
-0.427, 1.6781040e-7, 9.4975474e-7
-0.428, 1.5316658e-7, 9.5485029e-7
-0.429, 1.8162970e-7, 9.3854112e-7
-0.430, 1.4751024e-7, 9.1763070e-7
-0.431, 1.7737507e-7, 9.1919730e-7
-0.432, 1.5516196e-7, 8.5447090e-7
-0.433, 1.8050832e-7, 8.7115961e-7
-0.434, 1.7508286e-7, 8.5846170e-7
-0.435, 1.6060392e-7, 8.3811204e-7
-0.436, 1.8807761e-7, 8.1330984e-7
-0.437, 1.5930115e-7, 8.1279870e-7
-0.438, 1.7539617e-7, 8.1735016e-7
-0.439, 1.6593046e-7, 8.0461922e-7
-0.440, 1.7244432e-7, 7.5496553e-7
-0.441, 1.7721015e-7, 7.7922334e-7
-0.442, 1.5377672e-7, 7.6764690e-7
-0.443, 1.8848986e-7, 7.7986647e-7
-0.444, 1.4760919e-7, 7.2209923e-7
-0.445, 1.7526425e-7, 7.1634400e-7
-0.446, 1.7506638e-7, 7.4691786e-7
-0.447, 1.6423189e-7, 7.0971464e-7
-0.448, 1.8665939e-7, 7.0623503e-7
-0.449, 1.4975296e-7, 7.0321721e-7
-0.450, 1.9828541e-7, 7.0658143e-7
-0.451, 1.5798189e-7, 6.6705297e-7
-0.452, 1.6886582e-7, 6.7191775e-7
-0.453, 1.8532364e-7, 6.7340193e-7
-0.454, 1.5392516e-7, 6.7058204e-7
-0.455, 1.9048527e-7, 6.8450026e-7
-0.456, 1.5410654e-7, 6.3405491e-7
-0.457, 1.8792917e-7, 6.5181547e-7
-0.458, 1.8715411e-7, 6.4843493e-7
-0.459, 1.7379658e-7, 6.3266964e-7
-0.460, 1.9149120e-7, 6.3049288e-7
-0.461, 1.6299508e-7, 6.1106664e-7
-0.462, 1.9279398e-7, 6.3887023e-7
-0.463, 1.6800830e-7, 6.0974742e-7
-0.464, 1.8159672e-7, 5.9818740e-7
-0.465, 1.8957827e-7, 6.1255082e-7
-0.466, 1.6131303e-7, 5.8906789e-7
-0.467, 1.8855583e-7, 5.9498814e-7
-0.468, 1.6743112e-7, 5.7099408e-7
-0.469, 1.8327877e-7, 5.8776516e-7
-0.470, 1.8847338e-7, 5.9803892e-7
-0.471, 1.7915607e-7, 5.5595444e-7
-0.472, 2.0108885e-7, 5.5902171e-7
-0.473, 1.6612834e-7, 5.6974068e-7
-0.474, 2.0301826e-7, 5.5399198e-7
-0.475, 1.7186714e-7, 5.4645568e-7
-0.476, 1.8083814e-7, 5.4058501e-7
-0.477, 1.9535005e-7, 5.6187463e-7
-0.478, 1.7923854e-7, 5.3323015e-7
-0.479, 2.0898794e-7, 5.5578948e-7
-0.480, 1.6306106e-7, 5.2191740e-7
-0.481, 1.9943977e-7, 5.5423936e-7
-0.482, 1.9581179e-7, 5.6527176e-7
-0.483, 1.8286651e-7, 5.3375788e-7
-0.484, 2.0719044e-7, 5.5155135e-7
-0.485, 1.7594037e-7, 5.3189433e-7
-0.486, 2.1408360e-7, 5.3471433e-7
-0.487, 1.8994105e-7, 5.1476036e-7
-0.488, 2.0417262e-7, 5.1141274e-7
-0.489, 2.1530391e-7, 5.4696687e-7
-0.490, 1.8934739e-7, 4.9787377e-7
-0.491, 2.1179137e-7, 5.2528151e-7
-0.492, 1.8717060e-7, 5.1898201e-7
-0.493, 2.0072603e-7, 5.4868201e-7
-0.494, 2.0252354e-7, 5.0288702e-7
-0.495, 1.8619765e-7, 5.1108293e-7
-0.496, 2.2495104e-7, 5.4434491e-7
-0.497, 1.9277748e-7, 5.1545305e-7
-0.498, 2.0987844e-7, 5.2325316e-7
-0.499, 1.9304133e-7, 4.8647871e-7
-0.500, 2.1487516e-7, 5.0532765e-7
