Jan. 27, 2006   23:54:40
Square Wave Voltammetry
File: z:\users\scottsaunders\git\labwork\ida\01_17_19_psoralen_nonequil_2\data\control\1\75um_control_transfer_1_swv_2.txt
Data Source:  Experiment
Instrument Model:  CHI760E
Header: 
Note: 

Init E (V) = 0.1
Final E (V) = -0.5
Incr E (V) = 0.001
Amplitude (V) = 0.025
Frequency (Hz) = 300
Quiet Time (sec) = 2
Sensitivity (A/V) = 1e-6
Sens 2 (A/V) = 1e-6

Potential/V, i1/A, i2/A

0.099, 1.1789274e-7, 1.1419880e-7
0.098, 1.4005639e-7, 1.1645804e-7
0.097, 1.4849968e-7, 1.4460784e-7
0.096, 1.2872719e-7, 1.3802801e-7
0.095, 1.5130311e-7, 1.0768495e-7
0.094, 1.1673838e-7, 1.1720013e-7
0.093, 1.4828530e-7, 9.1243614e-8
0.092, 1.4267843e-7, 1.3660981e-7
0.091, 1.3416917e-7, 1.1568298e-7
0.090, 1.5051155e-7, 1.3294884e-7
0.089, 1.1670540e-7, 1.3624701e-7
0.088, 1.5098979e-7, 1.0489799e-7
0.087, 1.2956824e-7, 1.1795872e-7
0.086, 1.3515863e-7, 8.1167727e-8
0.085, 1.4947263e-7, 1.4003990e-7
0.084, 1.1749697e-7, 1.2993104e-7
0.083, 1.5227607e-7, 1.5369429e-7
0.082, 1.1377005e-7, 1.2076214e-7
0.081, 1.4498713e-7, 1.0959788e-7
0.080, 1.3644490e-7, 1.2102599e-7
0.079, 1.3586772e-7, 7.7589235e-8
0.078, 1.4586115e-7, 1.2757285e-7
0.077, 1.1726610e-7, 1.1833799e-7
0.076, 1.4652079e-7, 1.3357550e-7
0.075, 1.1879975e-7, 1.2173511e-7
0.074, 1.3814345e-7, 1.1990463e-7
0.073, 1.3898448e-7, 1.3210781e-7
0.072, 1.3011244e-7, 8.0590553e-8
0.071, 1.4772461e-7, 1.2655042e-7
0.070, 1.1550158e-7, 1.0846001e-7
0.069, 1.3695612e-7, 1.5192977e-7
0.068, 1.2970015e-7, 1.3845678e-7
0.067, 1.3505968e-7, 1.0811370e-7
0.066, 1.3728592e-7, 1.0992770e-7
0.065, 1.1894817e-7, 9.4789129e-8
0.064, 1.3731891e-7, 1.2996401e-7
0.063, 1.1744750e-7, 1.1207149e-7
0.062, 1.4134267e-7, 1.4790602e-7
0.061, 1.3388882e-7, 1.3011244e-7
0.060, 1.3019488e-7, 1.0344681e-7
0.059, 1.4224968e-7, 8.9363660e-8
0.058, 1.1846992e-7, 1.0232543e-7
0.057, 1.3616456e-7, 1.3260254e-7
0.056, 1.2407679e-7, 1.1662295e-7
0.055, 1.2866124e-7, 1.4078199e-7
0.054, 1.4163950e-7, 1.3276745e-7
0.053, 1.1647453e-7, 1.0903717e-7
0.052, 1.4295877e-7, 8.0260733e-8
0.051, 1.1466054e-7, 8.2371557e-8
0.050, 1.3601613e-7, 1.1893167e-7
0.049, 1.2692972e-7, 1.4206826e-7
0.048, 1.2684724e-7, 1.4452539e-7
0.047, 1.4224966e-7, 1.0692636e-7
0.046, 1.1832150e-7, 1.1022452e-7
0.045, 1.3207485e-7, 9.3288477e-8
0.044, 1.2015198e-7, 1.1365461e-7
0.043, 1.2650095e-7, 1.0775090e-7
0.042, 1.3769821e-7, 1.4203528e-7
0.041, 1.1718365e-7, 1.3253658e-7
0.040, 1.3334461e-7, 1.1215395e-7
0.039, 1.1743100e-7, 1.0694285e-7
0.038, 1.2434064e-7, 8.3954674e-8
0.037, 1.2664937e-7, 1.2910648e-7
0.036, 1.2170212e-7, 1.1522123e-7
0.035, 1.3453197e-7, 1.2669882e-7
0.034, 1.1019155e-7, 1.2272456e-7
0.033, 1.4091390e-7, 1.0596990e-7
0.032, 1.1593034e-7, 1.1693628e-7
0.031, 1.2790267e-7, 6.7002127e-8
0.030, 1.3545545e-7, 1.3230571e-7
0.029, 1.0455169e-7, 1.1413285e-7
0.028, 1.3375690e-7, 1.3016189e-7
0.027, 1.0872386e-7, 1.2034988e-7
0.026, 1.3839082e-7, 1.1093363e-7
0.025, 1.2325225e-7, 9.8400619e-8
0.024, 1.2345015e-7, 7.9485673e-8
0.023, 1.4142512e-7, 1.2002006e-7
0.022, 1.0963086e-7, 1.1718365e-7
0.021, 1.3134924e-7, 1.3458143e-7
0.020, 1.0972980e-7, 1.1522123e-7
0.019, 1.3007946e-7, 1.1884921e-7
0.018, 1.2750689e-7, 9.3519347e-8
0.017, 1.1817310e-7, 8.5273939e-8
0.016, 1.3154714e-7, 1.1523773e-7
0.015, 1.0498045e-7, 1.1624367e-7
0.014, 1.2546202e-7, 1.6203863e-7
0.013, 1.1673839e-7, 1.1512230e-7
0.012, 1.2478590e-7, 1.0278717e-7
0.011, 1.3040926e-7, 8.4103092e-8
0.010, 1.0291910e-7, 9.4723163e-8
0.009, 1.3276744e-7, 1.2328523e-7
0.008, 1.0971331e-7, 1.3435057e-7
0.007, 1.2668235e-7, 1.3522458e-7
0.006, 1.2938683e-7, 1.0540921e-7
0.005, 1.1868431e-7, 1.0984523e-7
0.004, 1.3299832e-7, 7.9947412e-8
0.003, 1.1086767e-7, 1.2008603e-7
0.002, 1.2612166e-7, 1.2796863e-7
0.001, 1.1348970e-7, 1.3741786e-7
-0.000, 1.2846336e-7, 1.3984200e-7
-0.001, 1.3040926e-7, 1.1724961e-7
-0.002, 1.1050486e-7, 1.1787625e-7
-0.003, 1.3407022e-7, 8.4993601e-8
-0.004, 1.1551807e-7, 1.1500686e-7
-0.005, 1.2638552e-7, 1.0844352e-7
-0.006, 1.2625358e-7, 1.3095347e-7
-0.007, 1.1391847e-7, 1.2659989e-7
-0.008, 1.3545545e-7, 9.8713947e-8
-0.009, 1.0728915e-7, 9.9373572e-8
-0.010, 1.2580833e-7, 9.6603117e-8
-0.011, 1.1560053e-7, 1.3011244e-7
-0.012, 1.2513220e-7, 1.1370409e-7
-0.013, 1.3136574e-7, 1.3441652e-7
-0.014, 1.0567307e-7, 1.3128329e-7
-0.015, 1.3438355e-7, 1.1217044e-7
-0.016, 1.1588087e-7, 1.1045540e-7
-0.017, 1.1837098e-7, 8.1579998e-8
-0.018, 1.2128986e-7, 1.3459794e-7
-0.019, 1.1052136e-7, 1.2160316e-7
-0.020, 1.3656035e-7, 1.5250694e-7
-0.021, 1.0491448e-7, 1.2574237e-7
-0.022, 1.3194291e-7, 1.1840396e-7
-0.023, 1.1457810e-7, 1.1230237e-7
-0.024, 1.2188352e-7, 7.9864961e-8
-0.025, 1.3306429e-7, 1.3192641e-7
-0.026, 1.0488151e-7, 1.2354910e-7
-0.027, 1.2973314e-7, 1.3888554e-7
-0.028, 1.0352925e-7, 1.3265202e-7
-0.029, 1.2124039e-7, 1.2043233e-7
-0.030, 1.2694619e-7, 1.2884264e-7
-0.031, 1.1604578e-7, 8.8291756e-8
-0.032, 1.2610516e-7, 1.2740794e-7
-0.033, 9.8944817e-8, 1.2475293e-7
-0.034, 1.3113485e-7, 1.5560721e-7
-0.035, 1.1007611e-7, 1.2989805e-7
-0.036, 1.2234527e-7, 1.1429776e-7
-0.037, 1.2303788e-7, 1.2467046e-7
-0.038, 1.0148440e-7, 9.7543094e-8
-0.039, 1.3283341e-7, 1.3698910e-7
-0.040, 9.7740980e-8, 1.1802467e-7
-0.041, 1.2831492e-7, 1.4515204e-7
-0.042, 1.1583139e-7, 1.3815995e-7
-0.043, 1.2448908e-7, 1.1009260e-7
-0.044, 1.2791915e-7, 1.2331822e-7
-0.045, 1.0087423e-7, 9.1029236e-8
-0.046, 1.2104249e-7, 1.4729585e-7
-0.047, 1.0453520e-7, 1.2422522e-7
-0.048, 1.2471995e-7, 1.4144162e-7
-0.049, 1.1853589e-7, 1.4658674e-7
-0.050, 1.1876676e-7, 1.0766845e-7
-0.051, 1.3408672e-7, 1.3182748e-7
-0.052, 1.0338084e-7, 7.9502158e-8
-0.053, 1.2697917e-7, 1.4010585e-7
-0.054, 1.1395144e-7, 1.3205835e-7
-0.055, 1.1733206e-7, 1.3408672e-7
-0.056, 1.1680436e-7, 1.4398120e-7
-0.057, 1.0501343e-7, 1.1969024e-7
-0.058, 1.2094354e-7, 1.3693962e-7
-0.059, 1.1236833e-7, 7.8281843e-8
-0.060, 1.3730242e-7, 1.3088750e-7
-0.061, 1.2188352e-7, 1.3738487e-7
-0.062, 1.0633269e-7, 1.3377338e-7
-0.063, 1.2852931e-7, 1.3136574e-7
-0.064, 9.8845867e-8, 1.1489142e-7
-0.065, 1.2707812e-7, 1.4373383e-7
-0.066, 1.1271464e-7, 9.8845874e-8
-0.067, 1.2153721e-7, 1.2221334e-7
-0.068, 1.2610516e-7, 1.4073251e-7
-0.069, 1.0047846e-7, 1.4648779e-7
-0.070, 1.3350953e-7, 1.4330507e-7
-0.071, 1.0334786e-7, 1.1889868e-7
-0.072, 1.1912955e-7, 1.3468038e-7
-0.073, 1.1757943e-7, 1.0453520e-7
-0.074, 1.1490792e-7, 1.2966717e-7
-0.075, 1.2976614e-7, 1.2928790e-7
-0.076, 1.0397451e-7, 1.4299175e-7
-0.077, 1.2676480e-7, 1.5252343e-7
-0.078, 1.0923507e-7, 1.2523115e-7
-0.079, 1.1960779e-7, 1.2963420e-7
-0.080, 1.2194948e-7, 9.7114338e-8
-0.081, 1.0667900e-7, 1.4919229e-7
-0.082, 1.2442311e-7, 1.4929122e-7
-0.083, 1.0184719e-7, 1.5435391e-7
-0.084, 1.1814011e-7, 1.8687376e-7
-0.085, 1.1606227e-7, 1.3641193e-7
-0.086, 1.0801476e-7, 1.3908343e-7
-0.087, 1.2607219e-7, 1.1149432e-7
-0.088, 1.0059389e-7, 1.5222659e-7
-0.089, 1.2618763e-7, 1.4149109e-7
-0.090, 1.0328190e-7, 1.5201223e-7
-0.091, 1.1678786e-7, 1.5611843e-7
-0.092, 1.2110846e-7, 1.4564677e-7
-0.093, 1.0207808e-7, 1.4800494e-7
-0.094, 1.2940333e-7, 1.0570604e-7
-0.095, 1.0290260e-7, 1.2641850e-7
-0.096, 1.2171861e-7, 1.5695946e-7
-0.097, 1.1358865e-7, 1.6414944e-7
-0.098, 1.1428126e-7, 1.7673193e-7
-0.099, 1.2104249e-7, 1.2932087e-7
-0.100, 9.9653924e-8, 1.4478925e-7
-0.101, 1.2697917e-7, 1.3242114e-7
-0.102, 1.0976278e-7, 1.2018496e-7
-0.103, 1.2218035e-7, 1.5507950e-7
-0.104, 1.2503327e-7, 1.7831505e-7
-0.105, 1.1200553e-7, 1.7961781e-7
-0.106, 1.3339411e-7, 1.6025763e-7
-0.107, 1.0493098e-7, 1.4648779e-7
-0.108, 1.2191650e-7, 1.3083803e-7
-0.109, 1.1096661e-7, 1.2833142e-7
-0.110, 1.1866782e-7, 1.5308412e-7
-0.111, 1.2399434e-7, 1.6294561e-7
-0.112, 1.0717372e-7, 1.9891206e-7
-0.113, 1.2773776e-7, 1.5498057e-7
-0.114, 1.0781687e-7, 1.5303465e-7
-0.115, 1.2725953e-7, 1.3064013e-7
-0.116, 1.2366453e-7, 1.3972658e-7
-0.117, 1.1037294e-7, 1.7002017e-7
-0.118, 1.2707812e-7, 1.5923519e-7
-0.119, 1.0064337e-7, 1.8900109e-7
-0.120, 1.2859527e-7, 1.8369104e-7
-0.121, 1.1240131e-7, 1.6251686e-7
-0.122, 1.2312033e-7, 1.6814022e-7
-0.123, 1.2749040e-7, 1.4772461e-7
-0.124, 1.1269815e-7, 1.7140539e-7
-0.125, 1.2856231e-7, 1.7305447e-7
-0.126, 1.1050487e-7, 1.7046543e-7
-0.127, 1.2655042e-7, 1.7935398e-7
-0.128, 1.2928790e-7, 1.7714420e-7
-0.129, 1.1381952e-7, 1.5138556e-7
-0.130, 1.3106890e-7, 1.3743434e-7
-0.131, 1.0715723e-7, 1.7147136e-7
-0.132, 1.3068961e-7, 1.9182102e-7
-0.133, 1.2185053e-7, 1.9515215e-7
-0.134, 1.2650094e-7, 1.7681438e-7
-0.135, 1.3494424e-7, 1.9139226e-7
-0.136, 1.1380303e-7, 1.7534671e-7
-0.137, 1.3068961e-7, 1.5664614e-7
-0.138, 1.1700224e-7, 1.8697271e-7
-0.139, 1.2570939e-7, 1.9083157e-7
-0.140, 1.3380637e-7, 2.1424850e-7
-0.141, 1.2307086e-7, 1.9843382e-7
-0.142, 1.3501020e-7, 1.8148128e-7
-0.143, 1.1540264e-7, 1.8205847e-7
-0.144, 1.3865467e-7, 1.6025763e-7
-0.145, 1.3700559e-7, 1.9871416e-7
-0.146, 1.3453197e-7, 1.9751033e-7
-0.147, 1.3507616e-7, 2.2447281e-7
-0.148, 1.1126345e-7, 2.4546560e-7
-0.149, 1.4276088e-7, 1.8980913e-7
-0.150, 1.2753986e-7, 2.0857567e-7
-0.151, 1.3657683e-7, 1.7133944e-7
-0.152, 1.3693963e-7, 2.0943320e-7
-0.153, 1.3261904e-7, 2.1205523e-7
-0.154, 1.5255642e-7, 2.1945959e-7
-0.155, 1.2491783e-7, 2.4277759e-7
-0.156, 1.4587764e-7, 2.2904075e-7
-0.157, 1.2857879e-7, 2.1596355e-7
-0.158, 1.4178792e-7, 1.9079857e-7
-0.159, 1.4625692e-7, 2.0161656e-7
-0.160, 1.2993104e-7, 2.3624723e-7
-0.161, 1.5250694e-7, 2.4261269e-7
-0.162, 1.3002997e-7, 2.6327567e-7
-0.163, 1.5752015e-7, 2.4897813e-7
-0.164, 1.4881300e-7, 2.3878681e-7
-0.165, 1.4906037e-7, 2.2668257e-7
-0.166, 1.5669561e-7, 2.0717397e-7
-0.167, 1.3624701e-7, 2.5239171e-7
-0.168, 1.5750365e-7, 2.5600320e-7
-0.169, 1.4810389e-7, 2.8001384e-7
-0.170, 1.5761910e-7, 2.6650787e-7
-0.171, 1.7054788e-7, 2.4807113e-7
-0.172, 1.5733875e-7, 2.5544253e-7
-0.173, 1.7406042e-7, 2.1797543e-7
-0.174, 1.5240801e-7, 2.7694654e-7
-0.175, 1.6980579e-7, 2.7003688e-7
-0.176, 1.6947598e-7, 3.0041295e-7
-0.177, 1.7711122e-7, 3.0412338e-7
-0.178, 1.8596677e-7, 2.7788653e-7
-0.179, 1.6617781e-7, 2.9251385e-7
-0.180, 1.9487182e-7, 2.6284690e-7
-0.181, 1.7384605e-7, 2.6805799e-7
-0.182, 1.9922538e-7, 2.9821967e-7
-0.183, 1.9107893e-7, 3.2608915e-7
-0.184, 1.8947932e-7, 3.3576924e-7
-0.185, 2.1340747e-7, 3.1964123e-7
-0.186, 1.9393184e-7, 3.0653104e-7
-0.187, 2.1393518e-7, 2.9147492e-7
-0.188, 2.1200576e-7, 2.9343735e-7
-0.189, 2.2848006e-7, 3.3217424e-7
-0.190, 2.2631977e-7, 3.4640578e-7
-0.191, 2.1101631e-7, 3.5565716e-7
-0.192, 2.4081521e-7, 3.6583197e-7
-0.193, 2.3379010e-7, 3.3476329e-7
-0.194, 2.4823606e-7, 3.3748427e-7
-0.195, 2.5321629e-7, 3.3847371e-7
-0.196, 2.6713451e-7, 3.7945335e-7
-0.197, 2.8118467e-7, 3.8560444e-7
-0.198, 2.6050520e-7, 4.0105630e-7
-0.199, 2.9662007e-7, 4.2460516e-7
-0.200, 2.8667611e-7, 3.9536698e-7
-0.201, 3.0672891e-7, 3.9831886e-7
-0.202, 3.1876721e-7, 3.9137623e-7
-0.203, 3.0564053e-7, 4.1299563e-7
-0.204, 3.4152453e-7, 4.5013292e-7
-0.205, 3.2791959e-7, 4.4477343e-7
-0.206, 3.5230951e-7, 4.9459214e-7
-0.207, 3.6071981e-7, 4.9648861e-7
-0.208, 3.6970729e-7, 4.6932823e-7
-0.209, 3.9929182e-7, 4.5786715e-7
-0.210, 3.8820997e-7, 4.6537045e-7
-0.211, 4.1792640e-7, 5.2302232e-7
-0.212, 4.1190725e-7, 5.2269252e-7
-0.213, 4.4076620e-7, 5.4630732e-7
-0.214, 4.5658084e-7, 5.7099402e-7
-0.215, 4.5255709e-7, 5.5481655e-7
-0.216, 4.9347079e-7, 5.7488592e-7
-0.217, 4.8906776e-7, 5.3227359e-7
-0.218, 5.2325316e-7, 6.0898884e-7
-0.219, 5.2762323e-7, 6.2191759e-7
-0.220, 5.4515294e-7, 6.3669336e-7
-0.221, 5.7110947e-7, 6.5128779e-7
-0.222, 5.6426580e-7, 6.5137021e-7
-0.223, 6.0717485e-7, 6.7660113e-7
-0.224, 6.0249147e-7, 6.4831943e-7
-0.225, 6.3855686e-7, 6.6906483e-7
-0.226, 6.5823042e-7, 7.3088893e-7
-0.227, 6.6842171e-7, 7.3669366e-7
-0.228, 7.0107353e-7, 7.8608360e-7
-0.229, 7.0336569e-7, 7.4597796e-7
-0.230, 7.4305910e-7, 7.7638697e-7
-0.231, 7.4930909e-7, 7.8638044e-7
-0.232, 7.7003801e-7, 7.6479392e-7
-0.233, 7.9610993e-7, 8.5344857e-7
-0.234, 7.8796353e-7, 8.5356396e-7
-0.235, 8.3199399e-7, 8.8852448e-7
-0.236, 8.4155863e-7, 8.8847497e-7
-0.237, 8.8112006e-7, 8.8760100e-7
-0.238, 8.9893018e-7, 9.2848165e-7
-0.239, 9.0925334e-7, 8.8675989e-7
-0.240, 9.4045402e-7, 9.4911167e-7
-0.241, 9.3329697e-7, 9.6176018e-7
-0.242, 9.7472184e-7, 1.0161302e-6
-0.243, 9.8807936e-7, 1.0145636e-6
-0.244, 1.0043228e-6, 9.9818828e-7
-0.245, 1.0435381e-6, 1.0372220e-6
-0.246, 1.0359028e-6, 1.0095998e-6
-0.247, 1.0770967e-6, 1.0614635e-6
-0.248, 1.0710941e-6, 1.0614965e-6
-0.249, 1.1039108e-6, 1.1059062e-6
-0.250, 1.1192143e-6, 1.1535976e-6
-0.251, 1.1269319e-6, 1.1372717e-6
-0.252, 1.1558238e-6, 1.1316154e-6
-0.253, 1.1424498e-6, 1.1190164e-6
-0.254, 1.1744255e-6, 1.1594024e-6
-0.255, 1.1780370e-6, 1.1808074e-6
-0.256, 1.1964243e-6, 1.1793727e-6
-0.257, 1.2164605e-6, 1.2418069e-6
-0.258, 1.2122883e-6, 1.2267838e-6
-0.259, 1.2300984e-6, 1.2261406e-6
-0.260, 1.2254975e-6, 1.2337099e-6
-0.261, 1.2384262e-6, 1.2120740e-6
-0.262, 1.2468366e-6, 1.2743103e-6
-0.263, 1.2477765e-6, 1.2608373e-6
-0.264, 1.2578359e-6, 1.2802964e-6
-0.265, 1.2366783e-6, 1.2922193e-6
-0.266, 1.2637890e-6, 1.2866290e-6
-0.267, 1.2496895e-6, 1.2922028e-6
-0.268, 1.2549170e-6, 1.2449731e-6
-0.269, 1.2636408e-6, 1.3096501e-6
-0.270, 1.2313187e-6, 1.3116126e-6
-0.271, 1.2522125e-6, 1.3307418e-6
-0.272, 1.2250357e-6, 1.3404054e-6
-0.273, 1.2329349e-6, 1.3127009e-6
-0.274, 1.2239309e-6, 1.3312365e-6
-0.275, 1.2176644e-6, 1.2652569e-6
-0.276, 1.2177303e-6, 1.2775259e-6
-0.277, 1.1762395e-6, 1.3208638e-6
-0.278, 1.1954182e-6, 1.3293896e-6
-0.279, 1.1662626e-6, 1.3382946e-6
-0.280, 1.1616287e-6, 1.2887233e-6
-0.281, 1.1535317e-6, 1.3048677e-6
-0.282, 1.1181259e-6, 1.2759265e-6
-0.283, 1.1161965e-6, 1.2511573e-6
-0.284, 1.0802960e-6, 1.3020972e-6
-0.285, 1.0821265e-6, 1.2884923e-6
-0.286, 1.0643988e-6, 1.3236838e-6
-0.287, 1.0438513e-6, 1.2865959e-6
-0.288, 1.0363315e-6, 1.2708141e-6
-0.289, 9.9198769e-7, 1.2571599e-6
-0.290, 9.9846864e-7, 1.2164935e-6
-0.291, 9.6179303e-7, 1.2514375e-6
-0.292, 9.5244280e-7, 1.2379480e-6
-0.293, 9.3492957e-7, 1.2673015e-6
-0.294, 9.0433912e-7, 1.2447257e-6
-0.295, 9.0057921e-7, 1.2195939e-6
-0.296, 8.5382783e-7, 1.1900258e-6
-0.297, 8.5531201e-7, 1.1888220e-6
-0.298, 8.2714570e-7, 1.2245576e-6
-0.299, 8.0419051e-7, 1.1980073e-6
-0.300, 7.9203670e-7, 1.2241452e-6
-0.301, 7.4977078e-7, 1.2212594e-6
-0.302, 7.5732356e-7, 1.1807745e-6
-0.303, 7.2079649e-7, 1.1670705e-6
-0.304, 7.2252806e-7, 1.1252829e-6
-0.305, 6.9276211e-7, 1.1738648e-6
-0.306, 6.6042367e-7, 1.1714076e-6
-0.307, 6.6791051e-7, 1.1676642e-6
-0.308, 6.2579301e-7, 1.1627664e-6
-0.309, 6.2376461e-7, 1.1607217e-6
-0.310, 6.0280479e-7, 1.1473146e-6
-0.311, 5.9173948e-7, 1.0912458e-6
-0.312, 5.8039376e-7, 1.1332810e-6
-0.313, 5.4233300e-7, 1.1382610e-6
-0.314, 5.5008377e-7, 1.1489966e-6
-0.315, 5.1728347e-7, 1.1513220e-6
-0.316, 5.2036728e-7, 1.1405534e-6
-0.317, 4.9360273e-7, 1.1345178e-6
-0.318, 4.8252087e-7, 1.0895802e-6
-0.319, 4.8316406e-7, 1.0948244e-6
-0.320, 4.3624769e-7, 1.1227432e-6
-0.321, 4.6060461e-7, 1.1165757e-6
-0.322, 4.2932157e-7, 1.1631953e-6
-0.323, 4.2671599e-7, 1.1170210e-6
-0.324, 4.2993176e-7, 1.1303456e-6
-0.325, 3.8924890e-7, 1.0816977e-6
-0.326, 4.0306821e-7, 1.0839569e-6
-0.327, 3.7115848e-7, 1.1196265e-6
-0.328, 3.8197643e-7, 1.1163613e-6
-0.329, 3.7105954e-7, 1.1662461e-6
-0.330, 3.6571649e-7, 1.1240130e-6
-0.331, 3.7125744e-7, 1.1085613e-6
-0.332, 3.2852978e-7, 1.1187525e-6
-0.333, 3.4998430e-7, 1.0835447e-6
-0.334, 3.2091100e-7, 1.1378984e-6
-0.335, 3.1710164e-7, 1.1203026e-6
-0.336, 3.2317024e-7, 1.1814177e-6
-0.337, 2.9605934e-7, 1.1575553e-6
-0.338, 3.2468739e-7, 1.1247222e-6
-0.339, 2.8763259e-7, 1.1222817e-6
-0.340, 3.0397496e-7, 1.1095342e-6
-0.341, 2.8867152e-7, 1.1539605e-6
-0.342, 2.8428494e-7, 1.1339901e-6
-0.343, 2.8659366e-7, 1.1621728e-6
-0.344, 2.5392541e-7, 1.1772950e-6
-0.345, 2.7833175e-7, 1.1590561e-6
-0.346, 2.6159358e-7, 1.1586438e-6
-0.347, 2.6593071e-7, 1.1091548e-6
-0.348, 2.6974007e-7, 1.1773444e-6
-0.349, 2.5204542e-7, 1.1460943e-6
-0.350, 2.6964108e-7, 1.1758602e-6
-0.351, 2.3647812e-7, 1.1708800e-6
-0.352, 2.5385941e-7, 1.1634921e-6
-0.353, 2.4680133e-7, 1.1715561e-6
-0.354, 2.4442670e-7, 1.1138384e-6
-0.355, 2.5199597e-7, 1.1731886e-6
-0.356, 2.2343387e-7, 1.1782349e-6
-0.357, 2.4663643e-7, 1.2014704e-6
-0.358, 2.2702886e-7, 1.1877664e-6
-0.359, 2.4475648e-7, 1.1662130e-6
-0.360, 2.4246430e-7, 1.1882778e-6
-0.361, 2.1520498e-7, 1.1226114e-6
-0.362, 2.4127692e-7, 1.1763384e-6
-0.363, 2.0585470e-7, 1.1734526e-6
-0.364, 2.2945301e-7, 1.2027732e-6
-0.365, 2.1929471e-7, 1.1966386e-6
-0.366, 2.1718388e-7, 1.1593199e-6
-0.367, 2.2427491e-7, 1.1640197e-6
-0.368, 2.0526102e-7, 1.1241946e-6
-0.369, 2.3520829e-7, 1.1656688e-6
-0.370, 2.0689360e-7, 1.1510909e-6
-0.371, 2.1914627e-7, 1.1738153e-6
-0.372, 2.1507307e-7, 1.2120576e-6
-0.373, 2.0601958e-7, 1.1528886e-6
-0.374, 2.2537981e-7, 1.1502334e-6
-0.375, 1.9102944e-7, 1.1138548e-6
-0.376, 2.2275776e-7, 1.1533338e-6
-0.377, 1.9635600e-7, 1.1528721e-6
-0.378, 2.1261592e-7, 1.1449894e-6
-0.379, 2.0785009e-7, 1.1567474e-6
-0.380, 1.8842391e-7, 1.1283336e-6
-0.381, 2.2191675e-7, 1.1281523e-6
-0.382, 1.9361850e-7, 1.0775256e-6
-0.383, 2.1057106e-7, 1.0976444e-6
-0.384, 1.9843380e-7, 1.1258106e-6
-0.385, 1.9812049e-7, 1.1126344e-6
-0.386, 2.1701895e-7, 1.1222321e-6
-0.387, 1.8689026e-7, 1.0696759e-6
-0.388, 2.1543583e-7, 1.0753157e-6
-0.389, 1.9328867e-7, 1.0273276e-6
-0.390, 2.0666273e-7, 1.0330168e-6
-0.391, 2.1205521e-7, 1.0595671e-6
-0.392, 1.8339423e-7, 1.0626674e-6
-0.393, 2.0735536e-7, 1.0676312e-6
-0.394, 1.8532364e-7, 1.0109851e-6
-0.395, 2.1218716e-7, 1.0112490e-6
-0.396, 1.9914290e-7, 9.7195141e-7
-0.397, 1.9421219e-7, 9.4477451e-7
-0.398, 2.0923528e-7, 9.8309908e-7
-0.399, 1.7866134e-7, 9.8059263e-7
-0.400, 2.0555784e-7, 1.0023440e-6
-0.401, 1.8783022e-7, 9.2483720e-7
-0.402, 2.0362845e-7, 9.2529893e-7
-0.403, 2.0323263e-7, 8.9836936e-7
-0.404, 1.8865481e-7, 8.6939508e-7
-0.405, 2.1151102e-7, 8.9940841e-7
-0.406, 1.8400438e-7, 8.9251517e-7
-0.407, 2.0659677e-7, 9.1899938e-7
-0.408, 1.9894506e-7, 8.5377837e-7
-0.409, 1.9798858e-7, 8.4099793e-7
-0.410, 2.0786658e-7, 8.0463576e-7
-0.411, 1.8669240e-7, 7.8489626e-7
-0.412, 2.1197278e-7, 8.1265023e-7
-0.413, 1.8210794e-7, 8.0567463e-7
-0.414, 2.0941670e-7, 8.1843859e-7
-0.415, 1.9586126e-7, 7.7630449e-7
-0.416, 1.9558090e-7, 7.4841853e-7
-0.417, 2.0516210e-7, 7.1448051e-7
-0.418, 1.8581837e-7, 6.9213547e-7
-0.419, 2.0255654e-7, 7.3116922e-7
-0.420, 1.9122733e-7, 7.2904191e-7
-0.421, 2.0252354e-7, 7.1748184e-7
-0.422, 2.1200574e-7, 7.0298643e-7
-0.423, 1.8270160e-7, 6.7002128e-7
-0.424, 2.1571617e-7, 6.1424942e-7
-0.425, 1.9027088e-7, 6.0273885e-7
-0.426, 2.0531049e-7, 6.4119536e-7
-0.427, 2.0597011e-7, 6.3418673e-7
-0.428, 1.9403078e-7, 6.4792363e-7
-0.429, 2.1639229e-7, 5.8530804e-7
-0.430, 1.8769830e-7, 5.7882721e-7
-0.431, 2.1205524e-7, 5.6258375e-7
-0.432, 1.9807104e-7, 5.4264638e-7
-0.433, 2.0672870e-7, 5.5024861e-7
-0.434, 2.0908688e-7, 5.7943737e-7
-0.435, 1.8754992e-7, 5.6965825e-7
-0.436, 2.1291277e-7, 5.5161735e-7
-0.437, 1.9218382e-7, 5.0555855e-7
-0.438, 2.0672869e-7, 4.8078937e-7
-0.439, 2.0674520e-7, 4.8130050e-7
-0.440, 2.0404070e-7, 4.9147536e-7
-0.441, 2.1563375e-7, 5.0227686e-7
-0.442, 1.9093049e-7, 5.1454606e-7
-0.443, 2.1680461e-7, 4.5964813e-7
-0.444, 2.0201233e-7, 4.5900498e-7
-0.445, 2.0730589e-7, 4.2318698e-7
-0.446, 2.1522146e-7, 4.3464803e-7
-0.447, 1.9134279e-7, 4.6672270e-7
-0.448, 2.1647477e-7, 4.5884011e-7
-0.449, 1.9027090e-7, 4.7564424e-7
-0.450, 2.1325907e-7, 4.4655445e-7
-0.451, 2.1314362e-7, 4.2696340e-7
-0.452, 2.0786656e-7, 3.7945338e-7
-0.453, 2.2475314e-7, 3.8029441e-7
-0.454, 1.9112841e-7, 4.3121798e-7
-0.455, 2.1794247e-7, 4.2483609e-7
-0.456, 2.0272142e-7, 4.4472395e-7
-0.457, 2.1611196e-7, 3.8606615e-7
-0.458, 2.2025117e-7, 4.0789999e-7
-0.459, 2.0191339e-7, 3.6819014e-7
-0.460, 2.2414298e-7, 3.6540325e-7
-0.461, 2.0164956e-7, 3.9719748e-7
-0.462, 2.2590748e-7, 4.0376082e-7
-0.463, 2.1203873e-7, 4.2195015e-7
-0.464, 2.1645829e-7, 3.8232281e-7
-0.465, 2.2697941e-7, 3.8415328e-7
-0.466, 2.0440352e-7, 3.4754365e-7
-0.467, 2.2991478e-7, 3.5768548e-7
-0.468, 2.0699255e-7, 3.7077925e-7
-0.469, 2.2460473e-7, 3.7455558e-7
-0.470, 2.2956843e-7, 4.2412694e-7
-0.471, 2.1454534e-7, 3.4211820e-7
-0.472, 2.3827562e-7, 3.5437083e-7
-0.473, 2.1210468e-7, 3.3674220e-7
-0.474, 2.2927161e-7, 3.3375738e-7
-0.475, 2.2341740e-7, 3.7005358e-7
-0.476, 2.2302160e-7, 3.6875088e-7
-0.477, 2.2856253e-7, 4.0851015e-7
-0.478, 2.0359546e-7, 3.7237882e-7
-0.479, 2.4185411e-7, 3.5151797e-7
-0.480, 2.2127361e-7, 3.1924546e-7
-0.481, 2.3448274e-7, 3.2081203e-7
-0.482, 2.3301506e-7, 3.6939394e-7
-0.483, 2.1810736e-7, 3.5900479e-7
-0.484, 2.4229936e-7, 3.9109585e-7
-0.485, 2.2097676e-7, 3.3078902e-7
-0.486, 2.3967732e-7, 3.6713470e-7
-0.487, 2.2773797e-7, 3.3359242e-7
-0.488, 2.3430133e-7, 3.1156071e-7
-0.489, 2.4325584e-7, 3.6690386e-7
-0.490, 2.2577561e-7, 3.6017565e-7
-0.491, 2.5338119e-7, 3.8952919e-7
-0.492, 2.3270171e-7, 3.5552515e-7
-0.493, 2.5072617e-7, 3.4340445e-7
-0.494, 2.4177166e-7, 3.1964126e-7
-0.495, 2.4767536e-7, 3.0961479e-7
-0.496, 2.4841745e-7, 3.5722377e-7
-0.497, 2.2625380e-7, 3.4948954e-7
-0.498, 2.5521166e-7, 3.9187094e-7
-0.499, 2.4302497e-7, 3.5066037e-7
-0.500, 2.5446960e-7, 3.3743484e-7
