Jan. 27, 2006   23:41:11
Square Wave Voltammetry
File: z:\users\scottsaunders\git\labwork\ida\01_17_19_psoralen_nonequil_2\data\control\1\75um_control_soak_1_swv_1.txt
Data Source:  Experiment
Instrument Model:  CHI760E
Header: 
Note: 

Init E (V) = 0.1
Final E (V) = -0.5
Incr E (V) = 0.001
Amplitude (V) = 0.025
Frequency (Hz) = 300
Quiet Time (sec) = 2
Sensitivity (A/V) = 1e-6
Sens 2 (A/V) = 1e-6

Potential/V, i1/A, i2/A

0.099, 1.2630309e-7, 1.3215728e-7
0.098, 1.4351946e-7, 1.3235518e-7
0.097, 1.4559728e-7, 1.1696927e-7
0.096, 1.4922529e-7, 1.0672848e-7
0.095, 1.3146467e-7, 1.3575229e-7
0.094, 1.5127013e-7, 1.4127671e-7
0.093, 1.3721997e-7, 1.5874048e-7
0.092, 1.4482222e-7, 1.2320280e-7
0.091, 1.5247396e-7, 1.3959465e-7
0.090, 1.3476284e-7, 1.2471995e-7
0.089, 1.5527741e-7, 8.9248232e-8
0.088, 1.2135581e-7, 1.2788617e-7
0.087, 1.4401419e-7, 1.2745741e-7
0.086, 1.3980903e-7, 1.4505311e-7
0.085, 1.3190993e-7, 1.2259262e-7
0.084, 1.5458478e-7, 1.3441652e-7
0.083, 1.2071268e-7, 1.2556097e-7
0.082, 1.4871407e-7, 1.0004969e-7
0.081, 1.2717709e-7, 1.3276745e-7
0.080, 1.4825231e-7, 1.1924499e-7
0.079, 1.4295875e-7, 1.7574247e-7
0.078, 1.3291586e-7, 1.3395480e-7
0.077, 1.5491459e-7, 1.1058732e-7
0.076, 1.2330173e-7, 1.1764538e-7
0.075, 1.3857220e-7, 9.7493626e-8
0.074, 1.3847327e-7, 1.3961113e-7
0.073, 1.3557089e-7, 1.1157677e-7
0.072, 1.4548186e-7, 1.4688359e-7
0.071, 1.2135581e-7, 1.3789609e-7
0.070, 1.4820284e-7, 1.1766187e-7
0.069, 1.3080505e-7, 1.1471001e-7
0.068, 1.3942973e-7, 8.4960625e-8
0.067, 1.4350296e-7, 1.4116127e-7
0.066, 1.2882616e-7, 1.2666587e-7
0.065, 1.4246405e-7, 1.3510915e-7
0.064, 1.1754643e-7, 1.3317973e-7
0.063, 1.3789609e-7, 1.1591385e-7
0.062, 1.3158011e-7, 1.1800819e-7
0.061, 1.2752336e-7, 7.7143966e-8
0.060, 1.4190336e-7, 1.3951220e-7
0.059, 1.1622718e-7, 1.2686374e-7
0.058, 1.3792908e-7, 1.4066656e-7
0.057, 1.2135582e-7, 1.5425496e-7
0.056, 1.3621403e-7, 1.1724961e-7
0.055, 1.3624702e-7, 1.2798512e-7
0.054, 1.3101942e-7, 7.3796350e-8
0.053, 1.3862169e-7, 1.2867773e-7
0.052, 1.1802467e-7, 1.2648445e-7
0.051, 1.3982552e-7, 1.3642840e-7
0.050, 1.2140529e-7, 1.3700559e-7
0.049, 1.3238815e-7, 1.0898772e-7
0.048, 1.3985849e-7, 1.2079514e-7
0.047, 1.1810712e-7, 7.8776566e-8
0.046, 1.4249703e-7, 9.9719884e-8
0.045, 1.1058731e-7, 1.2064672e-7
0.044, 1.3786311e-7, 1.3311377e-7
0.043, 1.3136574e-7, 1.5883941e-7
0.042, 1.2493433e-7, 1.0196264e-7
0.041, 1.4426153e-7, 1.1823906e-7
0.040, 1.1711768e-7, 7.8430269e-8
0.039, 1.4180442e-7, 9.4376858e-8
0.038, 1.1842045e-7, 1.1635910e-7
0.037, 1.2506625e-7, 1.2999701e-7
0.036, 1.3471336e-7, 1.6063690e-7
0.035, 1.2130634e-7, 1.1759590e-7
0.034, 1.4325560e-7, 1.1378654e-7
0.033, 1.1065328e-7, 6.9739599e-8
0.032, 1.3212431e-7, 8.8192820e-8
0.031, 1.2251017e-7, 1.2791915e-7
0.030, 1.2104250e-7, 1.0661303e-7
0.029, 1.3158011e-7, 1.6037305e-7
0.028, 1.1390198e-7, 1.0260577e-7
0.027, 1.3520810e-7, 1.2244421e-7
0.026, 1.1433073e-7, 9.2612353e-8
0.025, 1.4224966e-7, 7.9798994e-8
0.024, 1.2976612e-7, 1.3454846e-7
0.023, 1.1438020e-7, 1.1548509e-7
0.022, 1.3723646e-7, 1.2316980e-7
0.021, 1.0661304e-7, 1.2577534e-7
0.020, 1.3240465e-7, 1.1626016e-7
0.019, 1.2226280e-7, 1.1142836e-7
0.018, 1.2923842e-7, 8.5306922e-8
0.017, 1.3519160e-7, 1.3103592e-7
0.016, 1.1004312e-7, 1.1637560e-7
0.015, 1.3210783e-7, 1.3194290e-7
0.014, 1.0986172e-7, 1.1032348e-7
0.013, 1.3228922e-7, 9.9934269e-8
0.012, 1.3449899e-7, 1.0072582e-7
0.011, 1.1932745e-7, 7.8974452e-8
0.010, 1.3392180e-7, 1.2846336e-7
0.009, 1.0575552e-7, 1.1307743e-7
0.008, 1.2709461e-7, 1.3726944e-7
0.007, 1.1571596e-7, 1.2645147e-7
0.006, 1.2981559e-7, 8.6725130e-8
0.005, 1.3502670e-7, 1.1678787e-7
0.004, 1.0446923e-7, 7.6797669e-8
0.003, 1.3194291e-7, 1.0687688e-7
0.002, 1.1517177e-7, 1.0883929e-7
0.001, 1.2674832e-7, 1.3360848e-7
-0.000, 1.1972323e-7, 1.4025427e-7
-0.001, 1.2719356e-7, 8.7302311e-8
-0.002, 1.2877669e-7, 1.1101609e-7
-0.003, 1.0646463e-7, 7.7688171e-8
-0.004, 1.3044223e-7, 1.0699232e-7
-0.005, 1.1767835e-7, 1.1134590e-7
-0.006, 1.2765530e-7, 1.2889211e-7
-0.007, 1.3199237e-7, 1.5684401e-7
-0.008, 1.1259920e-7, 1.1972323e-7
-0.009, 1.3520810e-7, 1.0870738e-7
-0.010, 1.0385908e-7, 8.0079339e-8
-0.011, 1.2884264e-7, 1.0265524e-7
-0.012, 1.2148774e-7, 1.2811704e-7
-0.013, 1.2404382e-7, 1.0044548e-7
-0.014, 1.3440004e-7, 1.5013227e-7
-0.015, 1.0961436e-7, 1.1413284e-7
-0.016, 1.3660980e-7, 1.1390197e-7
-0.017, 1.1276410e-7, 1.0418889e-7
-0.018, 1.2742443e-7, 7.7061515e-8
-0.019, 1.2533010e-7, 1.2852931e-7
-0.020, 1.0920210e-7, 1.1217044e-7
-0.021, 1.3034330e-7, 1.2255964e-7
-0.022, 1.0658005e-7, 1.0996067e-7
-0.023, 1.2815002e-7, 1.0343032e-7
-0.024, 1.2211439e-7, 1.1320936e-7
-0.025, 1.1444617e-7, 7.0762034e-8
-0.026, 1.3100295e-7, 1.3928133e-7
-0.027, 1.0212754e-7, 1.2026743e-7
-0.028, 1.2579184e-7, 1.2627008e-7
-0.029, 1.0384259e-7, 1.0478256e-7
-0.030, 1.2871071e-7, 1.0339733e-7
-0.031, 1.2795213e-7, 1.2204842e-7
-0.032, 1.1482545e-7, 7.3070744e-8
-0.033, 1.3482878e-7, 9.9868295e-8
-0.034, 1.0070933e-7, 1.0989471e-7
-0.035, 1.2485187e-7, 1.3880309e-7
-0.036, 1.1865134e-7, 1.4841721e-7
-0.037, 1.1861835e-7, 9.6124886e-8
-0.038, 1.4020479e-7, 1.1348970e-7
-0.039, 1.1172519e-7, 6.8552268e-8
-0.040, 1.2821599e-7, 8.1514038e-8
-0.041, 1.1563351e-7, 1.1665594e-7
-0.042, 1.2549501e-7, 1.2379645e-7
-0.043, 1.1916253e-7, 1.4628991e-7
-0.044, 1.1467704e-7, 1.2221334e-7
-0.045, 1.2826547e-7, 1.0202859e-7
-0.046, 1.0432082e-7, 7.7242923e-8
-0.047, 1.2453854e-7, 8.1316152e-8
-0.048, 1.1180764e-7, 1.1688680e-7
-0.049, 1.1663944e-7, 9.4904571e-8
-0.050, 1.2791915e-7, 1.2727601e-7
-0.051, 1.0506290e-7, 1.1675488e-7
-0.052, 1.3205836e-7, 1.0534325e-7
-0.053, 1.1180764e-7, 9.1853771e-8
-0.054, 1.2013550e-7, 8.1942794e-8
-0.055, 1.2034988e-7, 1.3440004e-7
-0.056, 1.1830502e-7, 1.0399100e-7
-0.057, 1.2745741e-7, 1.1601280e-7
-0.058, 1.0516185e-7, 1.2097652e-7
-0.059, 1.2849634e-7, 1.1319287e-7
-0.060, 1.1419881e-7, 1.0791581e-7
-0.061, 1.1673839e-7, 6.5270598e-8
-0.062, 1.2737496e-7, 1.1505633e-7
-0.063, 1.0822914e-7, 1.1480897e-7
-0.064, 1.2976612e-7, 1.3350953e-7
-0.065, 1.0679443e-7, 1.3126679e-7
-0.066, 1.2302138e-7, 9.2991634e-8
-0.067, 1.2127336e-7, 1.0935052e-7
-0.068, 1.1576544e-7, 5.6002769e-8
-0.069, 1.3189344e-7, 8.6477769e-8
-0.070, 1.0072582e-7, 1.1898114e-7
-0.071, 1.2973314e-7, 1.2810055e-7
-0.072, 1.1167571e-7, 1.3832485e-7
-0.073, 1.2514870e-7, 1.0730565e-7
-0.074, 1.3456494e-7, 1.1350620e-7
-0.075, 1.1156028e-7, 1.0728916e-7
-0.076, 1.3214080e-7, 7.7440809e-8
-0.077, 1.0239139e-7, 1.1418232e-7
-0.078, 1.2015198e-7, 1.1340725e-7
-0.079, 1.1375356e-7, 1.5212765e-7
-0.080, 1.2128986e-7, 1.0735513e-7
-0.081, 1.2595675e-7, 1.1726610e-7
-0.082, 1.0069284e-7, 1.1499036e-7
-0.083, 1.2498379e-7, 6.8222448e-8
-0.084, 1.0829510e-7, 1.1156028e-7
-0.085, 1.2935385e-7, 1.0526080e-7
-0.086, 1.2734198e-7, 1.3448249e-7
-0.087, 1.0997716e-7, 1.3764873e-7
-0.088, 1.3486178e-7, 8.9825399e-8
-0.089, 1.0260577e-7, 1.0376012e-7
-0.090, 1.2345015e-7, 9.0732392e-8
-0.091, 1.1286306e-7, 1.0682741e-7
-0.092, 1.1673838e-7, 1.0600287e-7
-0.093, 1.3045873e-7, 1.3469688e-7
-0.094, 1.0555762e-7, 1.4274438e-7
-0.095, 1.2460450e-7, 1.2124038e-7
-0.096, 1.1390197e-7, 1.0268823e-7
-0.097, 1.2335120e-7, 7.9106378e-8
-0.098, 1.2937033e-7, 9.3997578e-8
-0.099, 1.2015198e-7, 1.1174168e-7
-0.100, 1.2554447e-7, 1.1541913e-7
-0.101, 1.1014207e-7, 1.2264209e-7
-0.102, 1.2440661e-7, 1.1754645e-7
-0.103, 1.1477599e-7, 9.6899953e-8
-0.104, 1.2688024e-7, 8.6065498e-8
-0.105, 1.3006296e-7, 8.1250185e-8
-0.106, 1.1233534e-7, 1.2554449e-7
-0.107, 1.2425819e-7, 1.1187360e-7
-0.108, 1.0684391e-7, 1.1932744e-7
-0.109, 1.2471995e-7, 1.2425821e-7
-0.110, 1.1729908e-7, 1.2287298e-7
-0.111, 1.2222982e-7, 1.0343031e-7
-0.112, 1.2955175e-7, 7.9139362e-8
-0.113, 1.1058732e-7, 9.6669083e-8
-0.114, 1.3116784e-7, 1.2861177e-7
-0.115, 1.2234527e-7, 1.2594026e-7
-0.116, 1.2655042e-7, 1.4561380e-7
-0.117, 1.3293236e-7, 1.3491126e-7
-0.118, 1.1068627e-7, 1.1743101e-7
-0.119, 1.4091391e-7, 7.9683559e-8
-0.120, 1.0697584e-7, 9.1408516e-8
-0.121, 1.2493433e-7, 1.2983209e-7
-0.122, 1.2305436e-7, 1.2569289e-7
-0.123, 1.2402734e-7, 1.4366788e-7
-0.124, 1.3718699e-7, 1.3019488e-7
-0.125, 1.2039935e-7, 1.1283007e-7
-0.126, 1.4523449e-7, 1.2122389e-7
-0.127, 1.2427469e-7, 7.6979063e-8
-0.128, 1.3629648e-7, 1.2127336e-7
-0.129, 1.2801810e-7, 1.3428460e-7
-0.130, 1.2059724e-7, 1.4534993e-7
-0.131, 1.3975955e-7, 1.3156364e-7
-0.132, 1.1757942e-7, 1.0301805e-7
-0.133, 1.3543897e-7, 1.2856229e-7
-0.134, 1.3253658e-7, 9.4195464e-8
-0.135, 1.3430109e-7, 1.1456161e-7
-0.136, 1.4696603e-7, 1.4371736e-7
-0.137, 1.1611174e-7, 1.4220019e-7
-0.138, 1.4681761e-7, 1.5722331e-7
-0.139, 1.2826546e-7, 1.0252332e-7
-0.140, 1.5239151e-7, 1.2696269e-7
-0.141, 1.5127013e-7, 1.0249034e-7
-0.142, 1.3768171e-7, 9.8219218e-8
-0.143, 1.5458478e-7, 1.1502335e-7
-0.144, 1.2501678e-7, 1.5105574e-7
-0.145, 1.4871407e-7, 1.7862837e-7
-0.146, 1.4060059e-7, 1.4427803e-7
-0.147, 1.5062699e-7, 1.2203193e-7
-0.148, 1.5814679e-7, 1.3877010e-7
-0.149, 1.3456494e-7, 1.0326541e-7
-0.150, 1.5982886e-7, 1.5244098e-7
-0.151, 1.3835783e-7, 1.4152407e-7
-0.152, 1.5537634e-7, 1.5542582e-7
-0.153, 1.6818970e-7, 1.6137899e-7
-0.154, 1.5634930e-7, 1.3778066e-7
-0.155, 1.6502347e-7, 1.4276088e-7
-0.156, 1.4993438e-7, 1.1385250e-7
-0.157, 1.7457162e-7, 1.6814022e-7
-0.158, 1.5593703e-7, 1.5854258e-7
-0.159, 1.7435724e-7, 1.6316001e-7
-0.160, 1.8334475e-7, 2.0689362e-7
-0.161, 1.6264877e-7, 1.5087434e-7
-0.162, 1.9246416e-7, 1.6207160e-7
-0.163, 1.7211451e-7, 1.3415269e-7
-0.164, 1.8850636e-7, 1.6597993e-7
-0.165, 1.8375701e-7, 1.9835139e-7
-0.166, 1.8858881e-7, 1.6434734e-7
-0.167, 2.0648133e-7, 2.1076895e-7
-0.168, 1.8997406e-7, 1.9502022e-7
-0.169, 2.2117464e-7, 1.9556443e-7
-0.170, 2.1174191e-7, 1.8370754e-7
-0.171, 2.1532040e-7, 1.6586449e-7
-0.172, 2.2485210e-7, 2.3181121e-7
-0.173, 2.1383624e-7, 2.0964757e-7
-0.174, 2.4549860e-7, 2.3505991e-7
-0.175, 2.1883295e-7, 2.2686396e-7
-0.176, 2.4551508e-7, 2.1705195e-7
-0.177, 2.4600979e-7, 2.3708827e-7
-0.178, 2.5361206e-7, 1.8867128e-7
-0.179, 2.8581860e-7, 2.5671233e-7
-0.180, 2.6472685e-7, 2.5481589e-7
-0.181, 2.9318997e-7, 2.8095380e-7
-0.182, 2.8346039e-7, 2.8435090e-7
-0.183, 3.0090766e-7, 2.5448605e-7
-0.184, 3.2506671e-7, 3.0405744e-7
-0.185, 3.0982920e-7, 2.5273806e-7
-0.186, 3.4282729e-7, 2.7905736e-7
-0.187, 3.2110890e-7, 3.0806467e-7
-0.188, 3.5996123e-7, 3.4037015e-7
-0.189, 3.6477655e-7, 3.8275152e-7
-0.190, 3.7998109e-7, 3.2965113e-7
-0.191, 4.0818037e-7, 3.7640257e-7
-0.192, 3.9352000e-7, 3.5712483e-7
-0.193, 4.3901815e-7, 3.5880686e-7
-0.194, 4.4225035e-7, 4.1363876e-7
-0.195, 4.6729986e-7, 4.2678198e-7
-0.196, 4.9480650e-7, 4.7500109e-7
-0.197, 4.9312445e-7, 4.7064748e-7
-0.198, 5.3712193e-7, 4.6741530e-7
-0.199, 5.3412060e-7, 5.0465155e-7
-0.200, 5.7608969e-7, 4.9657103e-7
-0.201, 5.9065110e-7, 5.5036406e-7
-0.202, 6.1530483e-7, 5.7074669e-7
-0.203, 6.5280494e-7, 6.1184176e-7
-0.204, 6.5567428e-7, 6.3417031e-7
-0.205, 7.1329316e-7, 6.4188799e-7
-0.206, 7.2798650e-7, 6.7445734e-7
-0.207, 7.6090214e-7, 6.6677262e-7
-0.208, 8.0526235e-7, 7.1594820e-7
-0.209, 8.2152235e-7, 7.5273920e-7
-0.210, 8.6647617e-7, 8.1202359e-7
-0.211, 8.7907517e-7, 8.6306267e-7
-0.212, 9.3877190e-7, 8.8100461e-7
-0.213, 9.6721863e-7, 9.0489982e-7
-0.214, 1.0115128e-6, 9.1265042e-7
-0.215, 1.0625024e-6, 9.6575081e-7
-0.216, 1.0861172e-6, 1.0260907e-6
-0.217, 1.1446596e-6, 1.0545704e-6
-0.218, 1.1801149e-6, 1.1386239e-6
-0.219, 1.2345674e-6, 1.1534327e-6
-0.220, 1.2833143e-6, 1.2014209e-6
-0.221, 1.3362662e-6, 1.2295873e-6
-0.222, 1.3893500e-6, 1.2510912e-6
-0.223, 1.4224141e-6, 1.3602108e-6
-0.224, 1.4937699e-6, 1.4030704e-6
-0.225, 1.5381302e-6, 1.4664116e-6
-0.226, 1.5910325e-6, 1.5101123e-6
-0.227, 1.6548356e-6, 1.5615636e-6
-0.228, 1.6922038e-6, 1.6047695e-6
-0.229, 1.7732231e-6, 1.6184733e-6
-0.230, 1.8118609e-6, 1.7089584e-6
-0.231, 1.8781044e-6, 1.7742619e-6
-0.232, 1.9443316e-6, 1.8560067e-6
-0.233, 1.9955191e-6, 1.9129991e-6
-0.234, 2.0725311e-6, 1.9645327e-6
-0.235, 2.1089099e-6, 2.0030225e-6
-0.236, 2.1976468e-6, 2.0263237e-6
-0.237, 2.2422873e-6, 2.0829862e-6
-0.238, 2.3023140e-6, 2.1741639e-6
-0.239, 2.3688544e-6, 2.2486693e-6
-0.240, 2.4168755e-6, 2.3071620e-6
-0.241, 2.4976143e-6, 2.3586299e-6
-0.242, 2.5365327e-6, 2.4011597e-6
-0.243, 2.6045243e-6, 2.4601968e-6
-0.244, 2.6666453e-6, 2.5015063e-6
-0.245, 2.7170904e-6, 2.5739339e-6
-0.246, 2.7866490e-6, 2.6464604e-6
-0.247, 2.8124075e-6, 2.7209826e-6
-0.248, 2.8946636e-6, 2.7656065e-6
-0.249, 2.9316195e-6, 2.7850988e-6
-0.250, 3.0023980e-6, 2.8315862e-6
-0.251, 3.0487206e-6, 2.8628692e-6
-0.252, 3.0866331e-6, 2.9351813e-6
-0.253, 3.1425698e-6, 2.9758971e-6
-0.254, 3.1657228e-6, 3.0402607e-6
-0.255, 3.2237376e-6, 3.1297895e-6
-0.256, 3.2666135e-6, 3.1378536e-6
-0.257, 3.2984080e-6, 3.1371112e-6
-0.258, 3.3463300e-6, 3.1513757e-6
-0.259, 3.3603142e-6, 3.1773325e-6
-0.260, 3.4099353e-6, 3.2406570e-6
-0.261, 3.4142226e-6, 3.2749085e-6
-0.262, 3.4460172e-6, 3.3066697e-6
-0.263, 3.4665811e-6, 3.3493316e-6
-0.264, 3.4838467e-6, 3.3390247e-6
-0.265, 3.5061259e-6, 3.3356275e-6
-0.266, 3.4981281e-6, 3.3267720e-6
-0.267, 3.5177354e-6, 3.3746448e-6
-0.268, 3.5132664e-6, 3.3860895e-6
-0.269, 3.5150310e-6, 3.3854135e-6
-0.270, 3.5163007e-6, 3.3946317e-6
-0.271, 3.4947968e-6, 3.3728475e-6
-0.272, 3.5077587e-6, 3.3606439e-6
-0.273, 3.4794934e-6, 3.3121446e-6
-0.274, 3.4733587e-6, 3.3317690e-6
-0.275, 3.4546747e-6, 3.3420097e-6
-0.276, 3.4363206e-6, 3.3001229e-6
-0.277, 3.4127879e-6, 3.2990015e-6
-0.278, 3.3711490e-6, 3.2393873e-6
-0.279, 3.3547572e-6, 3.2210164e-6
-0.280, 3.3112708e-6, 3.1652282e-6
-0.281, 3.2744301e-6, 3.1112868e-6
-0.282, 3.2328073e-6, 3.1140407e-6
-0.283, 3.1839616e-6, 3.0732588e-6
-0.284, 3.1563395e-6, 3.0645849e-6
-0.285, 3.0889419e-6, 2.9987534e-6
-0.286, 3.0559765e-6, 2.9359235e-6
-0.287, 3.0045087e-6, 2.8920911e-6
-0.288, 2.9448615e-6, 2.7859069e-6
-0.289, 2.9009632e-6, 2.7832682e-6
-0.290, 2.8229781e-6, 2.7270180e-6
-0.291, 2.7939707e-6, 2.6885450e-6
-0.292, 2.7131987e-6, 2.6342573e-6
-0.293, 2.6685088e-6, 2.5530894e-6
-0.294, 2.6151938e-6, 2.5126376e-6
-0.295, 2.5337129e-6, 2.3979605e-6
-0.296, 2.4907213e-6, 2.3679308e-6
-0.297, 2.4049525e-6, 2.3143357e-6
-0.298, 2.3518028e-6, 2.2836628e-6
-0.299, 2.2885770e-6, 2.2367135e-6
-0.300, 2.2305790e-6, 2.1474323e-6
-0.301, 2.1791936e-6, 2.0738503e-6
-0.302, 2.0916932e-6, 2.0041603e-6
-0.303, 2.0475145e-6, 1.9350473e-6
-0.304, 1.9834808e-6, 1.8867786e-6
-0.305, 1.9304957e-6, 1.8255978e-6
-0.306, 1.8646316e-6, 1.8317489e-6
-0.307, 1.8018840e-6, 1.7423193e-6
-0.308, 1.7652910e-6, 1.6422696e-6
-0.309, 1.6842387e-6, 1.6138723e-6
-0.310, 1.6437208e-6, 1.5314349e-6
-0.311, 1.5803300e-6, 1.5155377e-6
-0.312, 1.5209797e-6, 1.4473318e-6
-0.313, 1.4916590e-6, 1.4215236e-6
-0.314, 1.4249538e-6, 1.3983705e-6
-0.315, 1.3866126e-6, 1.3086770e-6
-0.316, 1.3330999e-6, 1.2549996e-6
-0.317, 1.2902238e-6, 1.1724630e-6
-0.318, 1.2484857e-6, 1.1737329e-6
-0.319, 1.1997882e-6, 1.1365792e-6
-0.320, 1.1648278e-6, 1.0973640e-6
-0.321, 1.1077861e-6, 1.0946594e-6
-0.322, 1.0856390e-6, 1.0343031e-6
-0.323, 1.0409819e-6, 9.8746932e-7
-0.324, 1.0074890e-6, 9.2736019e-7
-0.325, 9.8001544e-7, 8.8201057e-7
-0.326, 9.2937228e-7, 8.8524268e-7
-0.327, 9.1049014e-7, 8.4818794e-7
-0.328, 8.6199077e-7, 8.3392331e-7
-0.329, 8.4599469e-7, 8.0329994e-7
-0.330, 8.2437521e-7, 7.6141328e-7
-0.331, 7.8614954e-7, 7.3807882e-7
-0.332, 7.7844822e-7, 6.6886690e-7
-0.333, 7.2615603e-7, 7.0649901e-7
-0.334, 7.1792715e-7, 6.8078970e-7
-0.335, 6.8639662e-7, 6.6355699e-7
-0.336, 6.7310509e-7, 6.6678905e-7
-0.337, 6.5621862e-7, 6.2615572e-7
-0.338, 6.2180231e-7, 5.8372484e-7
-0.339, 6.2828315e-7, 5.6591489e-7
-0.340, 5.7823348e-7, 5.2183503e-7
-0.341, 5.7950325e-7, 5.4573013e-7
-0.342, 5.5587191e-7, 5.2234617e-7
-0.343, 5.5079278e-7, 5.1977361e-7
-0.344, 5.4286073e-7, 5.0382698e-7
-0.345, 5.0608617e-7, 4.7923925e-7
-0.346, 5.2229672e-7, 4.7254395e-7
-0.347, 4.8552221e-7, 4.1316059e-7
-0.348, 4.8581904e-7, 4.4363557e-7
-0.349, 4.7178537e-7, 4.5062765e-7
-0.350, 4.5052872e-7, 4.3555511e-7
-0.351, 4.5743838e-7, 4.5338163e-7
-0.352, 4.1637625e-7, 3.8276801e-7
-0.353, 4.3768239e-7, 3.9490527e-7
-0.354, 4.1899827e-7, 3.7458864e-7
-0.355, 4.0720738e-7, 3.2983252e-7
-0.356, 4.1250098e-7, 3.9304177e-7
-0.357, 3.7536361e-7, 3.6591445e-7
-0.358, 3.9551540e-7, 3.6964133e-7
-0.359, 3.6421582e-7, 3.5801531e-7
-0.360, 3.8565392e-7, 3.2841433e-7
-0.361, 3.6708525e-7, 3.5377721e-7
-0.362, 3.5397505e-7, 2.8520839e-7
-0.363, 3.7392897e-7, 3.2795265e-7
-0.364, 3.3240511e-7, 3.2547894e-7
-0.365, 3.5138606e-7, 3.4896181e-7
-0.366, 3.3057461e-7, 3.4785702e-7
-0.367, 3.3252050e-7, 2.9622430e-7
-0.368, 3.4779106e-7, 3.1352312e-7
-0.369, 3.1749738e-7, 2.4902761e-7
-0.370, 3.2935429e-7, 2.7204874e-7
-0.371, 3.1208845e-7, 2.9419598e-7
-0.372, 3.1541958e-7, 2.8934764e-7
-0.373, 3.1388592e-7, 3.1177515e-7
-0.374, 3.0471705e-7, 2.9096373e-7
-0.375, 3.1286351e-7, 2.7158700e-7
-0.376, 2.9912667e-7, 2.8003032e-7
-0.377, 3.1231932e-7, 2.5221038e-7
-0.378, 2.9488854e-7, 2.8433445e-7
-0.379, 2.9065038e-7, 2.6485878e-7
-0.380, 2.9886283e-7, 2.8634628e-7
-0.381, 2.7170245e-7, 2.8146499e-7
-0.382, 2.9439377e-7, 2.5527763e-7
-0.383, 2.7257650e-7, 2.5977960e-7
-0.384, 2.8751717e-7, 2.1837121e-7
-0.385, 2.8303165e-7, 2.3712124e-7
-0.386, 2.7566023e-7, 2.5311732e-7
-0.387, 2.8811081e-7, 2.5319977e-7
-0.388, 2.6147814e-7, 2.9081534e-7
-0.389, 2.8116818e-7, 2.5603623e-7
-0.390, 2.7904088e-7, 2.4399790e-7
-0.391, 2.8299863e-7, 2.2869443e-7
-0.392, 2.7259296e-7, 2.3453219e-7
-0.393, 2.6477630e-7, 2.5667930e-7
-0.394, 2.8012923e-7, 2.5836144e-7
-0.395, 2.5311735e-7, 2.5720706e-7
-0.396, 2.7058104e-7, 2.6401776e-7
-0.397, 2.6505666e-7, 2.3954536e-7
-0.398, 2.6337460e-7, 2.4817012e-7
-0.399, 2.7117477e-7, 2.1037314e-7
-0.400, 2.4726307e-7, 2.2925514e-7
-0.401, 2.7620447e-7, 2.5549201e-7
-0.402, 2.5750384e-7, 2.5156720e-7
-0.403, 2.7003691e-7, 2.7218067e-7
-0.404, 2.7150458e-7, 2.6395179e-7
-0.405, 2.5377696e-7, 2.4022154e-7
-0.406, 2.7490165e-7, 1.9910996e-7
-0.407, 2.4760939e-7, 2.0341406e-7
-0.408, 2.6073602e-7, 2.6068659e-7
-0.409, 2.5973006e-7, 2.4747746e-7
-0.410, 2.5987856e-7, 2.3990816e-7
-0.411, 2.6639245e-7, 2.6068662e-7
-0.412, 2.4130992e-7, 2.3891872e-7
-0.413, 2.6723345e-7, 2.4053483e-7
-0.414, 2.4538315e-7, 1.9036980e-7
-0.415, 2.7204877e-7, 2.3967732e-7
-0.416, 2.6851973e-7, 2.4035347e-7
-0.417, 2.4983564e-7, 2.5440360e-7
-0.418, 2.6123078e-7, 2.5377699e-7
-0.419, 2.3698928e-7, 2.2312054e-7
-0.420, 2.6182445e-7, 2.5555798e-7
-0.421, 2.5087459e-7, 2.0102291e-7
-0.422, 2.5042931e-7, 2.0070956e-7
-0.423, 2.6574921e-7, 2.4572944e-7
-0.424, 2.4048538e-7, 2.2620435e-7
-0.425, 2.6152767e-7, 2.6619452e-7
-0.426, 2.4624066e-7, 2.4130995e-7
-0.427, 2.5940037e-7, 2.2819970e-7
-0.428, 2.5971363e-7, 2.3974334e-7
-0.429, 2.5648143e-7, 1.9619105e-7
-0.430, 2.6731590e-7, 2.4257969e-7
-0.431, 2.3787985e-7, 2.3628021e-7
-0.432, 2.6025788e-7, 2.6269851e-7
-0.433, 2.4760939e-7, 2.5069320e-7
-0.434, 2.6241810e-7, 2.0956514e-7
-0.435, 2.6365493e-7, 2.4648804e-7
-0.436, 2.3270169e-7, 2.0250701e-7
-0.437, 2.6720045e-7, 2.2803479e-7
-0.438, 2.4215095e-7, 2.2831517e-7
-0.439, 2.5227632e-7, 2.5265552e-7
-0.440, 2.5153417e-7, 2.8189379e-7
-0.441, 2.5445303e-7, 2.4188705e-7
-0.442, 2.6878365e-7, 2.3509284e-7
-0.443, 2.4096360e-7, 1.9805455e-7
-0.444, 2.6174200e-7, 2.2089426e-7
-0.445, 2.5451899e-7, 2.4300846e-7
-0.446, 2.6025779e-7, 2.3494445e-7
-0.447, 2.6222025e-7, 2.9884629e-7
-0.448, 2.4912651e-7, 2.4249726e-7
-0.449, 2.7574274e-7, 2.4922554e-7
-0.450, 2.4538315e-7, 2.3530728e-7
-0.451, 2.5669587e-7, 2.0212778e-7
-0.452, 2.5473341e-7, 2.6294580e-7
-0.453, 2.5875715e-7, 2.1965749e-7
-0.454, 2.6754674e-7, 2.9066689e-7
-0.455, 2.4389897e-7, 2.5827893e-7
-0.456, 2.7475326e-7, 2.4084818e-7
-0.457, 2.5056127e-7, 2.3801181e-7
-0.458, 2.7262595e-7, 1.9694963e-7
-0.459, 2.7236206e-7, 2.6380337e-7
-0.460, 2.4820312e-7, 2.3420239e-7
-0.461, 2.7013581e-7, 2.5453551e-7
-0.462, 2.4277759e-7, 2.7473678e-7
-0.463, 2.6929476e-7, 2.3911664e-7
-0.464, 2.5923543e-7, 2.4821955e-7
-0.465, 2.5733900e-7, 1.9340416e-7
-0.466, 2.7208176e-7, 2.1988834e-7
-0.467, 2.4441024e-7, 2.5542602e-7
-0.468, 2.7162005e-7, 2.5400783e-7
-0.469, 2.6165958e-7, 2.7297222e-7
-0.470, 2.6822289e-7, 2.4835148e-7
-0.471, 2.7559426e-7, 2.4718062e-7
-0.472, 2.5994450e-7, 2.0789949e-7
-0.473, 2.7852965e-7, 1.9958819e-7
-0.474, 2.4849987e-7, 2.5537656e-7
-0.475, 2.7003691e-7, 2.5519523e-7
-0.476, 2.5859231e-7, 2.7910684e-7
-0.477, 2.7186735e-7, 2.5011596e-7
-0.478, 2.8283378e-7, 2.4973673e-7
-0.479, 2.6319324e-7, 2.1909679e-7
-0.480, 2.7876052e-7, 2.1639232e-7
-0.481, 2.6832186e-7, 2.6283038e-7
-0.482, 2.7148806e-7, 2.5423873e-7
-0.483, 2.7752375e-7, 2.7925526e-7
-0.484, 2.7064706e-7, 2.6631000e-7
-0.485, 2.7432449e-7, 2.3382307e-7
-0.486, 2.6179151e-7, 2.5728949e-7
-0.487, 2.8347694e-7, 2.1906382e-7
-0.488, 2.6891550e-7, 2.6749728e-7
-0.489, 2.7252699e-7, 2.4251375e-7
-0.490, 2.8176186e-7, 2.8294912e-7
-0.491, 2.5677826e-7, 2.7481920e-7
-0.492, 2.8987529e-7, 2.5376045e-7
-0.493, 2.6842073e-7, 2.6769521e-7
-0.494, 2.8159693e-7, 2.2345043e-7
-0.495, 2.8750063e-7, 2.8200924e-7
-0.496, 2.7958507e-7, 2.5944976e-7
-0.497, 2.9205214e-7, 2.8159693e-7
-0.498, 2.7265898e-7, 2.9772491e-7
-0.499, 2.9182121e-7, 2.6990497e-7
-0.500, 2.8148153e-7, 2.5994450e-7
