Jan. 28, 2006   00:23:31
Square Wave Voltammetry
File: z:\users\scottsaunders\git\labwork\ida\01_17_19_psoralen_nonequil_2\data\control\1\75um_control_transfer_1_swv_12.txt
Data Source:  Experiment
Instrument Model:  CHI760E
Header: 
Note: 

Init E (V) = 0.1
Final E (V) = -0.5
Incr E (V) = 0.001
Amplitude (V) = 0.025
Frequency (Hz) = 300
Quiet Time (sec) = 2
Sensitivity (A/V) = 1e-6
Sens 2 (A/V) = 1e-6

Potential/V, i1/A, i2/A

0.099, 1.0161632e-7, 9.4954032e-8
0.098, 1.3651088e-7, 1.0062688e-7
0.097, 1.4325560e-7, 8.0491610e-8
0.096, 1.3057418e-7, 1.1472652e-7
0.095, 1.4727935e-7, 1.0526080e-7
0.094, 1.2241124e-7, 1.1180764e-7
0.093, 1.4620746e-7, 1.3190993e-7
0.092, 1.4165599e-7, 1.0268823e-7
0.091, 1.3774768e-7, 8.9726463e-8
0.090, 1.3977603e-7, 7.0926944e-8
0.089, 1.2056425e-7, 8.0524586e-8
0.088, 1.3905044e-7, 1.2287298e-7
0.087, 1.2089407e-7, 1.0354574e-7
0.086, 1.3326218e-7, 1.1792573e-7
0.085, 1.3748382e-7, 1.1682084e-7
0.084, 1.2234527e-7, 1.0470010e-7
0.083, 1.5578861e-7, 9.3469865e-8
0.082, 1.1898113e-7, 7.7770629e-8
0.081, 1.4366788e-7, 1.1818958e-7
0.080, 1.3182746e-7, 1.1421530e-7
0.079, 1.3110188e-7, 1.1987164e-7
0.078, 1.4101285e-7, 1.4464084e-7
0.077, 1.1983866e-7, 1.0153386e-7
0.076, 1.4078198e-7, 1.2104249e-7
0.075, 1.2575887e-7, 8.0821422e-8
0.074, 1.3555440e-7, 9.5894016e-8
0.073, 1.3975955e-7, 1.2262561e-7
0.072, 1.2241122e-7, 9.7295739e-8
0.071, 1.4134268e-7, 1.3413619e-7
0.070, 1.1787625e-7, 1.1325884e-7
0.069, 1.4137565e-7, 1.0946595e-7
0.068, 1.2742443e-7, 1.1027399e-7
0.067, 1.2704514e-7, 6.5320066e-8
0.066, 1.4647131e-7, 1.1969024e-7
0.065, 1.1348970e-7, 1.1182412e-7
0.064, 1.4323911e-7, 1.3611508e-7
0.063, 1.2148774e-7, 1.2889211e-7
0.062, 1.3789609e-7, 1.0534325e-7
0.061, 1.3428460e-7, 1.1236833e-7
0.060, 1.2419224e-7, 7.0976412e-8
0.059, 1.4327209e-7, 7.0300288e-8
0.058, 1.1593035e-7, 1.0564008e-7
0.057, 1.2932088e-7, 1.2265859e-7
0.056, 1.2777073e-7, 1.3890202e-7
0.055, 1.3250360e-7, 1.0621726e-7
0.054, 1.3811048e-7, 9.5168417e-8
0.053, 1.1111503e-7, 9.1375540e-8
0.052, 1.3660980e-7, 7.3021276e-8
0.051, 1.1353918e-7, 1.0333137e-7
0.050, 1.3370743e-7, 1.0590394e-7
0.049, 1.2534659e-7, 1.2524765e-7
0.048, 1.2105899e-7, 1.0755301e-7
0.047, 1.3477933e-7, 8.8572094e-8
0.046, 1.1259920e-7, 9.3535832e-8
0.045, 1.3802801e-7, 7.2707948e-8
0.044, 1.1634261e-7, 9.8004840e-8
0.043, 1.1997058e-7, 9.9472523e-8
0.042, 1.3311376e-7, 1.3182748e-7
0.041, 1.0662953e-7, 1.4272788e-7
0.040, 1.4003989e-7, 1.0918561e-7
0.039, 1.0748705e-7, 9.7394675e-8
0.038, 1.3309727e-7, 1.0885579e-7
0.037, 1.2531360e-7, 8.4878160e-8
0.036, 1.2504975e-7, 1.1062031e-7
0.035, 1.3712102e-7, 1.1226938e-7
0.034, 1.0892175e-7, 1.4094690e-7
0.033, 1.2900756e-7, 1.0796528e-7
0.032, 1.1683733e-7, 9.3585300e-8
0.031, 1.2635252e-7, 1.0519483e-7
0.030, 1.3072260e-7, 8.1876834e-8
0.029, 1.1019155e-7, 1.0875684e-7
0.028, 1.3492775e-7, 1.0517834e-7
0.027, 1.0596990e-7, 1.2010251e-7
0.026, 1.3284991e-7, 1.3461442e-7
0.025, 1.3026086e-7, 9.6619608e-8
0.024, 1.2203193e-7, 1.0501343e-7
0.023, 1.3441652e-7, 7.6253471e-8
0.022, 1.0728916e-7, 7.5329986e-8
0.021, 1.2592378e-7, 1.1548509e-7
0.020, 1.1586438e-7, 1.1607875e-7
0.019, 1.2986507e-7, 1.3758276e-7
0.018, 1.3128329e-7, 1.1746399e-7
0.017, 1.1894817e-7, 9.9818827e-8
0.016, 1.3258605e-7, 9.5910508e-8
0.015, 1.0770143e-7, 6.5369541e-8
0.014, 1.2823249e-7, 1.2707812e-7
0.013, 1.1461108e-7, 1.0813019e-7
0.012, 1.2020146e-7, 1.1967376e-7
0.011, 1.3425162e-7, 1.2310383e-7
0.010, 1.1365461e-7, 9.3948103e-8
0.009, 1.2686374e-7, 1.0423836e-7
0.008, 1.1347321e-7, 5.4963849e-8
0.007, 1.3090398e-7, 1.2476941e-7
0.006, 1.2554447e-7, 1.1949236e-7
0.005, 1.1367111e-7, 1.0888877e-7
0.004, 1.3189343e-7, 1.2491783e-7
0.003, 1.0763546e-7, 9.6603117e-8
0.002, 1.2984859e-7, 1.2600621e-7
0.001, 1.1348970e-7, 7.0399238e-8
-0.000, 1.2331822e-7, 8.7153893e-8
-0.001, 1.3139872e-7, 1.1556754e-7
-0.002, 1.0644813e-7, 1.2152073e-7
-0.003, 1.3237168e-7, 1.4774110e-7
-0.004, 1.1030698e-7, 1.1127993e-7
-0.005, 1.2287296e-7, 9.6289796e-8
-0.006, 1.2544554e-7, 7.5511387e-8
-0.007, 1.1499037e-7, 7.6220488e-8
-0.008, 1.2592376e-7, 1.1292902e-7
-0.009, 1.0087425e-7, 9.6042427e-8
-0.010, 1.2590728e-7, 1.5000035e-7
-0.011, 1.1339075e-7, 1.2371399e-7
-0.012, 1.2391189e-7, 9.8598512e-8
-0.013, 1.2971665e-7, 1.0837756e-7
-0.014, 1.0603586e-7, 8.6461277e-8
-0.015, 1.2930438e-7, 1.2064672e-7
-0.016, 9.9142710e-8, 1.1180764e-7
-0.017, 1.2773776e-7, 1.4729585e-7
-0.018, 1.1630964e-7, 1.2503327e-7
-0.019, 1.1591385e-7, 9.4442825e-8
-0.020, 1.3590071e-7, 1.0242437e-7
-0.021, 1.0131949e-7, 7.7523261e-8
-0.022, 1.2847984e-7, 1.3164608e-7
-0.023, 1.0801476e-7, 1.0428784e-7
-0.024, 1.1759592e-7, 1.2971665e-7
-0.025, 1.2163616e-7, 1.4607554e-7
-0.026, 9.7493626e-8, 1.1035645e-7
-0.027, 1.2889211e-7, 1.0763547e-7
-0.028, 1.0822914e-7, 6.9178917e-8
-0.029, 1.2580833e-7, 1.2452205e-7
-0.030, 1.2369750e-7, 1.1870080e-7
-0.031, 1.1738153e-7, 1.2173510e-7
-0.032, 1.2795215e-7, 1.2034987e-7
-0.033, 9.1523958e-8, 1.0801475e-7
-0.034, 1.2725951e-7, 1.0860843e-7
-0.035, 1.0255631e-7, 8.7764050e-8
-0.036, 1.1165923e-7, 1.2753986e-7
-0.037, 1.1950884e-7, 1.2874369e-7
-0.038, 1.1175817e-7, 1.2539607e-7
-0.039, 1.3566984e-7, 1.5252343e-7
-0.040, 1.0136896e-7, 1.0166580e-7
-0.041, 1.2513220e-7, 1.1626015e-7
-0.042, 1.1467704e-7, 9.4739661e-8
-0.043, 1.0740460e-7, 1.0506290e-7
-0.044, 1.2190002e-7, 1.3632946e-7
-0.045, 1.0413942e-7, 1.4218369e-7
-0.046, 1.2498379e-7, 1.4457487e-7
-0.047, 1.0613481e-7, 1.0878983e-7
-0.048, 1.2740794e-7, 1.1635910e-7
-0.049, 1.1818958e-7, 9.0880818e-8
-0.050, 1.1055434e-7, 9.0336613e-8
-0.051, 1.1929447e-7, 1.2326875e-7
-0.052, 1.0306752e-7, 1.0542570e-7
-0.053, 1.2036637e-7, 1.6751358e-7
-0.054, 1.0743758e-7, 1.1088416e-7
-0.055, 1.2231229e-7, 1.0817967e-7
-0.056, 1.2956824e-7, 1.1205500e-7
-0.057, 1.0094021e-7, 7.8842533e-8
-0.058, 1.2627007e-7, 1.3827537e-7
-0.059, 9.3370922e-8, 1.1446267e-7
-0.060, 1.2214737e-7, 1.6142846e-7
-0.061, 1.1058732e-7, 1.4078198e-7
-0.062, 1.0684391e-7, 1.2394486e-7
-0.063, 1.2222984e-7, 1.2312034e-7
-0.064, 9.9950753e-8, 8.7170378e-8
-0.065, 1.2328523e-7, 1.4493767e-7
-0.066, 1.0430432e-7, 1.2615465e-7
-0.067, 1.1584788e-7, 1.3378988e-7
-0.068, 1.2374699e-7, 1.3626349e-7
-0.069, 1.0629971e-7, 1.2887561e-7
-0.070, 1.2749040e-7, 1.2048180e-7
-0.071, 9.5531220e-8, 9.5959976e-8
-0.072, 1.2806757e-7, 1.3474634e-7
-0.073, 1.1751345e-7, 1.3947921e-7
-0.074, 1.1198904e-7, 1.3787960e-7
-0.075, 1.2142178e-7, 1.4355244e-7
-0.076, 9.7675020e-8, 1.2231229e-7
-0.077, 1.3294886e-7, 1.3731892e-7
-0.078, 1.0524430e-7, 9.7444151e-8
-0.079, 1.1283007e-7, 1.2725953e-7
-0.080, 1.1940990e-7, 1.4246405e-7
-0.081, 9.3783200e-8, 1.4765864e-7
-0.082, 1.2463749e-7, 1.5476618e-7
-0.083, 1.0047846e-7, 1.2783670e-7
-0.084, 1.2330173e-7, 1.3994095e-7
-0.085, 1.1365461e-7, 1.1535317e-7
-0.086, 1.1670541e-7, 1.0986173e-7
-0.087, 1.1471003e-7, 1.5094031e-7
-0.088, 8.9742947e-8, 1.5245746e-7
-0.089, 1.2112494e-7, 1.8990808e-7
-0.090, 1.0822914e-7, 1.5892185e-7
-0.091, 1.1809064e-7, 1.4370086e-7
-0.092, 1.2115792e-7, 1.6695287e-7
-0.093, 1.0240788e-7, 1.1617770e-7
-0.094, 1.2620411e-7, 1.5732225e-7
-0.095, 9.5102450e-8, 1.4274438e-7
-0.096, 1.2463748e-7, 1.8204197e-7
-0.097, 1.1312690e-7, 1.7358219e-7
-0.098, 1.1523773e-7, 1.3872062e-7
-0.099, 1.2002006e-7, 1.6159338e-7
-0.100, 9.8565522e-8, 1.2584131e-7
-0.101, 1.2798512e-7, 1.7128997e-7
-0.102, 1.0204508e-7, 1.5537634e-7
-0.103, 1.2485187e-7, 1.7597334e-7
-0.104, 1.2165265e-7, 2.0936722e-7
-0.105, 1.0813019e-7, 1.4381629e-7
-0.106, 1.2153721e-7, 1.5418901e-7
-0.107, 1.0064336e-7, 1.1372057e-7
-0.108, 1.1736504e-7, 1.5712438e-7
-0.109, 1.1215395e-7, 1.7618773e-7
-0.110, 1.1586438e-7, 1.6881634e-7
-0.111, 1.2481888e-7, 2.1485866e-7
-0.112, 9.7460642e-8, 1.7790278e-7
-0.113, 1.2692971e-7, 1.7575897e-7
-0.114, 1.0628322e-7, 1.5621737e-7
-0.115, 1.1837098e-7, 1.3919886e-7
-0.116, 1.1274761e-7, 1.9694966e-7
-0.117, 1.0728917e-7, 1.8494435e-7
-0.118, 1.2918895e-7, 1.9582828e-7
-0.119, 9.5283859e-8, 1.8532364e-7
-0.120, 1.2328525e-7, 1.8573591e-7
-0.121, 1.0425485e-7, 1.9093052e-7
-0.122, 1.1518825e-7, 1.4587764e-7
-0.123, 1.2288946e-7, 2.0573924e-7
-0.124, 9.7493626e-8, 1.9635598e-7
-0.125, 1.2491783e-7, 2.1637582e-7
-0.126, 1.0136895e-7, 2.2011923e-7
-0.127, 1.2229579e-7, 2.0112182e-7
-0.128, 1.1987166e-7, 2.0593714e-7
-0.129, 1.1228587e-7, 1.5519493e-7
-0.130, 1.2689672e-7, 1.9074911e-7
-0.131, 9.3255480e-8, 2.0420562e-7
-0.132, 1.2315331e-7, 2.1057107e-7
-0.133, 1.0369418e-7, 2.3012916e-7
-0.134, 1.1301147e-7, 2.1616144e-7
-0.135, 1.2292244e-7, 2.1461130e-7
-0.136, 9.8004840e-8, 2.1523795e-7
-0.137, 1.2603920e-7, 1.8520819e-7
-0.138, 1.0366119e-7, 2.2582505e-7
-0.139, 1.1754643e-7, 2.1598004e-7
-0.140, 1.1589736e-7, 2.4500386e-7
-0.141, 1.1757942e-7, 2.4300846e-7
-0.142, 1.2884264e-7, 2.2038307e-7
-0.143, 9.7262756e-8, 2.3552164e-7
-0.144, 1.1911307e-7, 2.0587117e-7
-0.145, 1.0611831e-7, 2.0348001e-7
-0.146, 1.1940990e-7, 2.4168921e-7
-0.147, 1.2260912e-7, 2.4380003e-7
-0.148, 1.0582148e-7, 2.7668267e-7
-0.149, 1.3162959e-7, 2.5059424e-7
-0.150, 1.0461764e-7, 2.5006653e-7
-0.151, 1.2419224e-7, 2.6156061e-7
-0.152, 1.1886570e-7, 2.2735870e-7
-0.153, 1.1739802e-7, 2.5969717e-7
-0.154, 1.2785320e-7, 2.6489175e-7
-0.155, 1.0479905e-7, 2.7605603e-7
-0.156, 1.2600623e-7, 2.8746766e-7
-0.157, 1.0776739e-7, 2.5793264e-7
-0.158, 1.2511572e-7, 2.5976311e-7
-0.159, 1.3121732e-7, 2.5415625e-7
-0.160, 1.0613480e-7, 2.7427504e-7
-0.161, 1.2323576e-7, 2.8397162e-7
-0.162, 9.8499569e-8, 3.0118801e-7
-0.163, 1.2471995e-7, 3.3585169e-7
-0.164, 1.1113151e-7, 3.0791625e-7
-0.165, 1.2608868e-7, 2.8446632e-7
-0.166, 1.3654385e-7, 3.1345718e-7
-0.167, 1.0819615e-7, 2.6593068e-7
-0.168, 1.3446601e-7, 3.1945984e-7
-0.169, 1.0489799e-7, 3.0555807e-7
-0.170, 1.2895808e-7, 3.5376067e-7
-0.171, 1.1845343e-7, 3.4869802e-7
-0.172, 1.1606227e-7, 3.1355611e-7
-0.173, 1.3848975e-7, 3.3346052e-7
-0.174, 1.0803124e-7, 2.9986873e-7
-0.175, 1.3106890e-7, 3.4741174e-7
-0.176, 1.2145476e-7, 3.4963799e-7
-0.177, 1.2252667e-7, 3.5102323e-7
-0.178, 1.3723647e-7, 3.9843431e-7
-0.179, 1.0699232e-7, 3.4371780e-7
-0.180, 1.3730242e-7, 3.6500742e-7
-0.181, 1.0658005e-7, 3.3979299e-7
-0.182, 1.3280044e-7, 3.3036025e-7
-0.183, 1.2782021e-7, 3.9942373e-7
-0.184, 1.1992111e-7, 3.7691376e-7
-0.185, 1.3560387e-7, 4.0049562e-7
-0.186, 1.0339733e-7, 3.9333861e-7
-0.187, 1.3563685e-7, 3.8281752e-7
-0.188, 1.2041585e-7, 4.1236899e-7
-0.189, 1.2425819e-7, 3.5992826e-7
-0.190, 1.3794556e-7, 4.1766256e-7
-0.191, 1.0473309e-7, 4.2308801e-7
-0.192, 1.4162302e-7, 4.4624113e-7
-0.193, 1.1324234e-7, 4.5892256e-7
-0.194, 1.3992445e-7, 4.5663032e-7
-0.195, 1.3522458e-7, 4.4525166e-7
-0.196, 1.3120084e-7, 4.0115526e-7
-0.197, 1.4465732e-7, 4.2571008e-7
-0.198, 1.0948244e-7, 4.7074644e-7
-0.199, 1.3875361e-7, 4.7368181e-7
-0.200, 1.2549501e-7, 4.9206903e-7
-0.201, 1.3126679e-7, 4.9345425e-7
-0.202, 1.4615797e-7, 5.0780130e-7
-0.203, 1.2864476e-7, 4.9833557e-7
-0.204, 1.5188029e-7, 4.7452284e-7
-0.205, 1.3225623e-7, 5.0982965e-7
-0.206, 1.4345349e-7, 5.2261004e-7
-0.207, 1.3961113e-7, 5.5649861e-7
-0.208, 1.4307420e-7, 5.4907775e-7
-0.209, 1.5377674e-7, 5.2965157e-7
-0.210, 1.2956824e-7, 5.5854349e-7
-0.211, 1.4632289e-7, 5.2773868e-7
-0.212, 1.3522458e-7, 5.4012327e-7
-0.213, 1.4962106e-7, 5.7031792e-7
-0.214, 1.5817977e-7, 5.9676915e-7
-0.215, 1.4393171e-7, 6.1215508e-7
-0.216, 1.6093374e-7, 5.9432853e-7
-0.217, 1.3718699e-7, 5.9582919e-7
-0.218, 1.6157689e-7, 6.0857656e-7
-0.219, 1.5120416e-7, 6.0499809e-7
-0.220, 1.5639877e-7, 6.3766635e-7
-0.221, 1.6927808e-7, 6.5595464e-7
-0.222, 1.4907685e-7, 6.7036763e-7
-0.223, 1.6548520e-7, 6.8910117e-7
-0.224, 1.5384269e-7, 6.5712555e-7
-0.225, 1.7287309e-7, 6.7564463e-7
-0.226, 1.7575897e-7, 6.6382074e-7
-0.227, 1.5618440e-7, 6.8829308e-7
-0.228, 1.8576890e-7, 7.0394287e-7
-0.229, 1.5847661e-7, 7.2826685e-7
-0.230, 1.7989815e-7, 7.6515676e-7
-0.231, 1.7229590e-7, 7.3359337e-7
-0.232, 1.8223987e-7, 7.3705644e-7
-0.233, 1.8261915e-7, 7.2909137e-7
-0.234, 1.6853600e-7, 7.3451685e-7
-0.235, 1.9149120e-7, 7.8769966e-7
-0.236, 1.6934405e-7, 7.9414758e-7
-0.237, 1.8817656e-7, 8.3791411e-7
-0.238, 1.9101296e-7, 8.4897948e-7
-0.239, 1.8197599e-7, 8.2168719e-7
-0.240, 2.0364492e-7, 8.4126179e-7
-0.241, 1.7762244e-7, 8.1464566e-7
-0.242, 2.0702554e-7, 8.7783843e-7
-0.243, 1.7943643e-7, 8.6942805e-7
-0.244, 1.9863171e-7, 9.1202389e-7
-0.245, 1.9619108e-7, 9.2775599e-7
-0.246, 1.8186059e-7, 9.0552646e-7
-0.247, 2.1053808e-7, 9.2101135e-7
-0.248, 1.8642851e-7, 8.9287801e-7
-0.249, 2.1104930e-7, 9.5394341e-7
-0.250, 2.0155058e-7, 9.8524299e-7
-0.251, 2.0854269e-7, 9.8519354e-7
-0.252, 2.1479269e-7, 1.0209455e-6
-0.253, 1.9693317e-7, 9.9325757e-7
-0.254, 2.2003677e-7, 1.0128816e-6
-0.255, 2.0120429e-7, 9.9497254e-7
-0.256, 2.1683755e-7, 1.0316976e-6
-0.257, 2.1911329e-7, 1.0724298e-6
-0.258, 2.0374387e-7, 1.0807908e-6
-0.259, 2.2696291e-7, 1.1080500e-6
-0.260, 1.9777420e-7, 1.0979412e-6
-0.261, 2.2915620e-7, 1.1043891e-6
-0.262, 2.1685405e-7, 1.0837260e-6
-0.263, 2.1396816e-7, 1.0859853e-6
-0.264, 2.2615487e-7, 1.1390528e-6
-0.265, 1.9816997e-7, 1.1592044e-6
-0.266, 2.2678151e-7, 1.2187197e-6
-0.267, 2.1294574e-7, 1.1883272e-6
-0.268, 2.1842068e-7, 1.1894487e-6
-0.269, 2.2874393e-7, 1.2218530e-6
-0.270, 2.1228610e-7, 1.1886241e-6
-0.271, 2.3202558e-7, 1.2552140e-6
-0.272, 1.9696616e-7, 1.2526249e-6
-0.273, 2.2348335e-7, 1.3038782e-6
-0.274, 2.1621092e-7, 1.3188354e-6
-0.275, 2.1602951e-7, 1.2950723e-6
-0.276, 2.2907375e-7, 1.3230076e-6
-0.277, 2.0641536e-7, 1.2918565e-6
-0.278, 2.3004669e-7, 1.3566653e-6
-0.279, 2.0681115e-7, 1.3535156e-6
-0.280, 2.2688046e-7, 1.3959300e-6
-0.281, 2.2133955e-7, 1.4284992e-6
-0.282, 2.0793253e-7, 1.4043402e-6
-0.283, 2.2829867e-7, 1.3993271e-6
-0.284, 1.9793909e-7, 1.3836608e-6
-0.285, 2.1317661e-7, 1.4763061e-6
-0.286, 2.0196286e-7, 1.4800165e-6
-0.287, 2.0689360e-7, 1.4958806e-6
-0.288, 2.2097676e-7, 1.5331500e-6
-0.289, 1.8385596e-7, 1.5131631e-6
-0.290, 2.1687055e-7, 1.5388227e-6
-0.291, 1.9643845e-7, 1.4885422e-6
-0.292, 2.0387579e-7, 1.5613161e-6
-0.293, 2.0044570e-7, 1.5870253e-6
-0.294, 1.9947277e-7, 1.5968704e-6
-0.295, 2.1228610e-7, 1.6184568e-6
-0.296, 1.7808418e-7, 1.6164779e-6
-0.297, 2.0484875e-7, 1.6362339e-6
-0.298, 1.8733552e-7, 1.6222166e-6
-0.299, 1.9821944e-7, 1.6596508e-6
-0.300, 2.0089097e-7, 1.6888396e-6
-0.301, 1.7435724e-7, 1.7260263e-6
-0.302, 2.0100640e-7, 1.7463431e-6
-0.303, 1.6650763e-7, 1.7297697e-6
-0.304, 1.9536654e-7, 1.7429788e-6
-0.305, 1.8938037e-7, 1.7334143e-6
-0.306, 1.7744104e-7, 1.7397136e-6
-0.307, 1.9119437e-7, 1.7827052e-6
-0.308, 1.6687042e-7, 1.8123392e-6
-0.309, 1.8634607e-7, 1.8461618e-6
-0.310, 1.7203206e-7, 1.8261915e-6
-0.311, 1.8415280e-7, 1.8286814e-6
-0.312, 1.8385596e-7, 1.8157033e-6
-0.313, 1.5369427e-7, 1.8709638e-6
-0.314, 1.8595028e-7, 1.8817655e-6
-0.315, 1.5837767e-7, 1.9028078e-6
-0.316, 1.8405385e-7, 1.9474812e-6
-0.317, 1.6969035e-7, 1.9518350e-6
-0.318, 1.7092717e-7, 1.9244437e-6
-0.319, 1.8621415e-7, 1.8945952e-6
-0.320, 1.4950561e-7, 1.9331837e-6
-0.321, 1.7163627e-7, 1.9749714e-6
-0.322, 1.5361182e-7, 1.9972836e-6
-0.323, 1.7194961e-7, 2.0229268e-6
-0.324, 1.7285659e-7, 2.0350803e-6
-0.325, 1.6345683e-7, 2.0110533e-6
-0.326, 1.7376358e-7, 1.9879496e-6
-0.327, 1.5077542e-7, 1.9925342e-6
-0.328, 1.7345026e-7, 2.0490975e-6
-0.329, 1.5567318e-7, 2.0930950e-6
-0.330, 1.5620088e-7, 2.1041440e-6
-0.331, 1.7198259e-7, 2.1084645e-6
-0.332, 1.4591062e-7, 2.0910174e-6
-0.333, 1.6934405e-7, 2.0657865e-6
-0.334, 1.5417253e-7, 2.0799848e-6
-0.335, 1.6357225e-7, 2.1065352e-6
-0.336, 1.6545224e-7, 2.1486526e-6
-0.337, 1.4912634e-7, 2.1692001e-6
-0.338, 1.6449576e-7, 2.1395992e-6
-0.339, 1.4272790e-7, 2.1301994e-6
-0.340, 1.6116462e-7, 2.1211788e-6
-0.341, 1.5267184e-7, 2.1181118e-6
-0.342, 1.5667912e-7, 2.1482899e-6
-0.343, 1.6720026e-7, 2.1830690e-6
-0.344, 1.4281035e-7, 2.2023469e-6
-0.345, 1.6565011e-7, 2.1909020e-6
-0.346, 1.4828531e-7, 2.1567002e-6
-0.347, 1.5664612e-7, 2.1359217e-6
-0.348, 1.5695946e-7, 2.1638903e-6
-0.349, 1.5024769e-7, 2.1718222e-6
-0.350, 1.6380315e-7, 2.1644014e-6
-0.351, 1.4007287e-7, 2.2120103e-6
-0.352, 1.6177478e-7, 2.1962287e-6
-0.353, 1.5059400e-7, 2.1846849e-6
-0.354, 1.5385919e-7, 2.1145827e-6
-0.355, 1.6381962e-7, 2.1284347e-6
-0.356, 1.4238158e-7, 2.1690353e-6
-0.357, 1.6372069e-7, 2.1848830e-6
-0.358, 1.3659331e-7, 2.1971521e-6
-0.359, 1.6029058e-7, 2.1718058e-6
-0.360, 1.5526091e-7, 2.1565022e-6
-0.361, 1.4826880e-7, 2.1074093e-6
-0.362, 1.6682095e-7, 2.1168089e-6
-0.363, 1.3641191e-7, 2.1263240e-6
-0.364, 1.6347332e-7, 2.1447113e-6
-0.365, 1.3933079e-7, 2.1582007e-6
-0.366, 1.5028070e-7, 2.1005985e-6
-0.367, 1.6273124e-7, 2.0980424e-6
-0.368, 1.3893501e-7, 2.0530556e-6
-0.369, 1.6226949e-7, 2.0215743e-6
-0.370, 1.3545545e-7, 2.0735536e-6
-0.371, 1.5770155e-7, 2.0643351e-6
-0.372, 1.4607552e-7, 2.0911327e-6
-0.373, 1.5395813e-7, 2.0249881e-6
-0.374, 1.6710129e-7, 2.0134280e-6
-0.375, 1.3629648e-7, 1.9525769e-6
-0.376, 1.5784995e-7, 1.9729596e-6
-0.377, 1.4460785e-7, 1.9629827e-6
-0.378, 1.5245747e-7, 1.9573263e-6
-0.379, 1.5727279e-7, 1.9764557e-6
-0.380, 1.4393173e-7, 1.9230420e-6
-0.381, 1.6950897e-7, 1.9022635e-6
-0.382, 1.3700559e-7, 1.8385431e-6
-0.383, 1.6170881e-7, 1.8450239e-6
-0.384, 1.5587108e-7, 1.8518676e-6
-0.385, 1.4843373e-7, 1.8282034e-6
-0.386, 1.6197266e-7, 1.8403241e-6
-0.387, 1.3982550e-7, 1.7904064e-6
-0.388, 1.7341729e-7, 1.7639552e-6
-0.389, 1.4541590e-7, 1.6970025e-6
-0.390, 1.6983877e-7, 1.6881800e-6
-0.391, 1.5780050e-7, 1.7034505e-6
-0.392, 1.4785654e-7, 1.6712274e-6
-0.393, 1.5963097e-7, 1.6810064e-6
-0.394, 1.4538293e-7, 1.6210129e-6
-0.395, 1.6235194e-7, 1.6057753e-6
-0.396, 1.5451882e-7, 1.5438853e-6
-0.397, 1.5583808e-7, 1.5307256e-6
-0.398, 1.6078533e-7, 1.5442647e-6
-0.399, 1.5006628e-7, 1.5179123e-6
-0.400, 1.6655711e-7, 1.5272462e-6
-0.401, 1.4787304e-7, 1.4392347e-6
-0.402, 1.6815670e-7, 1.4325724e-6
-0.403, 1.6508942e-7, 1.3790434e-6
-0.404, 1.4896142e-7, 1.3860520e-6
-0.405, 1.6240142e-7, 1.3577867e-6
-0.406, 1.3944623e-7, 1.3467048e-6
-0.407, 1.6187373e-7, 1.3531034e-6
-0.408, 1.5110523e-7, 1.2869588e-6
-0.409, 1.7348324e-7, 1.2566156e-6
-0.410, 1.6680447e-7, 1.2055270e-6
-0.411, 1.4788952e-7, 1.2038780e-6
-0.412, 1.6898127e-7, 1.2136077e-6
-0.413, 1.4948914e-7, 1.1943134e-6
-0.414, 1.6157688e-7, 1.1887560e-6
-0.415, 1.6217055e-7, 1.1541583e-6
-0.416, 1.5897133e-7, 1.1108864e-6
-0.417, 1.7157031e-7, 1.0572584e-6
-0.418, 1.4032025e-7, 1.0594351e-6
-0.419, 1.6917915e-7, 1.0585281e-6
-0.420, 1.5649772e-7, 1.0548176e-6
-0.421, 1.7140539e-7, 1.0362161e-6
-0.422, 1.6927808e-7, 1.0054111e-6
-0.423, 1.4853266e-7, 9.9330703e-7
-0.424, 1.7345025e-7, 9.2909193e-7
-0.425, 1.5069294e-7, 9.3375877e-7
-0.426, 1.7369763e-7, 9.3786491e-7
-0.427, 1.6276422e-7, 9.4945801e-7
-0.428, 1.6825565e-7, 9.2503507e-7
-0.429, 1.7577547e-7, 8.9749551e-7
-0.430, 1.5283676e-7, 8.7678302e-7
-0.431, 1.7831505e-7, 8.3037787e-7
-0.432, 1.5633282e-7, 8.3639708e-7
-0.433, 1.7105910e-7, 8.3336272e-7
-0.434, 1.7353271e-7, 8.4317469e-7
-0.435, 1.5286973e-7, 8.4564840e-7
-0.436, 1.8761587e-7, 7.7355060e-7
-0.437, 1.6398455e-7, 7.7630455e-7
-0.438, 1.7514881e-7, 7.2376486e-7
-0.439, 1.7437374e-7, 7.6077032e-7
-0.440, 1.6858547e-7, 7.4342194e-7
-0.441, 1.7928799e-7, 7.5592186e-7
-0.442, 1.5006630e-7, 7.6507422e-7
-0.443, 1.7633616e-7, 7.1050624e-7
-0.444, 1.6426488e-7, 7.0234319e-7
-0.445, 1.7770489e-7, 6.4093155e-7
-0.446, 1.8670886e-7, 6.7485314e-7
-0.447, 1.6962439e-7, 6.8077338e-7
-0.448, 1.9727948e-7, 6.8514339e-7
-0.449, 1.5930115e-7, 6.9559849e-7
-0.450, 1.7800171e-7, 6.5570725e-7
-0.451, 1.7678140e-7, 6.6377129e-7
-0.452, 1.7843050e-7, 5.9673619e-7
-0.453, 1.9281048e-7, 6.4040381e-7
-0.454, 1.6375367e-7, 6.4127789e-7
-0.455, 1.9051824e-7, 6.5849417e-7
-0.456, 1.7249380e-7, 6.4884705e-7
-0.457, 1.9078209e-7, 6.0506409e-7
-0.458, 1.8789622e-7, 6.1881741e-7
-0.459, 1.6993772e-7, 5.6655801e-7
-0.460, 1.9821944e-7, 5.8900201e-7
-0.461, 1.7153732e-7, 5.9271247e-7
-0.462, 1.8299843e-7, 6.2749154e-7
-0.463, 1.8649447e-7, 6.2961885e-7
-0.464, 1.8682429e-7, 5.7073021e-7
-0.465, 2.0000046e-7, 5.7788719e-7
-0.466, 1.6916265e-7, 5.2912389e-7
-0.467, 2.0183094e-7, 5.7089505e-7
-0.468, 1.7137242e-7, 5.6703618e-7
-0.469, 1.9307433e-7, 5.8220775e-7
-0.470, 1.8840741e-7, 6.2002118e-7
-0.471, 1.8771480e-7, 5.7033446e-7
-0.472, 2.0140217e-7, 5.5611929e-7
-0.473, 1.7204854e-7, 5.0743847e-7
-0.474, 2.0717395e-7, 5.5184825e-7
-0.475, 1.7810066e-7, 5.6617876e-7
-0.476, 1.9416269e-7, 5.5651503e-7
-0.477, 2.0885602e-7, 5.9187136e-7
-0.478, 1.7673194e-7, 5.6083570e-7
-0.479, 2.0855919e-7, 5.4731322e-7
-0.480, 1.7594037e-7, 4.9993514e-7
-0.481, 2.1057107e-7, 5.3738574e-7
-0.482, 2.0066008e-7, 5.5077629e-7
-0.483, 1.9891206e-7, 5.5202963e-7
-0.484, 2.1190681e-7, 5.7770580e-7
-0.485, 1.8534014e-7, 5.4142600e-7
-0.486, 2.0785006e-7, 5.3626439e-7
-0.487, 2.0018186e-7, 4.8299910e-7
-0.488, 2.0717394e-7, 5.2046619e-7
-0.489, 2.1385272e-7, 5.4845111e-7
-0.490, 1.8824251e-7, 5.5597093e-7
-0.491, 2.2976636e-7, 5.6011004e-7
-0.492, 1.9460796e-7, 5.2071357e-7
-0.493, 2.1820630e-7, 5.2721100e-7
-0.494, 2.1833823e-7, 5.0907101e-7
-0.495, 2.0303476e-7, 5.0298598e-7
-0.496, 2.2514892e-7, 5.3309816e-7
-0.497, 1.9403078e-7, 5.3992534e-7
-0.498, 2.1838771e-7, 5.6050590e-7
-0.499, 2.0254004e-7, 5.3964504e-7
-0.500, 2.2036659e-7, 5.1401832e-7
